# session_0,session_1,session_2,session_3,session_4,session_5,session_6,session_7,session_8,session_9,session_10,session_11,session_12,session_13,session_14,session_15,session_16,session_17,session_18,session_19,session_20,session_21,session_22,session_23,session_24,session_25,session_26,session_27,session_28,session_29,session_30,session_31,session_32,session_33,session_34,session_35,session_36,session_37,session_38,session_39,session_40,session_41,session_42,session_43,session_44,session_45,session_46,session_47,session_48,session_49,session_50,session_51,session_52,session_53,session_54,session_55,session_56,session_57,session_58,session_59,session_60,session_61,session_62,session_63,session_64,session_65,session_66,session_67,session_68,session_69,session_70,session_71,session_72,session_73,session_74,session_75,session_76,session_77,session_78,session_79,session_80,session_81,session_82,session_83,session_84,session_85,session_86,session_87,session_88,session_89,session_90,session_91,session_92,session_93,session_94,session_95,session_96,session_97,session_98,session_99,session_100,session_101,session_102,session_103,session_104,session_105,session_106,session_107,session_108,session_109,session_110,session_111,session_112,session_113,session_114,session_115,session_116,session_117,session_118,session_119,session_120,session_121,session_122,session_123,session_124,session_125,session_126,session_127,session_128,session_129,session_130,session_131,session_132,session_133,session_134,session_135,session_136,session_137,session_138,session_139,session_140,session_141,session_142,session_143,session_144,session_145,session_146,session_147,session_148,session_149,session_150,session_151,session_152,session_153,session_154,session_155,session_156,session_157,session_158,session_159,session_160,session_161,session_162,session_163,session_164,session_165,session_166,session_167,session_168,session_169,session_170,session_171,session_172,session_173,session_174,session_175,session_176,session_177,session_178,session_179,session_180,session_181,session_182,session_183,session_184,session_185,session_186,session_187,session_188,session_189,session_190,session_191,session_192,session_193,session_194,session_195,session_196,session_197,session_198,session_199,session_200,session_201,session_202,session_203,session_204,session_205,session_206,session_207,session_208,session_209,session_210,session_211,session_212,session_213,session_214,session_215,session_216,session_217,session_218,session_219,session_220,session_221,session_222,session_223,session_224,session_225,session_226,session_227,session_228,session_229,session_230,session_231,session_232,session_233,session_234,session_235,session_236,session_237,session_238,session_239,session_240,session_241,session_242,session_243,session_244,session_245,session_246,session_247,session_248,session_249,session_250,session_251,session_252,session_253,session_254,session_255,session_256,session_257,session_258,session_259,session_260,session_261,session_262,session_263,session_264,session_265,session_266,session_267,session_268,session_269,session_270,session_271,session_272,session_273,session_274,session_275,session_276,session_277,session_278,session_279,session_280,session_281,session_282,session_283,session_284,session_285,session_286,session_287,session_288,session_289,session_290,session_291,session_292,session_293,session_294,session_295,session_296,session_297,session_298,session_299,session_300,session_301,session_302,session_303,session_304,session_305,session_306,session_307,session_308,session_309,session_310,session_311,session_312,session_313,session_314,session_315,session_316,session_317,session_318,session_319,session_320,session_321,session_322,session_323,session_324,session_325,session_326,session_327,session_328,session_329,session_330,session_331,session_332,session_333,session_334,session_335,session_336,session_337,session_338,session_339,session_340,session_341,session_342,session_343,session_344,session_345,session_346,session_347,session_348,session_349,session_350,session_351,session_352,session_353,session_354,session_355
64,81,93,102,102,112,111,109,108,103,109,109,108,108,111,112,110,111,116,0,117,120,108,103,102,96,104,104,101,105,101,103,99,105,98,104,99,100,106,102,98,101,105,107,100,104,106,105,108,103,103,107,114,116,111,108,114,114,113,116,116,111,111,108,110,120,116,117,117,115,118,121,114,108,115,110,106,108,108,103,98,98,109,116,124,123,115,121,110,108,106,116,113,109,113,123,126,127,125,120,116,115,109,98,99,101,109,113,117,111,102,116,119,120,119,127,123,126,118,116,120,127,118,109,110,114,121,120,118,114,113,120,116,110,115,113,112,111,115,121,117,118,109,125,120,121,121,115,109,113,122,129,123,120,124,119,117,117,109,110,109,119,112,109,0,109,108,0,0,127,0,97,98,103,102,99,0,97,0,174,99,96,96,0,0,145,166,103,178,189,188,0,138,138,0,167,168,0,168,168,183,166,127,138,191,197,0,0,169,132,132,184,126,136,170,0,0,150,173,164,191,185,178,158,146,0,170,176,165,174,170,192,194,170,172,0,184,184,0,87,87,99,97,95,0,0,96,169,172,176,0,182,168,194,173,149,183,196,174,205,122,167,118,0,99,109,109,110,108,111,111,108,108,112,118,111,99,99,90,0,85,82,82,81,79,80,79,83,79,79,74,76,75,77,79,82,79,81,78,77,72,74,79,74,82,69,72,76,79,80,85,76,80,70,79,72,80,73,75,80,79,76,77,85,81,76,75,75,75,79,73,73,73,75,71,76,75,75,75,72,69,65,69,67,71,70,68,74,85,73,80,93,97,94,85,88
64,81,81,102,102,102,112,109,108,103,109,109,108,108,107,112,112,111,111,0,117,117,120,102,102,102,96,102,103,101,105,101,103,99,105,98,105,99,100,106,102,98,101,104,107,100,104,106,105,108,104,103,107,118,116,111,104,114,114,114,116,116,111,109,108,110,120,116,117,117,115,118,118,114,105,115,109,106,108,108,102,97,103,109,116,124,124,115,121,110,108,106,116,113,106,113,123,126,125,125,120,116,115,109,98,96,101,109,114,117,111,103,116,119,120,122,127,123,123,118,116,120,118,109,109,110,114,122,119,118,114,114,119,115,115,115,113,112,112,116,121,117,118,125,120,120,120,115,115,109,117,123,128,122,124,119,117,117,109,109,113,118,117,110,109,109,108,0,0,0,127,95,97,98,103,101,99,0,0,174,94,96,96,0,0,0,166,166,181,188,188,0,138,138,0,167,168,0,168,168,183,166,166,152,191,159,0,0,169,132,132,184,114,140,170,0,0,150,173,164,191,185,178,158,142,0,170,176,165,174,170,192,194,170,172,0,184,184,0,0,87,87,94,98,95,0,0,176,172,176,0,182,171,194,173,149,183,205,129,205,122,167,118,118,0,99,109,109,110,108,0,0,108,108,112,118,111,99,0,90,0,85,83,82,81,80,79,79,83,80,80,74,76,75,78,79,83,79,81,77,77,76,78,78,70,78,69,72,76,80,80,85,76,80,70,78,72,80,73,73,80,79,77,77,85,81,76,75,76,74,79,69,73,74,71,71,76,75,75,75,72,69,67,69,67,70,70,68,68,86,73,79,93,97,94,85
59,64,81,95,102,102,112,111,109,108,103,109,108,108,108,110,112,110,111,117,0,117,120,107,100,102,96,102,103,101,104,101,102,99,105,98,105,99,100,105,102,98,101,104,107,100,104,106,105,109,104,103,107,118,115,111,104,114,114,114,116,116,111,109,108,110,120,116,117,117,115,117,118,114,105,115,108,106,108,108,101,96,103,109,117,124,123,121,121,110,108,106,115,113,120,113,123,126,127,125,119,116,115,107,98,96,101,108,114,117,111,103,118,119,120,122,127,123,123,118,116,120,126,118,109,110,114,122,119,118,114,114,119,115,110,115,113,112,112,116,121,117,118,129,123,120,121,120,115,109,117,123,128,122,120,124,119,117,0,109,113,118,117,109,109,109,109,108,108,0,127,95,97,98,102,100,99,0,97,0,174,94,96,96,0,0,145,166,103,181,188,188,0,138,0,0,167,168,0,168,168,182,124,135,152,191,130,0,129,169,132,132,184,114,160,165,0,0,150,173,164,191,185,178,158,142,0,170,176,162,174,170,188,194,174,172,0,184,0,0,87,87,94,97,95,0,0,96,189,172,176,0,182,171,194,173,149,183,205,129,205,122,167,118,0,99,109,109,110,108,111,0,108,108,112,118,111,100,0,90,0,85,83,82,81,79,80,79,83,78,80,74,78,75,80,79,83,79,81,77,77,71,76,77,70,78,69,72,76,79,80,85,76,80,76,78,72,80,73,73,80,73,76,77,85,81,76,75,77,73,79,69,73,73,74,73,76,75,75,75,72,70,67,69,68,70,70,68,67,86,73,79,93,97,94,85
59,64,81,95,102,102,112,111,109,108,103,109,106,108,108,110,112,111,111,117,0,117,120,107,97,102,105,102,103,101,103,101,101,99,105,98,104,99,100,105,102,98,101,104,107,100,101,107,105,109,104,103,107,119,116,98,104,114,115,114,116,116,111,109,108,110,120,116,117,117,115,118,118,114,105,115,107,106,108,105,102,95,103,110,117,124,123,121,121,110,108,106,115,113,120,113,123,126,126,125,107,116,111,107,98,96,101,108,114,117,111,103,119,119,120,113,124,121,123,118,116,120,126,118,109,110,114,122,119,117,114,114,119,116,109,115,114,112,114,116,121,118,118,130,123,120,121,120,115,109,117,123,128,122,120,131,118,117,0,108,113,122,116,109,109,109,109,108,108,0,127,95,97,100,102,100,99,0,97,0,174,96,96,0,0,0,145,166,103,186,188,188,155,138,0,0,167,168,0,0,168,182,124,136,184,191,130,0,129,169,132,132,184,114,160,165,0,0,150,173,164,191,185,178,158,142,0,170,176,162,174,170,192,194,170,172,0,184,0,0,87,87,93,97,94,0,0,96,186,172,176,0,182,171,194,173,149,188,205,129,205,122,167,118,0,99,109,109,110,108,111,0,108,108,112,118,111,100,0,90,0,85,83,82,78,79,80,79,83,76,79,74,78,75,81,79,83,79,81,77,77,70,76,76,70,77,69,73,76,79,80,85,77,80,78,78,72,80,73,73,80,73,77,77,85,81,76,75,77,73,79,69,73,73,74,76,76,75,75,74,73,70,67,69,68,70,70,68,67,88,73,79,93,99,94,90
59,64,81,96,102,102,112,111,109,108,103,109,105,108,108,110,112,110,109,117,0,117,120,107,97,102,105,102,103,102,101,101,100,102,105,98,104,99,100,104,102,98,101,104,107,100,104,107,106,109,104,104,108,119,115,111,105,114,115,114,116,116,111,109,108,112,120,116,117,115,115,118,117,114,105,114,107,106,108,105,101,95,104,112,118,124,122,121,121,110,108,106,115,113,120,113,123,126,126,125,106,116,111,107,98,96,101,108,114,117,109,103,119,120,120,122,125,121,123,119,116,119,126,118,109,110,114,122,119,117,114,114,119,115,109,115,114,112,115,117,121,118,118,130,122,120,122,120,115,109,119,123,128,123,120,134,118,117,0,108,113,122,116,109,109,109,109,108,108,0,127,95,94,100,102,100,98,0,97,0,174,96,96,0,0,0,145,100,103,186,188,188,155,138,0,0,167,168,0,0,171,182,124,136,184,191,126,126,129,170,132,132,184,114,166,165,0,0,0,173,164,191,185,178,166,142,0,170,176,162,174,170,192,194,170,172,0,184,0,0,87,87,93,97,94,0,0,96,186,172,176,0,182,171,194,173,190,188,205,121,205,122,167,118,92,99,109,112,110,108,111,0,108,108,112,118,111,100,0,90,0,85,85,82,78,79,79,79,83,74,79,76,78,75,82,79,83,79,83,77,76,70,78,76,70,77,70,80,76,79,80,84,77,80,79,78,73,79,73,73,80,73,77,77,85,81,77,75,76,73,79,69,73,74,74,76,76,75,75,74,73,71,67,72,68,70,70,68,67,89,73,79,94,99,94,90
59,64,81,96,102,102,112,112,109,108,103,109,105,108,110,110,112,110,109,117,117,117,120,108,97,101,105,102,103,103,101,101,100,104,105,98,104,99,101,103,99,98,101,104,106,100,102,108,106,109,104,104,112,119,115,111,105,114,115,114,116,116,111,110,108,112,120,116,117,115,116,118,117,114,115,113,107,106,108,105,101,95,104,112,118,124,122,121,121,111,107,106,115,113,120,111,123,126,126,125,106,116,111,107,98,96,101,106,114,117,109,103,120,120,120,115,124,121,126,119,116,119,126,118,110,110,114,122,119,117,114,116,119,115,109,115,114,111,116,118,121,118,109,130,122,120,122,120,114,109,119,123,126,123,120,131,118,117,0,106,113,122,116,109,109,109,109,108,108,0,127,95,96,100,101,100,98,0,97,0,174,96,96,0,0,0,145,100,103,186,188,0,138,138,0,178,167,168,0,0,171,182,124,137,175,169,126,126,129,170,132,132,184,114,166,165,0,0,0,173,164,191,185,178,191,142,142,170,0,162,174,170,192,194,170,172,163,184,0,0,87,87,93,97,94,0,0,96,176,172,176,0,182,171,194,173,199,185,205,121,205,122,167,118,92,99,109,115,110,108,111,0,108,107,112,118,111,99,0,90,0,86,85,82,78,79,78,79,83,74,79,76,78,75,82,79,83,77,85,77,76,70,82,76,70,76,70,80,76,79,80,84,77,80,79,78,76,79,73,73,80,73,77,77,85,81,77,75,76,74,79,69,73,74,74,76,76,75,75,74,73,74,67,73,68,70,70,68,67,90,73,82,94,99,95,90
59,64,83,96,102,102,112,112,109,108,103,109,105,108,110,110,112,109,111,117,117,118,115,108,97,103,105,102,103,103,99,101,100,104,105,98,103,99,101,102,99,98,101,104,106,100,103,108,107,109,104,104,112,119,115,111,105,114,115,114,116,116,109,109,108,112,120,116,117,115,117,120,117,114,115,113,107,106,108,105,100,95,104,112,118,124,116,121,113,111,107,106,115,115,120,109,123,127,126,125,106,116,111,107,98,99,101,106,114,117,108,103,120,120,120,115,125,121,126,119,116,119,123,118,110,110,114,122,119,116,114,116,119,115,109,115,114,111,116,118,121,118,109,129,122,120,123,120,114,110,119,123,126,121,120,128,118,117,0,106,113,123,116,109,109,109,109,108,108,0,127,95,96,100,101,100,98,0,97,0,173,96,96,0,0,0,145,100,103,186,188,0,138,138,0,174,167,168,0,0,171,182,124,137,186,169,126,126,129,170,132,132,184,114,169,165,159,0,0,166,164,191,185,178,194,142,142,176,0,162,174,165,192,176,170,172,160,184,0,0,87,87,92,97,94,0,0,0,176,179,176,0,182,171,194,173,199,175,205,121,205,122,167,118,92,99,109,114,110,108,111,0,108,107,114,118,109,99,0,90,0,86,85,79,78,82,76,79,83,74,79,76,78,74,88,80,82,76,84,77,76,70,82,72,72,76,70,81,76,79,80,84,79,80,79,74,79,79,73,74,80,73,77,77,85,81,77,76,76,74,79,69,73,75,74,76,76,74,75,74,73,74,67,73,68,70,70,67,67,92,73,83,94,101,95,90
59,64,86,97,102,102,112,112,109,108,103,109,105,108,110,110,111,109,111,117,117,118,115,108,97,103,103,102,103,102,99,101,99,104,105,98,102,99,101,101,98,98,101,106,105,100,102,108,107,109,104,105,112,119,115,111,105,114,115,114,116,116,109,109,108,112,119,103,117,115,117,120,116,114,115,113,107,106,109,104,99,95,104,112,118,124,108,121,120,111,107,106,114,115,120,109,123,127,126,125,106,116,111,107,97,100,101,106,114,117,108,103,120,120,120,115,125,123,126,119,116,112,123,118,110,110,124,122,119,116,114,117,119,115,109,115,114,111,116,118,121,118,109,129,122,120,123,120,114,110,120,123,126,121,121,128,118,117,0,106,113,123,116,109,0,109,108,108,108,0,127,95,96,100,101,99,98,0,0,0,166,96,96,0,96,0,152,100,103,186,186,0,138,138,0,174,167,168,0,0,171,181,126,137,186,190,126,126,129,170,132,132,184,114,170,165,159,0,0,147,164,191,185,178,194,142,142,176,0,162,165,165,188,176,170,172,160,184,0,0,87,87,92,97,94,0,0,0,176,179,0,0,182,171,194,173,205,175,205,121,195,122,167,118,92,99,109,114,110,108,111,0,108,107,115,118,108,99,0,90,0,86,85,79,79,82,76,79,83,80,79,76,78,74,88,79,81,75,84,77,76,70,82,71,74,76,70,81,76,79,80,84,79,80,79,74,77,79,73,76,80,73,77,77,85,81,77,76,76,74,79,69,73,75,72,76,75,70,76,74,73,74,67,73,68,70,69,67,67,92,73,83,94,101,95,0
59,64,88,98,102,104,112,112,109,108,103,109,105,108,110,110,111,109,111,117,117,118,113,108,97,103,100,102,103,101,99,101,99,104,105,98,102,98,102,100,98,98,101,106,101,101,102,108,107,109,103,105,114,119,114,98,105,114,115,114,116,115,109,109,108,112,119,116,119,115,116,120,117,114,115,113,107,106,111,104,99,95,104,112,118,124,107,121,120,120,107,106,114,115,120,109,122,126,126,125,106,118,111,106,97,100,101,106,114,117,108,103,120,121,120,128,125,125,124,119,116,112,123,118,110,110,124,122,119,116,112,120,119,115,109,115,114,111,116,120,121,118,109,128,122,120,123,120,111,110,120,123,125,121,121,128,118,117,0,107,113,123,116,109,0,109,108,108,108,0,127,95,96,100,100,99,98,0,0,0,166,96,96,0,96,0,152,100,144,186,186,0,138,138,0,174,167,0,0,0,171,182,126,137,189,197,126,126,129,170,132,132,184,114,170,165,159,179,0,131,164,191,185,178,194,142,170,176,0,162,165,165,192,176,170,0,160,184,0,0,87,0,92,97,94,0,0,0,176,179,0,0,182,171,194,173,195,175,205,129,142,122,167,118,92,99,109,114,110,109,111,0,108,107,115,118,106,99,0,90,0,90,84,79,82,82,76,79,83,80,79,76,78,74,88,78,80,72,84,77,76,70,82,71,74,76,70,81,76,79,80,84,80,80,79,74,76,78,73,77,80,73,77,77,85,76,77,76,76,79,79,69,73,75,71,76,75,70,77,74,77,75,67,73,68,70,69,67,67,94,90,83,94,101,95,0
59,64,88,98,102,108,111,112,109,109,103,109,105,105,110,110,112,109,111,117,117,118,114,108,97,102,100,102,103,100,99,101,99,104,105,98,102,98,102,98,98,98,101,106,100,101,102,105,107,109,103,105,114,119,112,111,105,114,115,115,116,115,111,109,109,112,118,116,119,115,117,120,117,114,115,113,107,106,111,103,99,95,105,113,118,124,107,109,113,120,107,106,113,115,120,109,122,126,126,124,104,118,111,103,97,99,106,106,115,117,108,103,120,121,120,128,114,125,125,119,116,112,123,118,110,113,124,122,118,116,112,120,119,115,109,115,114,111,116,120,121,118,109,128,122,120,123,119,109,110,120,123,125,121,121,128,118,117,0,107,113,123,116,109,0,109,108,108,108,0,127,97,96,97,100,99,98,0,0,0,166,96,96,96,96,0,153,100,144,186,188,0,138,138,0,174,167,0,0,0,171,182,126,137,189,197,126,126,135,170,132,132,175,114,170,165,159,170,0,131,164,191,185,178,194,142,170,176,0,162,165,165,192,176,170,0,160,184,0,0,87,0,92,97,94,0,0,0,176,176,0,181,182,171,194,173,191,175,205,152,142,122,167,0,92,99,109,114,110,109,111,0,108,106,117,118,105,99,97,90,0,90,84,77,82,83,76,82,83,81,80,76,78,74,88,77,80,70,84,77,75,70,82,71,74,76,71,81,76,79,80,75,80,72,81,72,75,78,73,77,80,73,77,75,85,74,76,76,76,79,77,71,73,75,61,76,75,70,77,77,77,75,67,74,68,70,68,68,67,95,90,83,95,101,95,0
59,64,88,98,102,108,111,112,109,109,103,109,105,104,110,110,112,109,111,117,117,118,114,107,97,102,100,102,103,100,99,101,99,103,103,98,102,98,105,97,98,97,101,106,100,102,102,105,107,108,103,106,114,119,112,108,105,114,115,115,116,115,111,109,109,118,118,116,120,115,117,120,117,114,115,113,107,106,111,103,99,95,105,113,118,124,116,110,113,111,106,106,113,114,120,109,115,127,126,124,109,118,111,103,97,99,109,109,116,117,108,103,120,121,120,128,112,126,125,119,116,112,123,118,110,113,124,122,118,116,112,120,119,115,109,114,114,111,116,120,120,118,109,127,122,120,122,119,109,110,120,123,124,120,121,128,118,117,0,107,113,123,115,109,0,109,108,108,108,0,127,97,96,97,101,99,98,0,0,0,164,96,96,96,96,0,153,100,169,186,188,0,138,138,0,174,167,0,0,0,171,169,126,137,189,197,126,126,135,170,132,132,175,114,170,165,159,170,0,131,164,183,185,178,194,142,170,176,0,162,165,165,192,176,170,0,160,184,0,0,87,0,92,97,94,0,0,0,176,176,0,181,182,170,194,133,191,176,205,153,142,0,0,0,92,99,109,114,109,109,111,0,108,106,117,118,104,99,97,0,0,90,86,77,82,85,76,85,82,81,80,80,77,74,88,77,77,70,84,77,75,70,82,71,74,76,75,81,76,79,80,75,80,66,81,72,75,78,73,77,80,73,77,74,82,72,73,76,76,79,76,71,73,75,60,76,75,70,77,77,77,75,67,74,68,70,68,68,75,96,90,80,95,101,96,0
59,65,88,98,102,109,111,111,109,109,103,109,105,103,110,110,112,110,112,117,117,118,113,107,97,102,100,102,102,100,98,101,99,103,103,98,100,98,105,96,98,102,103,106,99,103,103,105,107,107,103,106,114,119,112,108,105,114,116,115,116,113,111,110,110,118,118,116,120,115,116,120,116,114,115,112,106,106,111,104,99,99,106,113,119,124,108,121,113,111,106,106,113,114,120,108,115,126,126,124,114,118,111,103,97,99,110,109,116,116,104,103,120,121,120,128,123,126,125,119,116,107,123,118,110,113,126,122,118,116,112,120,119,115,109,114,114,111,116,120,120,118,109,127,122,118,122,118,109,110,120,123,124,120,121,126,118,117,115,107,109,123,115,109,0,109,108,108,108,0,127,97,96,97,101,100,98,0,0,0,130,96,96,96,96,145,153,100,169,186,188,0,138,138,0,174,168,0,0,0,171,169,126,137,189,197,126,126,150,170,132,132,175,114,170,165,159,172,0,131,164,179,173,178,194,142,170,176,0,162,165,165,192,176,170,0,160,184,0,0,87,0,92,97,94,0,0,0,176,176,0,184,182,171,0,117,191,188,205,205,142,0,0,0,92,99,109,114,109,109,111,0,108,106,117,118,104,99,97,0,0,90,85,77,82,83,76,85,80,81,80,82,76,74,88,77,77,70,84,77,74,70,82,71,75,76,78,80,75,79,80,75,80,66,81,72,75,77,73,77,80,79,77,74,81,72,73,76,76,79,74,72,73,75,60,76,75,71,76,77,77,75,68,74,68,70,68,68,75,96,90,74,95,101,101,0
59,74,89,99,102,111,111,111,110,109,104,109,106,103,112,110,112,110,112,117,117,118,113,107,97,102,100,102,102,100,98,101,99,103,103,103,100,98,105,96,98,105,103,106,99,103,103,105,107,106,103,106,114,118,111,108,105,115,116,115,116,113,111,110,110,119,117,116,120,116,119,120,116,114,116,112,106,106,111,104,99,99,107,115,119,124,108,121,113,109,106,106,113,114,116,109,115,113,126,122,114,118,111,103,97,99,111,109,118,115,101,103,120,120,120,128,124,126,126,119,116,112,123,117,110,113,124,122,118,116,112,120,120,115,109,114,114,111,116,120,120,118,109,126,122,118,122,117,109,110,120,124,123,120,121,126,118,117,115,107,109,123,115,109,0,109,108,0,108,0,127,97,96,97,102,100,98,0,0,0,123,96,96,96,96,145,155,100,169,186,188,0,138,138,0,174,168,0,0,0,171,166,126,137,189,197,126,126,150,170,132,132,161,114,172,165,159,170,0,131,168,174,178,170,194,142,170,176,0,162,165,165,192,176,170,0,160,184,0,0,87,0,92,97,94,0,0,0,176,176,0,181,182,170,0,117,191,188,205,205,142,0,0,0,92,99,109,112,109,109,111,0,108,106,117,118,103,99,97,0,83,90,84,77,78,82,76,85,80,82,80,82,75,75,88,78,77,70,84,77,74,70,80,71,76,76,78,79,75,79,83,75,80,66,81,68,75,76,73,77,80,80,77,74,81,71,73,76,77,79,74,73,73,75,60,76,74,72,76,77,77,75,68,73,68,70,68,68,75,96,90,74,96,101,103,0
59,83,90,100,102,111,111,111,110,108,104,109,106,103,112,110,112,110,112,117,117,120,112,107,103,99,100,102,102,100,99,101,99,103,103,104,99,98,105,96,97,105,104,107,99,103,103,105,107,105,101,106,114,118,112,108,107,114,115,115,116,112,111,110,110,120,117,116,120,115,119,120,116,115,116,112,106,107,111,104,99,99,107,115,119,124,108,121,113,111,106,117,113,109,116,115,125,112,126,122,114,118,111,100,97,100,111,109,118,115,101,103,119,121,120,127,123,126,125,119,116,112,123,116,110,113,124,120,118,116,112,120,120,115,109,114,113,111,115,120,117,118,109,126,122,118,122,117,109,110,120,124,123,120,121,126,118,117,115,108,109,123,114,109,0,109,108,0,108,0,127,97,96,97,103,100,98,0,0,0,115,96,96,96,96,145,166,101,180,186,188,0,138,138,0,174,168,0,168,0,171,166,126,137,189,197,126,0,150,170,132,132,161,114,170,165,159,163,0,131,173,174,178,170,191,142,170,176,0,162,165,165,196,176,172,0,160,184,0,0,87,0,94,97,94,0,0,0,176,176,0,181,178,170,0,149,191,188,205,205,142,0,0,0,0,99,109,111,109,110,111,0,108,106,117,118,99,99,97,0,82,90,84,77,77,80,76,85,80,81,80,82,75,77,85,78,77,70,84,77,74,70,80,71,76,76,78,79,75,79,83,75,80,66,81,68,75,76,73,77,80,80,77,74,81,70,72,76,77,79,74,73,73,75,60,76,75,73,76,77,77,75,69,73,68,71,68,69,75,96,90,74,96,101,105,0
59,83,90,101,102,111,111,111,109,104,105,109,106,103,112,111,112,111,112,117,117,119,110,107,103,99,100,105,102,100,98,100,99,102,102,104,99,98,105,96,98,105,105,107,99,103,104,105,107,105,101,107,114,116,111,108,109,115,115,115,116,112,111,110,111,120,117,116,120,115,119,120,115,115,116,112,106,107,111,105,99,99,107,116,119,124,108,121,113,111,106,117,113,109,116,122,115,113,126,122,114,118,111,100,99,101,111,109,118,114,101,103,119,121,120,127,123,117,121,119,116,108,123,116,110,113,124,120,118,115,112,120,120,115,109,114,113,111,115,121,117,118,109,126,121,118,122,117,109,111,120,124,123,120,121,126,118,117,115,109,109,123,113,109,0,109,108,0,108,0,0,97,96,97,103,100,98,0,0,97,115,96,96,96,96,145,166,102,183,186,188,0,138,138,0,174,168,0,168,0,171,166,126,137,189,197,126,0,169,170,132,132,161,114,170,165,159,163,0,131,192,171,178,170,191,142,170,176,0,162,165,165,194,176,172,0,176,184,0,163,87,100,99,97,94,0,96,169,176,176,0,181,178,170,0,149,183,190,205,205,142,0,0,0,0,99,109,111,109,111,111,109,108,107,117,117,98,99,96,0,82,85,84,77,77,80,76,85,80,80,78,82,75,77,85,78,77,70,84,77,74,70,80,71,82,76,78,79,75,80,83,75,80,66,82,68,75,76,74,77,80,79,77,74,81,70,70,76,77,79,74,73,73,75,60,76,75,73,76,77,76,74,70,73,70,71,68,72,75,96,90,74,96,101,105,253
60,83,90,101,102,111,111,111,109,104,105,109,106,103,112,112,112,111,112,117,117,120,110,107,103,99,100,108,102,100,101,100,99,103,101,104,99,100,105,96,98,103,105,107,99,104,104,105,107,105,101,107,114,116,111,108,111,115,115,115,116,112,111,110,110,120,117,116,120,115,117,121,115,116,116,111,106,107,111,104,99,99,107,116,120,124,108,121,113,109,106,117,113,109,116,122,113,125,126,122,114,118,111,100,99,101,111,109,119,114,101,105,119,121,120,127,123,117,118,118,116,125,123,116,110,113,123,120,118,115,113,120,120,115,109,114,112,111,115,121,117,118,109,125,112,118,122,117,109,111,120,124,123,120,121,124,118,117,115,110,106,122,113,109,0,109,108,0,108,0,0,97,96,97,103,100,98,0,0,160,115,96,96,96,96,145,166,103,178,181,188,0,138,138,0,165,168,0,168,0,171,166,126,137,191,197,126,0,169,170,132,132,161,114,170,165,159,152,0,131,194,185,178,170,191,0,170,176,165,165,165,155,194,176,172,0,179,184,0,87,87,100,97,97,94,0,96,169,176,176,0,181,178,170,0,149,183,190,205,205,142,0,0,0,0,100,109,111,109,111,111,109,108,107,117,117,98,99,90,0,83,82,84,79,77,80,79,85,79,80,75,82,75,77,85,78,77,80,84,77,74,73,80,71,82,75,74,79,75,80,83,76,79,66,82,68,75,76,75,78,80,79,77,75,81,70,70,75,77,79,74,73,73,75,60,76,75,74,75,77,75,69,70,73,70,70,68,75,75,96,90,78,96,101,105,35
61,84,92,101,102,111,111,111,109,104,106,109,108,105,112,112,112,111,114,117,117,120,109,107,102,99,103,108,102,100,101,100,99,103,100,104,99,100,106,96,98,102,105,107,99,103,104,105,107,105,101,107,114,116,111,108,114,115,115,115,116,111,111,109,110,120,117,116,120,115,118,120,115,116,116,110,106,107,111,104,99,99,108,116,120,124,108,110,113,109,106,117,113,109,116,122,113,125,126,122,115,118,111,100,99,101,111,109,119,114,101,105,119,121,120,127,123,117,118,117,116,127,123,110,110,114,112,120,118,115,113,120,119,115,109,114,112,111,115,121,117,118,109,125,112,118,122,116,109,111,119,124,123,120,121,123,118,117,114,110,106,120,113,109,0,109,108,0,108,0,0,97,98,97,103,100,98,0,0,179,115,96,96,96,0,145,166,103,178,189,188,0,138,138,0,165,168,0,168,171,171,166,126,137,191,197,126,0,169,170,132,184,161,114,170,165,0,150,0,131,196,185,178,170,189,0,170,176,165,165,165,155,194,174,172,0,184,184,0,87,87,100,97,97,94,0,96,169,176,176,0,181,178,194,0,149,183,190,205,205,142,167,0,0,0,100,109,111,109,111,111,109,108,107,117,112,98,99,90,0,83,82,84,80,77,80,79,86,79,79,72,76,75,77,85,78,77,81,84,77,74,73,80,74,82,73,72,79,77,80,83,76,79,66,82,68,77,76,76,78,80,79,77,75,81,70,72,75,76,79,74,73,73,75,60,76,75,74,75,77,74,65,69,73,70,70,68,75,75,96,90,85,96,101,105,0
64,84,92,102,102,111,111,111,108,103,107,109,108,106,112,112,112,111,115,0,117,120,108,106,102,99,105,108,102,100,101,102,99,103,100,104,99,100,106,96,98,102,105,107,99,103,105,105,108,105,101,107,114,115,111,108,114,115,115,115,116,111,111,109,110,121,117,116,121,115,118,121,115,113,116,110,106,108,109,103,99,98,108,117,121,124,108,121,113,108,106,117,113,109,116,123,125,125,126,122,115,118,110,100,99,101,111,110,118,113,102,105,119,121,119,127,123,117,118,117,117,127,123,110,110,114,112,120,118,115,113,120,118,114,109,114,112,111,115,121,117,118,109,125,120,121,121,115,109,111,119,126,123,120,121,120,118,117,109,110,106,120,113,109,0,109,108,0,0,0,0,97,98,97,103,100,98,97,0,179,115,96,96,96,0,145,166,103,178,189,188,0,138,138,0,165,168,0,168,171,171,166,126,137,191,197,126,0,169,169,132,184,161,114,170,165,0,150,170,131,194,185,178,170,153,0,170,176,165,156,165,155,194,170,172,0,184,184,0,87,87,100,97,95,0,0,96,169,176,176,0,181,171,194,0,149,183,196,205,205,142,167,0,0,0,100,109,110,108,111,111,109,108,107,117,112,99,99,90,0,84,82,82,81,79,80,79,85,79,79,72,76,75,77,82,78,79,81,78,77,74,73,80,74,82,73,72,76,77,80,84,76,79,70,82,68,77,76,77,80,80,79,77,75,81,70,72,75,76,79,73,73,73,75,60,76,75,75,75,76,73,65,69,69,70,70,68,75,78,95,90,88,96,101,105,0
