# ts,sessionnum,Breath Rate,Heart Rate,ST Change,Cadence,Body Power,Body Shock,Altitude,UGE,HRV,PEP,LVET,QOS,Device QTc,Device BR,Device HR,Device ST,Device Cadence,Device Shock,FF QOS,Device Afib,Device Calories,Device Stress,Device Power,ACCY values
0,0,3,64,-1,0,0,0,13303,0,42,48,0,95,511,25,60,0,194,68,69,1,0,15,141312,-498
20000,1,4,80,90,0,0,0,3777,0,34,47,0,50,437,17,64,140,101,22,73,1,0,0,200704,-974
40000,2,16,91,36,0,0,0,6000,0,42,48,0,95,471,20,88,40,99,22,87,6,0,22,131072,-975
60000,3,19,100,87,0,0,0,6118,0,7,49,0,95,454,23,98,0,94,12,66,6,0,67,126976,-973
80000,4,22,102,33,0,0,0,5740,0,6,49,0,95,462,21,102,80,94,2,81,5,0,88,141312,-972
101000,5,25,111,117,0,0,0,5351,0,6,48,0,95,464,22,108,90,93,10,87,1,0,88,140288,-972
121000,6,30,111,81,0,0,0,6903,0,6,50,0,95,458,23,111,120,92,16,80,1,0,88,146432,-971
141000,7,26,110,94,0,0,0,6677,0,6,49,0,95,441,23,111,70,96,20,77,5,0,88,147456,-959
161000,8,22,108,30,0,0,0,8409,0,6,50,0,95,436,21,109,100,94,2,77,5,0,88,135168,-963
181000,9,22,104,47,0,0,0,8408,0,8,49,0,95,430,21,108,60,91,10,76,5,0,92,131072,-968
201000,10,0,0,0,0,0,0,9304,0,45,0,0,95,421,24,103,110,89,12,75,5,0,26,125952,-957
221000,11,19,106,95,0,0,0,8348,0,45,48,0,85,416,22,109,70,85,14,76,1,0,26,120832,-963
241000,12,19,107,-17,0,0,0,3777,0,45,50,0,95,438,23,106,0,82,4,69,1,0,26,261120,-957
261000,13,22,105,95,0,0,0,8341,0,10,48,0,95,427,24,107,80,82,28,85,5,0,65,118784,-960
281000,14,26,110,41,0,0,0,7516,0,7,49,0,95,433,26,110,90,85,16,83,5,0,87,140288,-965
302000,15,23,111,122,0,0,0,7410,0,9,48,0,95,437,28,110,130,78,4,75,5,0,83,145408,-954
322000,16,28,111,67,0,0,0,6354,0,32,49,0,95,426,28,112,90,78,16,90,5,0,39,166912,-958
342000,17,22,110,90,0,0,0,6951,0,5,48,0,95,417,28,110,110,81,44,77,5,0,40,139264,-964
362000,18,19,116,76,0,0,0,8749,0,5,47,0,95,432,29,111,100,81,42,81,5,0,40,144384,-957
382000,19,23,113,93,0,0,0,6437,0,5,50,0,85,447,27,117,0,91,2,67,5,0,40,133120,-970
402000,20,29,118,117,0,0,0,6957,0,5,49,0,95,416,26,117,170,90,30,76,1,0,40,136192,-971
422000,21,22,119,137,0,0,0,7777,0,25,51,0,95,420,29,118,110,85,22,83,1,0,56,126976,-962
442000,22,16,109,64,0,0,0,5859,0,53,48,0,95,401,29,113,90,103,18,84,1,0,32,136192,-963
462000,23,24,103,166,0,0,0,3777,0,53,50,0,95,387,26,107,140,111,14,79,5,0,23,164864,-968
482000,24,16,101,70,0,0,0,5409,0,56,48,0,95,405,23,98,100,108,16,78,5,0,13,133120,-968
503000,25,16,99,107,0,0,0,4777,0,62,48,0,95,415,24,102,120,107,12,81,5,0,18,143360,-973
523000,26,19,103,73,0,0,0,4714,0,47,48,0,95,418,26,100,70,112,14,90,5,0,23,145408,-967
543000,27,17,102,122,0,0,0,5035,0,43,50,0,95,423,22,102,150,107,18,89,5,0,23,140288,-968
563000,28,16,101,59,0,0,0,4441,0,33,48,0,95,436,26,103,70,118,18,83,5,0,33,162816,-964
583000,29,16,103,88,0,0,0,3907,0,27,50,0,95,442,24,100,80,112,16,80,5,0,36,157696,-966
603000,30,21,98,70,0,0,0,5072,0,10,48,0,95,410,23,101,110,115,18,86,5,0,69,140288,-973
623000,31,25,101,100,0,0,0,4510,0,51,48,0,95,431,26,101,90,111,30,86,5,0,22,158720,-968
643000,32,16,99,85,0,0,0,4873,0,38,47,0,95,415,27,99,100,109,18,89,5,0,21,141312,-969
663000,33,24,103,86,0,0,0,4700,0,39,47,0,95,442,28,103,120,112,14,90,5,0,29,144384,-967
683000,34,23,99,100,0,0,0,4708,0,36,48,0,95,433,27,104,110,109,10,87,5,0,55,146432,-969
704000,35,0,0,0,0,0,0,3777,0,39,0,0,95,420,28,98,110,106,6,92,5,0,31,212992,-974
724000,36,19,99,85,0,0,0,3777,0,7,48,0,95,423,27,102,110,103,6,93,5,0,58,174080,-974
744000,37,17,99,67,0,0,0,5153,0,5,48,0,95,449,29,99,90,109,22,85,5,0,92,130048,-969
764000,38,18,105,112,0,0,0,5117,0,34,48,0,95,435,29,103,120,107,26,91,5,0,34,151552,-969
784000,39,19,100,68,0,0,0,4740,0,36,48,0,95,436,29,99,90,106,16,92,5,0,57,140288,-969
804000,40,16,98,94,0,0,0,5454,0,14,49,0,95,420,28,98,100,107,20,90,5,0,60,140288,-969
824000,41,20,101,89,0,0,0,4591,0,14,47,0,95,426,26,98,100,103,26,86,5,0,55,147456,-970
844000,42,21,104,37,0,0,0,4988,0,20,49,0,95,432,24,101,110,102,12,80,5,0,55,141312,-976
864000,43,19,105,99,0,0,0,4553,0,42,49,0,95,426,25,106,110,101,22,88,5,0,27,162816,-974
884000,44,21,99,64,0,0,0,5202,0,39,48,0,95,413,23,100,80,102,12,94,5,0,75,151552,-975
905000,45,22,103,78,0,0,0,5009,0,13,49,0,95,421,25,101,90,100,16,89,5,0,64,158720,-975
925000,46,23,103,76,0,0,0,4941,0,16,48,0,95,432,26,103,100,102,18,87,5,0,59,156672,-972
945000,47,19,106,69,0,0,0,4294,0,39,48,0,95,413,23,105,80,103,8,88,5,0,31,147456,-968
965000,48,0,0,0,0,0,0,4770,0,39,0,0,95,427,23,107,120,104,30,85,5,0,31,158720,-971
985000,49,19,106,80,0,0,0,4368,0,52,48,0,95,416,22,108,90,104,6,92,5,0,24,150528,-973
1005000,50,22,103,41,0,0,0,4454,0,34,48,0,95,418,22,103,60,103,28,93,5,0,68,141312,-974
1025000,51,20,105,96,0,0,0,4885,0,11,49,0,95,419,22,105,90,103,4,86,5,0,66,150528,-972
1045000,52,22,114,137,0,0,0,4564,0,14,50,0,95,445,25,114,110,102,10,86,5,0,66,142336,-975
1065000,53,23,116,127,0,0,0,4064,0,17,51,0,95,432,25,118,110,97,24,87,4,0,60,157696,-974
1085000,54,29,112,135,0,0,0,4960,0,17,49,0,95,415,25,112,120,101,20,89,4,0,36,157696,-974
1106000,55,20,109,137,0,0,0,3814,0,17,49,0,95,423,27,108,110,101,14,88,5,0,36,171008,-970
1126000,56,20,111,108,0,0,0,4762,0,17,48,0,95,415,29,105,130,102,34,89,5,0,36,169984,-976
1146000,57,24,113,121,0,0,0,4599,0,17,49,0,95,418,31,114,100,98,16,85,5,0,36,145408,-974
1166000,58,23,114,110,0,0,0,5052,0,43,49,0,95,418,33,115,110,100,20,89,4,0,36,152576,-969
1186000,59,0,0,0,0,0,0,4317,0,43,0,0,95,421,29,115,80,98,12,86,5,0,36,153600,-970
1206000,60,0,0,0,0,0,0,5457,0,43,0,0,95,424,34,116,100,105,24,88,5,0,27,143360,-968
1226000,61,0,0,0,0,0,0,4487,0,43,0,0,95,413,33,115,120,110,14,92,4,0,27,142336,-969
1246000,62,0,0,0,0,0,0,4772,0,43,0,0,95,399,35,111,120,116,18,82,4,0,27,151552,-978
1266000,63,0,0,0,0,0,0,4751,0,43,0,0,95,433,34,109,130,112,8,82,4,0,27,139264,-975
1286000,64,0,0,0,0,0,0,4636,0,43,0,0,95,423,34,109,130,98,22,86,5,0,27,156672,-979
1307000,65,19,120,110,0,0,0,4174,0,43,49,0,95,431,37,115,70,97,36,87,5,0,27,158720,-977
1327000,66,0,0,0,0,0,0,5040,0,47,0,0,95,424,36,118,100,104,12,86,5,0,27,152576,-976
1347000,67,22,116,112,0,0,0,4036,0,47,47,0,95,413,37,116,100,99,6,86,5,0,27,150528,-974
1367000,68,0,0,0,0,0,0,4432,0,47,0,0,95,428,34,119,120,96,24,83,4,0,27,164864,-968
1387000,69,19,115,109,0,0,0,5356,0,24,49,0,95,421,34,115,90,98,34,88,4,0,39,149504,-974
1407000,70,0,0,0,0,0,0,4928,0,24,0,0,95,428,34,117,130,98,12,86,4,0,39,156672,-978
1427000,71,0,0,0,0,0,0,4786,0,24,0,0,95,420,35,120,130,103,26,86,4,0,39,142336,-973
1447000,72,24,114,103,0,0,0,4636,0,26,47,0,95,416,33,116,100,100,18,85,4,0,49,164864,-971
1467000,73,0,0,0,0,0,0,3777,0,26,0,0,95,428,34,114,150,98,4,87,4,0,49,177152,-974
1487000,74,0,0,0,0,0,0,5177,0,26,0,0,95,421,30,115,110,103,12,88,4,0,49,162816,-973
1508000,75,19,111,102,0,0,0,5679,0,26,48,0,95,415,29,113,100,112,18,90,4,0,47,134144,-965
1528000,76,16,105,98,0,0,0,3777,0,26,48,0,95,403,26,107,100,104,12,90,5,0,47,198656,-971
1548000,77,0,0,0,0,0,0,3777,0,26,0,0,95,416,23,106,110,102,12,87,5,0,47,236544,-971
1568000,78,22,109,85,0,0,0,5652,0,46,49,0,95,433,23,109,110,117,10,87,5,0,30,140288,-972
1588000,79,19,104,64,0,0,0,3777,0,7,47,0,95,411,23,104,50,113,28,91,5,0,48,182272,-969
1608000,80,25,99,27,0,0,0,5641,0,13,48,0,95,400,22,99,60,103,14,81,5,0,66,141312,-970
1628000,81,16,97,52,0,0,0,5406,0,18,49,0,95,417,25,97,110,100,22,90,5,0,48,149504,-975
1648000,82,22,107,78,0,0,0,5823,0,14,49,0,95,427,28,105,80,108,20,87,6,0,52,157696,-972
1668000,83,24,115,103,0,0,0,5360,0,8,50,0,95,432,29,113,110,102,14,88,5,0,80,141312,-974
1688000,84,23,120,102,0,0,0,5263,0,7,47,0,95,441,31,118,110,96,30,86,5,0,93,157696,-972
1709000,85,22,124,126,0,0,0,5357,0,7,47,0,95,438,32,124,150,94,14,84,5,0,100,145408,-971
1729000,86,23,122,155,0,0,0,5670,0,7,49,0,95,423,30,108,150,92,22,88,5,0,100,141312,-971
1749000,87,23,121,152,0,0,0,6289,0,7,50,0,95,408,32,121,150,90,34,85,5,0,100,147456,-971
1769000,88,0,0,0,0,0,0,6639,0,7,0,0,95,412,29,113,130,90,30,86,4,0,100,152576,-973
1789000,89,0,0,0,0,0,0,4858,0,7,0,0,95,423,32,110,100,97,8,84,4,0,100,139264,-974
1809000,90,26,119,129,0,0,0,5233,0,7,48,0,95,420,32,106,130,100,18,86,4,0,100,158720,-972
1829000,91,0,0,0,0,0,0,4830,0,7,0,0,95,416,30,106,100,98,36,87,5,0,100,145408,-970
1849000,92,0,0,0,0,0,0,5608,0,34,0,0,95,407,29,113,100,97,16,87,5,0,50,148480,-969
1869000,93,0,0,0,0,0,0,4362,0,34,0,0,95,431,30,113,150,94,4,85,5,0,50,216064,-968
1889000,94,0,0,0,0,0,0,5784,0,34,0,0,95,423,27,118,150,95,12,83,4,0,50,131072,-969
1910000,95,0,0,0,0,0,0,4038,0,34,0,0,95,427,28,113,190,95,28,83,1,0,50,198656,-966
1930000,96,26,125,133,0,0,0,5555,0,34,49,0,95,417,26,123,110,92,16,87,1,0,50,140288,-967
1950000,97,20,126,149,0,0,0,5421,0,34,50,0,95,430,29,126,170,90,12,81,4,0,50,143360,-969
1970000,98,22,125,133,0,0,0,5941,0,34,49,0,95,415,30,126,120,97,10,78,4,0,50,145408,-964
1990000,99,27,122,127,0,0,0,6412,0,34,48,0,95,412,27,124,130,93,20,84,4,0,50,132096,-968
2010000,100,30,115,71,0,0,0,9009,0,38,46,0,95,399,26,114,70,82,122,84,5,0,36,146432,-918
2030000,101,24,116,93,0,0,0,10338,0,38,46,0,95,424,27,118,90,0,0,86,5,0,46,125952,-921
2050000,102,20,109,84,0,0,0,11854,0,20,46,0,95,412,27,111,100,0,0,88,5,0,84,83968,-905
2070000,103,17,97,96,0,0,0,10107,0,10,46,0,95,413,26,103,140,0,0,81,5,0,84,122880,-926
2090000,104,0,0,0,0,0,0,7382,0,10,0,0,95,423,28,98,130,106,6,82,6,0,84,152576,-945
2111000,105,19,100,119,0,0,0,5511,0,14,50,0,95,436,28,99,140,94,10,88,6,0,59,140288,-972
2131000,106,29,110,92,0,0,0,5636,0,33,47,0,95,455,29,107,110,98,26,86,5,0,36,155648,-974
2151000,107,28,109,73,0,0,0,3961,0,7,49,0,95,433,27,109,100,98,20,90,5,0,89,149504,-971
2171000,108,22,117,114,0,0,0,5226,0,11,46,0,95,447,27,115,80,104,34,87,5,0,73,164864,-969
2191000,109,22,112,132,0,0,0,4512,0,11,48,0,95,429,27,117,140,104,12,80,5,0,73,152576,-973
2211000,110,24,102,41,0,0,0,5186,0,43,49,0,95,418,25,108,40,103,20,85,5,0,29,169984,-969
2231000,111,0,0,0,0,0,0,3777,0,42,0,0,95,447,25,103,130,101,22,87,5,0,29,200704,-971
2251000,112,19,119,118,0,0,0,4998,0,42,47,0,95,439,28,119,140,101,4,88,4,0,29,152576,-973
2271000,113,0,0,0,0,0,0,5044,0,42,0,0,95,443,30,120,140,95,6,86,4,0,29,150528,-971
2291000,114,19,120,140,0,0,0,6528,0,42,49,0,95,437,32,120,100,99,4,87,4,0,29,146432,-968
2312000,115,0,0,0,0,0,0,3819,0,42,0,0,95,436,36,127,150,102,18,85,5,0,55,178176,-973
2332000,116,19,122,149,0,0,0,4902,0,20,48,0,95,435,32,123,150,97,26,86,5,0,55,144384,-973
2352000,117,30,125,155,0,0,0,6801,0,20,48,0,95,427,34,123,140,85,24,83,5,0,59,136192,-966
2372000,118,26,119,130,0,0,0,7030,0,22,49,0,95,412,31,123,90,85,32,88,4,0,59,146432,-965
2392000,119,26,118,110,0,0,0,5638,0,9,47,0,95,428,30,119,100,95,10,88,5,0,87,144384,-966
2412000,120,0,0,0,0,0,0,6384,0,9,0,0,95,431,30,116,180,98,20,85,5,0,87,153600,-966
2432000,121,0,0,0,0,0,0,5083,0,9,0,0,95,427,31,119,160,97,14,85,5,0,87,149504,-962
2452000,122,0,0,0,0,0,0,5007,0,9,0,0,95,424,30,123,0,108,10,59,4,0,87,142336,-965
2472000,123,0,0,0,0,0,0,4981,0,9,0,0,85,403,28,118,120,114,16,73,4,0,87,159744,-971
2492000,124,0,0,0,0,0,0,5518,0,9,0,0,95,426,29,110,110,109,18,82,1,0,87,142336,-973
2513000,125,0,0,0,0,0,0,5336,0,9,0,0,95,454,30,113,250,98,16,83,1,0,87,133120,-966
2533000,126,20,124,158,0,0,0,5255,0,9,49,0,95,461,33,118,150,103,14,81,1,0,87,153600,-965
2553000,127,0,0,0,0,0,0,4234,0,9,0,0,95,433,33,122,130,109,12,86,4,0,87,143360,-963
2573000,128,0,0,0,0,0,0,5285,0,9,0,0,95,436,30,118,150,105,22,86,4,0,87,137216,-972
2593000,129,0,0,0,0,0,0,7671,0,9,0,0,95,432,31,116,90,90,6,86,4,0,87,114688,-968
2613000,130,0,0,0,0,0,0,5555,0,8,0,0,95,431,31,113,80,98,20,84,5,0,83,145408,-971
2633000,131,0,0,0,0,0,0,4853,0,8,0,0,95,443,31,120,120,107,8,81,4,0,83,144384,-972
2653000,132,20,118,147,0,0,0,4986,0,9,50,0,95,439,33,119,130,109,28,86,4,0,86,148480,-972
2673000,133,22,113,132,0,0,0,4377,0,9,48,0,95,432,30,115,110,103,28,84,5,0,86,167936,-973
2693000,134,0,0,0,0,0,0,4599,0,9,0,0,95,434,28,109,130,104,6,73,1,0,86,161792,-975
2714000,135,0,0,0,0,0,0,5409,0,9,0,0,95,429,31,114,140,102,22,85,1,0,86,142336,-971
2734000,136,0,0,0,0,0,0,5697,0,9,0,0,95,429,31,113,110,102,22,88,5,0,86,156672,-965
2754000,137,0,0,0,0,0,0,5654,0,9,0,0,95,439,28,111,180,103,28,79,4,0,86,138240,-963
2774000,138,24,116,114,0,0,0,5914,0,30,50,0,95,443,29,115,110,98,20,86,4,0,77,136192,-974
2794000,139,21,120,127,0,0,0,4674,0,30,48,0,95,443,31,120,150,99,6,85,5,0,34,143360,-975
2814000,140,30,115,56,0,0,0,5938,0,30,48,0,95,450,28,120,100,101,12,82,4,0,34,150528,-969
2834000,141,0,0,0,0,0,0,4611,0,30,0,0,95,441,30,118,150,105,28,81,4,0,34,155648,-970
2854000,142,0,0,0,0,0,0,5274,0,30,0,0,95,450,31,109,110,98,14,81,1,0,34,156672,-971
2874000,143,25,126,47,0,0,0,5736,0,28,47,0,95,454,33,126,0,99,22,68,5,0,36,152576,-965
2894000,144,0,0,0,0,0,0,5269,0,28,0,0,85,431,32,122,0,98,28,63,5,0,36,155648,-972
2915000,145,0,0,0,0,0,0,4753,0,28,0,0,95,435,31,120,130,101,12,86,1,0,36,143360,-969
2935000,146,26,122,119,0,0,0,6009,0,28,47,0,95,429,29,122,80,100,16,76,5,0,36,139264,-963
2955000,147,32,117,122,0,0,0,5427,0,9,47,0,95,430,28,119,100,114,16,76,5,0,90,138240,-952
2975000,148,29,109,85,0,0,0,3777,0,9,47,0,95,423,28,109,120,105,28,85,5,0,52,202752,-971
2995000,149,0,0,0,0,0,0,5626,0,9,0,0,95,421,29,110,140,101,14,87,4,0,52,132096,-968
3015000,150,0,0,0,0,0,0,5747,0,26,0,0,95,443,31,120,110,100,14,88,4,0,52,147456,-968
3035000,151,25,124,142,0,0,0,5427,0,25,48,0,95,438,31,123,120,103,12,87,4,0,85,147456,-970
3055000,152,22,124,96,0,0,0,6339,0,5,48,0,95,436,33,124,140,97,22,87,5,0,100,146432,-968
3075000,153,24,120,89,0,0,0,5127,0,6,47,0,95,420,31,120,100,97,16,88,5,0,100,156672,-973
3095000,154,22,121,149,0,0,0,5967,0,6,47,0,95,460,28,121,110,99,12,77,5,0,100,159744,-969
3116000,155,23,123,15,0,0,0,3777,0,7,45,0,95,436,31,126,10,107,10,71,1,0,100,217088,-965
3136000,156,0,0,0,0,0,0,5061,0,7,0,0,85,442,31,118,0,112,16,41,1,0,100,157696,-959
3156000,157,0,0,0,0,0,0,4453,0,7,0,0,85,432,28,117,0,113,28,52,1,0,100,169984,-967
3176000,158,0,0,0,0,0,0,5314,0,7,0,0,85,424,27,109,0,111,12,63,1,0,100,146432,-969
3196000,159,0,0,0,0,0,0,5477,0,7,0,0,95,426,29,108,160,102,14,81,1,0,100,147456,-967
3216000,160,16,113,133,0,0,0,3931,0,7,48,0,95,437,31,111,120,101,28,87,1,0,100,171008,-972
3236000,161,22,121,83,0,0,0,4637,0,6,46,0,95,444,33,122,80,113,20,85,5,0,100,145408,-966
3256000,162,0,0,0,0,0,0,4445,0,6,0,0,95,427,29,115,100,111,14,89,5,0,100,158720,-973
3276000,163,0,0,0,0,0,0,5017,0,14,0,0,95,419,28,109,90,110,18,85,5,0,92,150528,-951
3296000,164,0,0,0,0,0,0,6315,0,0,0,0,50,409,26,0,150,111,14,78,1,0,0,135168,-951
3317000,165,0,0,0,0,0,0,4538,0,14,0,0,95,436,26,109,0,115,34,69,1,0,92,162816,-945
3337000,166,0,0,0,0,0,0,5695,0,14,0,0,85,473,26,108,0,112,18,62,1,0,92,142336,-957
3357000,167,0,0,0,0,0,0,7007,0,0,0,0,50,377,24,0,0,106,22,68,1,0,0,154624,-944
3377000,168,0,0,0,0,0,0,8277,0,14,0,0,85,364,24,108,250,102,32,84,1,0,92,146432,-956
3397000,169,0,0,0,0,0,0,9316,0,0,0,0,89,433,24,100,170,99,28,89,5,0,0,112640,-956
3417000,170,0,0,0,0,0,0,7450,0,14,0,0,95,423,24,127,100,108,16,84,0,0,92,130048,-953
3437000,171,19,97,113,0,0,0,5233,0,14,48,0,95,438,24,97,130,113,30,90,0,0,92,131072,-957
3457000,172,20,97,88,0,0,0,5239,0,38,49,0,95,433,24,96,100,117,28,91,5,0,33,144384,-953
3477000,173,16,101,78,0,0,0,4240,0,36,47,0,95,444,23,97,90,110,16,90,6,0,30,148480,-967
3497000,174,22,101,47,0,0,0,4704,0,38,46,0,95,436,25,102,50,117,12,89,6,0,76,160768,-959
3518000,175,22,100,72,0,0,0,4150,0,38,47,0,95,423,25,100,90,120,28,88,5,0,76,164864,-955
3538000,176,27,96,126,0,0,0,3777,0,38,50,0,95,435,24,98,140,120,16,91,6,0,76,223232,-958
3558000,177,0,0,0,0,0,0,4318,0,0,0,0,85,408,21,80,230,136,32,85,6,0,0,160768,-951
3578000,178,0,0,0,0,0,0,3777,0,0,0,0,50,409,22,0,230,162,80,74,1,0,0,261120,-964
3598000,179,31,166,-186,0,0,0,3777,0,38,37,0,80,444,24,170,-60,169,56,80,0,0,76,219136,-964
3618000,180,0,0,0,0,0,0,6768,0,38,0,0,95,457,24,165,210,111,20,78,0,0,76,137216,-965
3638000,181,0,0,0,0,0,0,5155,0,38,0,0,95,451,24,96,130,114,30,79,1,0,76,157696,-954
3658000,182,0,0,0,0,0,0,3777,0,40,0,0,95,446,23,96,0,140,38,63,1,0,29,218112,-951
3678000,183,0,0,0,0,0,0,5158,0,0,0,0,50,322,21,0,160,133,28,71,1,0,0,138240,-949
3698000,184,0,0,0,0,0,0,4718,0,0,0,0,50,427,21,0,0,132,30,63,0,0,0,165888,-953
3719000,185,0,0,0,0,0,0,3777,0,40,0,0,83,447,23,92,190,139,32,83,0,0,29,196608,-958
3739000,186,16,98,-4,0,0,0,3777,0,40,49,0,95,447,25,153,-30,153,60,71,0,0,9,217088,-965
3759000,187,21,101,71,0,0,0,3777,0,40,47,0,95,452,24,101,70,128,56,81,1,0,9,197632,-957
3779000,188,0,0,0,0,0,0,3777,0,40,0,0,95,433,25,156,-30,174,92,65,1,0,9,261120,-965
3799000,189,0,0,0,0,0,0,3777,0,40,0,0,95,436,24,186,-30,180,74,70,1,0,9,189440,-966
3819000,190,0,0,0,0,0,0,3777,0,40,0,0,95,466,27,188,-30,164,80,69,1,0,9,202752,-955
3839000,191,0,0,0,0,0,0,3777,0,0,0,0,82,430,22,133,-40,138,34,82,1,0,0,188416,-959
3859000,192,0,0,0,0,0,0,3777,0,67,0,0,95,488,26,138,-50,141,44,79,1,0,9,208896,-966
3879000,193,22,92,80,0,0,0,4048,0,67,47,0,95,412,26,138,110,119,28,83,1,0,9,161792,-954
3899000,194,0,0,0,0,0,0,3777,0,0,0,0,50,442,23,0,60,128,46,60,1,0,0,252928,-959
3920000,195,0,0,0,0,0,0,3777,0,67,0,0,85,256,0,170,0,171,110,0,1,0,9,261120,-971
3940000,196,0,0,0,0,0,0,3777,0,67,0,0,85,511,28,167,0,169,92,33,1,0,9,228352,-959
3960000,197,0,0,0,0,0,0,5680,0,0,0,0,50,477,28,0,0,120,48,40,1,0,0,141312,-955
3980000,198,0,0,0,0,0,0,3777,0,0,0,0,50,511,25,0,0,140,60,67,1,0,0,200704,-967
4000000,199,0,0,0,0,0,0,3777,0,0,0,0,50,256,0,0,0,189,96,0,0,0,0,233472,-963
4020000,200,0,0,0,0,0,0,3777,0,67,0,0,85,256,0,171,0,189,120,0,0,0,9,261120,-970
4040000,201,0,0,0,0,0,0,3777,0,67,0,0,85,463,26,175,70,176,100,49,0,0,9,206848,-967
4060000,202,28,126,69,0,0,0,12263,0,72,43,0,95,442,28,126,80,0,0,84,1,0,13,108544,-934
4080000,203,23,136,68,0,0,0,4995,0,72,45,0,95,434,29,137,60,162,68,56,1,0,13,176128,-955
4100000,204,0,0,0,0,0,0,3777,0,72,0,0,85,484,29,189,0,190,122,61,1,0,13,261120,-959
4121000,205,0,0,0,0,0,0,3777,0,72,0,0,85,256,0,197,0,203,120,0,1,0,13,261120,-949
4141000,206,0,0,0,0,0,0,3777,0,72,0,0,85,256,0,126,0,214,128,0,1,0,13,240640,-943
4161000,207,0,0,0,0,0,0,3777,0,72,0,0,85,378,27,0,0,137,84,34,1,0,13,219136,-961
4181000,208,0,0,0,0,0,0,3777,0,72,0,0,85,256,0,135,0,182,138,0,1,0,13,261120,-959
4201000,209,0,0,0,0,0,0,3777,0,72,0,0,85,256,0,170,0,182,132,0,1,0,13,261120,-956
4221000,210,0,0,0,0,0,0,3777,0,72,0,0,85,256,0,132,0,185,124,0,1,0,13,261120,-949
4241000,211,0,0,0,0,0,0,3777,0,72,0,0,85,256,0,132,0,211,122,0,1,0,13,223232,-954
4261000,212,0,0,0,0,0,0,3777,0,72,0,0,85,256,0,175,0,182,104,0,1,0,13,223232,-956
4281000,213,0,0,0,0,0,0,4508,0,72,0,0,85,402,24,114,-50,118,50,81,1,0,13,157696,-956
4301000,214,0,0,0,0,0,0,3777,0,72,0,0,85,256,0,170,0,173,132,0,1,0,13,261120,-961
4322000,215,0,0,0,0,0,0,3777,0,72,0,0,85,256,0,165,0,176,126,0,1,0,13,261120,-949
4342000,216,0,0,0,0,0,0,3916,0,0,0,0,50,348,25,0,-20,120,38,58,1,0,0,163840,-966
4362000,217,0,0,0,0,0,0,3777,0,72,0,0,85,460,31,150,0,176,110,48,1,0,13,261120,-963
4382000,218,0,0,0,0,0,0,3777,0,0,0,0,50,256,0,0,0,179,128,0,1,0,0,261120,-948
4402000,219,0,0,0,0,0,0,3777,0,0,0,0,50,408,28,131,0,167,92,67,1,0,0,244736,-957
4422000,220,0,0,0,0,0,0,3777,0,0,0,0,50,256,0,164,0,194,126,0,1,0,0,261120,-935
4442000,221,0,0,0,0,0,0,3777,0,0,0,0,50,256,0,188,0,173,126,0,1,0,0,234496,-969
4462000,222,0,0,0,0,0,0,3777,0,0,0,0,50,256,0,185,0,174,102,0,1,0,0,261120,-967
4482000,223,0,0,0,0,0,0,3777,0,0,0,0,50,443,31,178,0,164,96,47,1,0,0,228352,-960
4502000,224,0,0,0,0,0,0,3777,0,0,0,0,50,430,31,191,0,171,144,63,1,0,0,261120,-963
4523000,225,0,0,0,0,0,0,3777,0,0,0,0,50,478,28,0,0,171,114,29,1,0,0,261120,-967
4543000,226,0,0,0,0,0,0,3777,0,0,0,0,50,483,31,170,0,176,124,37,1,0,0,223232,-964
4563000,227,0,0,0,0,0,0,3777,0,0,0,0,50,443,28,176,0,174,92,56,1,0,0,238592,-971
4583000,228,0,0,0,0,0,0,3777,0,0,0,0,50,468,28,0,0,173,106,36,1,0,0,253952,-970
4603000,229,0,0,0,0,0,0,3777,0,0,0,0,50,437,30,162,0,166,90,67,0,0,0,250880,-959
4623000,230,0,0,0,0,0,0,3777,0,0,0,0,50,443,28,165,0,179,134,46,1,0,0,261120,-953
4643000,231,0,0,0,0,0,0,3777,0,0,0,0,50,430,32,165,210,174,106,60,1,0,0,235520,-960
4663000,232,0,0,0,0,0,0,3777,0,0,0,0,50,256,0,192,0,182,112,0,1,0,0,259072,-954
4683000,233,0,0,0,0,0,0,3777,0,0,0,0,50,440,32,176,-10,176,126,78,1,0,0,261120,-954
4703000,234,0,0,0,0,0,0,3777,0,0,0,0,50,480,34,170,140,162,114,73,1,0,0,261120,-970
4724000,235,0,0,0,0,0,0,3873,0,0,0,0,50,476,31,0,-70,128,70,73,1,0,0,179200,-969
4744000,236,0,0,0,0,0,0,3777,0,0,0,0,50,443,32,160,0,175,134,34,1,0,0,261120,-954
4764000,237,0,0,0,0,0,0,3777,0,0,0,0,50,424,23,184,0,140,82,42,1,0,0,202752,-970
4784000,238,0,0,0,0,0,0,5586,0,0,0,0,50,413,26,0,0,121,36,68,1,0,0,157696,-959
4804000,239,0,0,0,0,0,0,4599,0,0,0,0,50,411,26,104,100,120,48,83,0,0,0,134144,-958
4824000,240,19,94,95,0,0,0,5244,0,0,47,0,50,391,24,87,110,119,44,82,0,0,0,150528,-963
4844000,241,16,96,90,0,0,0,4598,0,0,47,0,50,407,25,87,110,119,46,89,1,0,0,156672,-959
4864000,242,0,0,0,0,0,0,4953,0,0,0,0,50,416,25,93,140,117,24,89,1,0,0,148480,-963
4884000,243,0,0,0,0,0,0,4966,0,0,0,0,50,407,23,97,160,120,48,86,1,0,0,151552,-953
4904000,244,0,0,0,0,0,0,3992,0,0,0,0,50,511,21,94,200,119,50,88,5,0,0,166912,-958
4925000,245,0,0,0,0,0,0,5288,0,0,0,0,87,432,23,94,140,119,28,87,6,0,0,138240,-965
4945000,246,0,0,0,0,0,0,4731,0,0,0,0,50,441,23,98,180,119,38,91,6,0,0,142336,-966
4965000,247,0,0,0,0,0,0,3777,0,0,0,0,50,511,20,96,200,174,102,72,5,0,0,261120,-965
4985000,248,0,0,0,0,0,0,3777,0,0,0,0,50,256,0,176,0,179,138,0,1,0,0,261120,-972
5005000,249,0,0,0,0,0,0,3777,0,0,0,0,50,454,22,176,0,176,132,28,1,0,0,261120,-972
5025000,250,0,0,0,0,0,0,3777,0,0,0,0,50,427,17,0,0,135,90,79,1,0,0,214016,-965
5045000,251,0,0,0,0,0,0,3777,0,0,0,0,50,395,20,181,0,188,132,33,1,0,0,261120,-970
5065000,252,0,0,0,0,0,0,3777,0,0,0,0,50,403,18,182,0,176,110,67,1,0,0,252928,-947
5085000,253,0,0,0,0,0,0,3777,0,0,0,0,50,443,21,171,0,180,128,49,1,0,0,261120,-971
5105000,254,25,116,110,0,0,0,4219,0,0,47,0,50,424,20,194,110,120,58,76,1,0,0,184320,-962
5126000,255,0,0,0,0,0,0,3777,0,0,0,0,50,460,17,161,0,174,144,55,1,0,0,261120,-970
5146000,256,0,0,0,0,0,0,3777,0,0,0,0,50,256,0,186,0,200,148,0,1,0,0,248832,-945
5166000,257,0,0,0,0,0,0,3777,0,0,0,0,50,464,22,188,0,200,136,35,1,0,0,259072,-954
5186000,258,0,0,0,0,0,0,3777,0,0,0,0,50,423,31,205,0,211,138,36,1,0,0,261120,-969
5206000,259,0,0,0,0,0,0,3777,0,0,0,0,50,411,28,163,0,231,142,67,1,0,0,261120,-959
5226000,260,0,0,0,0,0,0,3777,0,0,0,0,50,256,0,142,0,214,126,0,1,0,0,227328,-945
5246000,261,0,0,0,0,0,0,3777,0,0,0,0,50,256,0,122,0,195,126,0,1,0,0,258048,-934
5266000,262,22,121,102,0,0,0,6670,0,0,46,0,50,397,31,0,100,119,38,78,1,0,0,148480,-970
5286000,263,23,118,105,0,0,0,4346,0,0,47,0,82,405,33,119,130,121,46,82,0,0,0,134144,-969
5306000,264,19,100,83,0,0,0,3838,0,0,46,0,50,395,30,101,120,119,30,90,0,0,0,169984,-972
5327000,265,0,0,0,0,0,0,4570,0,0,0,0,50,412,31,99,140,110,28,88,6,0,0,148480,-974
5347000,266,0,0,0,0,0,0,5393,0,0,0,0,50,419,29,109,220,115,22,87,5,0,0,151552,-969
5367000,267,20,111,106,0,0,0,4190,0,16,45,0,95,415,33,111,120,115,30,92,5,0,60,141312,-973
5387000,268,17,107,75,0,0,0,4717,0,16,46,0,95,416,29,109,80,116,22,87,5,0,60,139264,-978
5407000,269,25,111,111,0,0,0,4821,0,10,46,0,95,420,30,109,120,111,30,84,4,0,80,145408,-978
5427000,270,25,110,73,0,0,0,3913,0,10,44,0,95,433,31,111,160,124,48,72,4,0,80,188416,-971
5447000,271,0,0,0,0,0,0,3777,0,10,0,0,87,419,29,105,140,113,28,87,1,0,80,189440,-978
5467000,272,0,0,0,0,0,0,3777,0,10,0,0,95,435,32,108,150,115,16,87,1,0,80,167936,-978
5487000,273,29,107,80,0,0,0,6055,0,5,45,0,95,419,32,107,100,103,14,85,1,0,100,130048,-968
5507000,274,26,117,102,0,0,0,7593,0,6,45,0,95,424,34,117,100,103,10,91,5,0,95,142336,-958
5528000,275,27,111,105,0,0,0,7115,0,6,47,0,95,435,35,118,90,28,12,88,5,0,95,188416,-928
5548000,276,22,100,41,0,0,0,12937,0,10,46,0,95,392,32,104,60,0,0,88,5,0,78,123904,-920
5568000,277,0,0,0,0,0,0,7404,0,10,0,0,95,392,30,99,130,36,2,86,5,0,78,146432,-836
5588000,278,0,0,0,0,0,0,8850,0,15,0,0,95,404,28,90,100,153,28,85,6,0,59,136192,-901
5608000,279,0,0,0,0,0,0,11514,0,0,0,0,86,408,29,93,130,0,0,86,6,0,0,121856,-862
5628000,280,32,85,57,0,0,0,11305,0,22,48,0,84,402,26,86,80,190,80,84,6,0,42,124928,-821
5648000,281,6,84,47,0,0,0,12547,0,25,48,0,95,401,27,85,70,0,0,86,6,0,37,123904,-813
5668000,282,13,83,25,0,0,0,12107,0,34,48,0,95,405,25,84,50,0,0,90,6,0,28,116736,-836
5688000,283,9,79,22,0,0,0,10888,0,30,50,0,95,398,23,79,60,0,0,89,6,0,30,114688,-874
5708000,284,6,80,62,0,0,0,9357,0,16,48,0,95,406,20,79,70,0,0,85,1,0,45,154624,-852
5729000,285,7,80,38,0,0,0,9210,0,21,47,0,95,409,17,80,60,0,0,76,1,0,39,129024,-846
5749000,286,3,76,43,0,0,0,10414,0,29,48,0,95,403,21,78,90,0,0,78,6,0,31,142336,-831
5769000,287,10,85,68,0,0,0,9595,0,35,47,0,95,424,21,83,60,0,0,81,6,0,26,119808,-815
5789000,288,3,79,42,0,0,0,11688,0,20,49,0,95,415,21,82,90,0,0,91,6,0,41,132096,-820
5809000,289,10,79,30,0,0,0,10311,0,33,46,0,95,410,19,79,50,0,0,83,1,0,27,119808,-853
5829000,290,3,76,29,0,0,0,11012,0,27,45,0,95,406,21,79,60,0,0,81,1,0,32,131072,-829
5849000,291,3,76,40,0,0,0,8287,0,34,47,0,95,417,17,76,80,19,150,86,1,0,26,138240,-810
5869000,292,3,75,40,0,0,0,10870,0,28,47,0,95,411,20,76,80,0,0,85,1,0,30,136192,-821
5889000,293,6,76,36,0,0,0,10528,0,22,49,0,95,416,21,75,70,0,0,90,1,0,36,141312,-802
5909000,294,7,77,50,0,0,0,8350,0,21,48,0,95,427,21,85,70,49,86,80,1,0,37,157696,-796
5930000,295,6,78,63,0,0,0,7948,0,37,45,0,95,424,21,78,120,38,94,86,1,0,24,158720,-820
5950000,296,4,76,58,0,0,0,11862,0,36,45,0,95,421,18,79,100,0,0,83,6,0,25,129024,-822
5970000,297,4,76,45,0,0,0,7656,0,37,48,0,95,413,16,78,70,109,4,86,6,0,23,162816,-779
5990000,298,4,77,69,0,0,0,10498,0,36,49,0,95,433,18,84,60,0,0,82,6,0,24,125952,-827
6010000,299,8,75,25,0,0,0,8553,0,36,46,0,95,417,17,77,100,44,2,75,6,0,25,153600,-785
6030000,300,7,73,33,0,0,0,8008,0,40,47,0,95,416,17,75,70,12,146,86,6,0,21,165888,-782
6050000,301,13,73,50,0,0,0,7916,0,26,46,0,95,412,16,70,120,81,56,88,6,0,31,143360,-774
6070000,302,6,79,59,0,0,0,7466,0,32,48,0,95,451,16,80,50,13,266,82,6,0,27,163840,-798
6090000,303,10,71,37,0,0,0,6959,0,35,45,0,95,411,16,73,80,0,0,83,6,0,25,156672,-807
6110000,304,15,76,59,0,0,0,8051,0,28,48,0,95,442,17,74,60,0,0,82,1,0,29,158720,-802
6131000,305,8,73,35,0,0,0,7348,0,34,47,0,95,416,16,76,70,39,52,87,6,0,26,152576,-800
6151000,306,3,74,21,0,0,0,8011,0,32,47,0,95,418,19,71,80,21,92,84,6,0,26,153600,-790
6171000,307,7,76,43,0,0,0,9006,0,32,45,0,95,440,22,79,70,148,198,83,1,0,26,132096,-832
6191000,308,4,76,26,0,0,0,9067,0,43,48,0,95,419,20,76,60,0,0,84,6,0,20,148480,-780
6211000,309,6,75,15,0,0,0,7354,0,39,46,0,95,416,20,79,80,0,0,78,6,0,22,148480,-787
6231000,310,7,83,41,0,0,0,10976,0,44,45,0,95,436,20,80,50,0,0,85,6,0,20,124928,-912
6251000,311,3,76,37,0,0,0,12038,0,35,47,0,95,413,18,76,60,0,0,91,6,0,25,109568,-838
6271000,312,3,78,39,0,0,0,10803,0,27,48,0,95,412,19,79,50,0,0,91,6,0,31,134144,-772
6291000,313,0,68,27,0,0,0,7672,0,31,46,0,95,410,19,71,70,17,2,87,6,0,27,177152,-747
6311000,314,0,0,0,0,0,0,9168,0,37,0,0,95,419,22,81,70,188,4,84,4,0,23,130048,-800
6332000,315,3,71,29,0,0,0,8030,0,37,47,0,95,409,19,72,50,0,0,90,4,0,23,138240,-782
6352000,316,14,76,23,0,0,0,11393,0,38,45,0,95,407,22,75,50,0,0,88,6,0,22,124928,-813
6372000,317,14,75,45,0,0,0,10880,0,30,46,0,95,411,21,78,70,0,0,88,1,0,29,116736,-790
6392000,318,8,73,44,0,0,0,11428,0,22,46,0,95,409,23,73,60,0,0,91,1,0,35,126976,-801
6412000,319,6,77,50,0,0,0,9408,0,26,46,0,95,410,23,77,60,0,0,87,1,0,31,138240,-805
6432000,320,3,77,42,0,0,0,11863,0,25,46,0,95,410,24,80,70,0,0,86,6,0,33,131072,-793
6452000,321,3,75,35,0,0,0,9399,0,41,44,0,95,422,21,76,50,0,0,90,6,0,21,131072,-793
6472000,322,4,74,28,0,0,0,9631,0,41,48,0,95,447,22,77,70,200,164,72,6,0,21,135168,-816
6492000,323,3,74,35,0,0,0,9633,0,53,46,0,95,408,21,77,60,0,0,82,6,0,15,136192,-788
6512000,324,0,75,51,0,0,0,9324,0,53,45,0,95,424,23,83,70,33,2,84,6,0,15,148480,-786
6533000,325,10,72,12,0,0,0,7592,0,46,47,0,95,403,19,73,60,109,68,91,4,0,18,152576,-820
6553000,326,9,72,36,0,0,0,9345,0,29,47,0,95,400,17,74,50,0,0,89,1,0,28,142336,-795
6573000,327,3,75,28,0,0,0,8852,0,24,47,0,95,411,17,75,40,0,0,84,1,0,33,125952,-785
6593000,328,6,75,37,0,0,0,9870,0,26,49,0,95,413,19,76,50,0,0,87,6,0,31,145408,-781
6613000,329,7,77,16,0,0,0,9052,0,31,46,0,95,419,22,79,50,0,0,81,6,0,27,130048,-805
6633000,330,3,71,17,0,0,0,9983,0,44,47,0,95,399,18,76,50,0,0,82,6,0,19,135168,-797
6653000,331,3,72,27,0,0,0,7153,0,34,48,0,95,399,16,71,50,0,0,91,6,0,24,167936,-800
6673000,332,3,73,29,0,0,0,7831,0,32,48,0,95,411,15,73,50,135,4,85,6,0,26,154624,-799
6693000,333,4,72,72,0,0,0,7498,0,21,42,0,95,429,15,75,70,78,32,82,6,0,36,148480,-800
6713000,334,0,0,0,0,0,0,8499,0,66,0,0,95,380,14,63,30,0,0,80,6,0,9,141312,-818
6734000,335,7,76,21,0,0,0,9551,0,67,47,0,95,413,17,76,40,0,0,88,1,0,9,141312,-812
6754000,336,3,75,12,0,0,0,13761,0,23,47,0,95,420,18,75,50,0,0,82,1,0,34,123904,-849
6774000,337,10,73,21,0,0,0,13701,0,27,49,0,95,396,16,74,50,0,0,90,6,0,30,96256,-798
6794000,338,3,75,38,0,0,0,15725,0,28,47,0,95,402,16,75,50,0,0,86,6,0,29,96256,-795
6814000,339,4,73,21,0,0,0,11829,0,22,47,0,95,418,17,75,40,0,0,86,6,0,35,130048,-792
6834000,340,3,74,24,0,0,0,9929,0,27,46,0,95,384,19,73,50,0,0,90,6,0,29,154624,-766
6854000,341,3,69,16,0,0,0,9145,0,32,46,0,95,378,16,72,40,0,0,89,1,0,25,134144,-800
6874000,342,11,67,26,0,0,0,9416,0,27,48,0,95,383,16,67,60,0,0,90,1,0,28,148480,-761
6894000,343,7,70,20,0,0,0,9555,0,70,45,0,95,382,15,73,60,0,0,87,1,0,8,135168,-821
6914000,344,3,70,31,0,0,0,10777,0,35,48,0,95,381,16,68,60,0,0,81,1,0,23,131072,-753
6935000,345,10,70,7,0,0,0,8691,0,34,48,0,95,397,18,70,40,0,0,87,1,0,23,135168,-839
6955000,346,4,67,3,0,0,0,14049,0,33,45,0,95,397,16,68,20,0,0,80,6,0,24,122880,-835
6975000,347,3,68,18,0,0,0,15332,0,34,45,0,95,380,14,68,30,0,0,86,1,0,23,80896,-850
6995000,348,6,75,8,0,0,0,12758,0,33,46,0,95,401,14,74,40,0,0,88,1,0,25,116736,-859
7015000,349,11,85,32,0,0,0,8176,0,20,47,0,95,496,18,93,60,87,50,85,6,0,42,139264,-957
7035000,350,3,85,72,0,0,0,9692,0,47,45,0,95,480,18,89,60,42,32,81,6,0,20,123904,-924
7055000,351,3,84,47,0,0,0,8847,0,32,46,0,95,456,16,80,70,131,64,88,6,0,29,145408,-648
7075000,352,9,96,44,0,0,0,10683,0,46,46,0,95,499,20,95,70,118,10,83,1,0,21,124928,-932
7095000,353,0,0,0,0,0,0,11646,0,63,0,0,95,447,17,101,70,0,0,87,6,0,13,130048,-339
7115000,354,24,101,67,0,0,0,4813,0,51,43,0,95,459,21,95,60,87,32,85,6,0,19,203776,-959
7136000,355,22,89,58,0,0,0,12250,0,30,46,0,95,429,20,86,70,97,14,89,6,0,35,107520,-820
