# session 213
45
1331
-536
-4816
-4310
-281
-2031
-5332
-2513
-1225
-6033
-8962
-7845
-6305
-3394
735
2216
9
-2645
-2131
879
2284
1131
307
1043
1108
-1466
-4487
-4818
-4145
-4716
-3864
-359
1959
1630
1244
1509
1404
1228
1337
1343
1286
1325
1295
1235
1260
1271
1226
1198
1179
1130
1033
893
769
710
671
606
546
514
492
484
534
641
707
736
935
1306
1566
1723
1956
1956
1374
576
98
-63
-124
-144
-142
-150
-167
-198
-236
-249
-260
-309
-384
-457
-515
-545
-553
-551
-508
-393
-245
-108
32
182
297
347
344
298
250
250
217
63
-87
-217
-466
-607
-546
-748
-933
-517
-924
-3888
-7678
-8485
-5259
-1160
450
70
-37
276
229
149
296
341
291
336
422
485
507
475
445
441
424
409
417
409
408
443
423
396
512
642
735
1024
1237
833
219
106
274
274
222
243
230
175
160
179
173
131
122
164
172
134
138
175
180
187
237
289
304
315
345
360
319
243
203
176
81
8
25
-15
-49
37
-45
-138
91
-40
-311
404
215
-2182
-2768
-829
-1748
-4456
-2948
541
917
68
441
643
363
447
504
415
543
676
834
1166
1100
504
171
298
360
284
294
323
301
304
321
317
324
346
353
353
370
402
437
467
492
502
504
537
594
604
562
523
491
445
392
326
246
186
166
163
156
141
138
175
236
288
333
385
451
533
601
663
795
956
1064
1256
1569
1645
1244
628
241
217
170
-55
17
104
-342
-188
516
-1069
-4777
-6916
-6648
-4972
-1929
542
711
347
452
463
977
793
-1759
-3271
-897
1678
1609
1068
1274
1238
1044
1097
1070
980
996
963
911
922
868
828
855
748
709
868
686
516
989
329
-2619
-4978
-5071
-5205
-5978
-5800
-5394
-5642
-5391
-5041
-5434
-4129
-171
2597
2430
1975
2171
2044
1997
2074
1896
2359
2530
196
-2547
-2725
-2347
-2746
-1305
1577
2529
1882
1814
2000
1786
1694
1751
1646
1566
1604
1597
1536
1487
1456
1454
1468
1436
1356
1305
1281
1196
1088
1010
897
830
848
699
592
773
584
275
826
620
-1537
-2372
-328
1060
483
255
630
509
305
364
307
200
214
214
174
164
137
67
76
209
328
395
406
180
-184
-258
-79
-43
-121
-84
-35
-86
-76
-3
-85
-177
38
268
111
-117
-87
-32
-43
53
141
107
136
236
209
111
68
18
-41
-65
-134
-229
-238
-202
-171
-148
-207
-232
-138
-198
-240
10
-142
-431
324
244
-2938
-6637
-7961
-7158
-4090
-135
1126
539
865
362
-1399
-1010
937
1243
858
1247
1030
303
545
508
-1576
-3896
-3492
-844
1060
1138
813
921
987
886
881
906
882
889
911
904
890
898
934
950
917
891
879
836
774
718
646
578
545
544
547
522
487
480
446
405
437
407
357
510
480
215
590
780
-1561
-5685
-7721
-5736
-1704
1067
1320
520
269
590
878
906
920
1185
1367
1029
543
440
541
536
500
501
483
465
461
441
414
393
376
362
349
344
357
362
353
370
416
435
416
410
411
371
322
297
241
149
99
80
55
58
66
31
9
0
-58
-75
7
13
-58
-21
23
7
66
-27
-163
94
-828
-4546
-7534
-5291
-595
1095
356
281
655
606
733
930
578
116
70
170
167
145
141
129
116
84
54
66
82
83
98
104
80
88
139
174
190
220
250
262
265
258
237
216
192
149
107
92
89
81
63
28
6
30
46
28
40
92
108
90
113
173
186
138
91
64
29
2
5
11
28
80
93
45
44
98
167
301
341
70
-232
-214
-77
-69
-80
-45
-41
-51
-39
-30
-21
-11
-17
-21
-7
17
50
86
112
147
194
222
225
225
232
238
215
161
112
80
53
41
40
26
5
0
23
62
129
288
508
730
1067
1405
1478
1687
1931
395
-3493
-6852
-6758
-3697
-551
587
277
120
292
212
64
126
95
-80
-37
-32
-313
-107
330
-529
-1685
-887
620
730
388
593
644
461
486
518
454
457
451
408
427
458
439
422
420
400
373
361
358
349
312
267
271
279
239
243
260
187
196
254
123
166
350
9
102
947
-787
-5255
-6217
-2090
999
695
272
668
635
432
528
632
681
798
952
906
488
94
125
275
239
192
215
203
177
179
178
168
160
149
145
150
151
154
171
205
245
265
266
287
325
329
290
250
206
126
39
-3
-7
-23
-61
-93
-100
-103
-132
-126
-63
-63
-75
36
95
175
502
564
522
1271
1164
-1243
-2558
-782
635
382
24
-1207
-2648
-1631
175
43
-501
-196
-157
-402
-338
-328
-466
-476
-476
-534
-527
-482
-419
-289
-143
-35
57
129
160
154
126
96
77
66
62
71
84
94
98
98
96
94
97
111
110
84
69
73
59
47
55
43
33
86
164
194
184
159
114
70
60
76
81
77
107
147
129
118
197
278
350
506
523
197
-116
-93
32
33
6
23
46
51
48
58
73
69
77
87
17
-61
4
150
219
225
259
312
345
357
357
343
312
276
242
205
173
145
105
72
77
92
83
71
100
142
144
127
151
204
219
181
155
162
159
141
153
173
171
183
192
166
173
222
311
502
568
281
-24
-84
-50
75
65
-216
44
323
-1736
-5270
-6438
-5383
-5111
-4785
-2279
474
1118
770
853
982
908
934
990
964
952
936
882
835
781
712
671
639
597
572
557
526
494
464
433
421
412
402
431
465
481
501
419
316
412
359
118
402
108
-2519
-4867
-3227
136
1135
619
824
1188
862
385
239
317
396
388
348
327
311
300
306
315
315
295
273
273
290
310
326
332
345
387
430
450
461
467
452
408
335
260
199
129
53
23
41
39
-3
-32
-31
-39
-47
-35
-50
-60
18
75
51
51
-26
-117
61
30
-299
213
293
-3001
-6884
-5562
-847
1200
644
655
863
312
28
279
329
225
230
187
101
102
113
92
102
136
155
163
169
183
218
259
291
323
354
371
377
374
358
335
288
212
152
130
102
67
60
59
53
42
9
10
54
27
-3
41
27
97
251
11
-99
441
-161
-2291
-2527
-261
662
-203
58
632
-657
-1714
-405
1100
867
127
-40
-19
-21
12
-8
-36
-10
9
14
25
28
33
41
39
42
57
75
104
139
157
172
206
233
229
213
196
162
106
56
22
-10
-33
-36
-33
-33
-19
22
83
141
227
439
730
948
1146
1339
1217
685
127
-190
-314
-328
-327
-369
-383
-340
-315
-326
-340
-361
-386
-411
-449
-489
-501
-494
-460
-378
-279
-200
-121
-33
27
50
58
44
2
-23
-17
-24
-42
-33
-32
-62
-63
-25
-14
-32
-29
-18
-23
-28
-29
-43
-47
-17
-11
-51
-50
-13
-46
-105
-88
-51
-50
-41
-14
26
69
71
44
30
-10
-56
-10
52
22
7
55
59
64
152
262
416
588
467
31
-239
-170
-73
-96
-119
-83
-67
-119
-87
-24
-392
-1053
-1073
-362
122
97
70
149
171
202
269
296
314
335
318
301
317
308
243
174
144
131
103
76
69
61
57
70
81
92
104
78
104
288
488
615
821
1052
1193
1451
1743
1520
735
-13
-291
-272
-359
-381
-173
-380
-607
113
-504
-4325
-6732
-3866
-92
344
-372
-155
-27
-246
-157
43
115
221
352
422
445
450
455
430
363
319
320
311
296
303
305
306
333
335
292
287
324
318
287
282
281
275
286
278
242
213
191
195
269
337
297
235
254
257
195
176
195
194
224
232
179
228
338
428
686
851
589
421
38
-2227
-5843
-7297
-4796
-874
1091
551
-1187
-2714
-2494
-459
1120
1089
801
969
1004
904
958
1004
998
1046
1064
1030
1018
982
891
816
755
660
568
522
481
423
396
405
396
358
341
373
394
348
301
340
407
398
322
276
307
344
369
525
727
711
632
596
343
262
608
495
235
533
-1068
-5115
-6087
-2213
647
317
26
108
-43
526
-357
-3903
-5110
-1911
596
241
-100
278
216
90
240
232
171
258
299
289
340
368
337
324
324
310
301
297
283
268
266
275
282
291
316
382
535
761
977
1213
1498
1534
1066
423
64
-31
-74
-106
-119
-141
-180
-224
-273
-349
-432
-439
-377
-347
-367
-388
-401
-394
-342
-255
-158
-54
53
145
192
186
155
116
72
42
31
12
-11
-19
-25
-29
-23
-29
-45
-43
-44
-66
-66
-30
-29
-77
-80
-51
-75
-43
15
-160
-171
235
-366
-2475
-3370
-1544
383
499
151
292
336
215
239
264
253
306
312
278
341
431
508
625
580
255
16
96
218
204
181
188
171
150
145
138
135
140
143
147
163
184
204
230
266
305
342
377
408
429
434
414
380
348
302
236
191
172
145
128
138
126
86
77
82
62
80
135
139
149
200
163
112
146
68
27
211
68
-171
348
157
-2513
-5841
-7155
-5816
-2334
964
1499
430
222
556
488
410
487
456
419
445
436
419
420
415
418
416
398
404
440
469
491
526
571
624
670
665
614
575
531
424
310
256
230
209
178
107
59
91
120
104
108
93
17
23
150
192
135
129
54
-38
109
73
-194
301
289
-3022
-6958
-5788
-1206
886
1041
2157
2338
584
-298
218
319
89
201
238
122
147
180
136
144
180
185
201
221
220
233
269
308
351
387
409
442
470
453
413
364
289
206
145
85
33
23
28
5
-24
-33
-36
-41
-49
-59
-40
35
153
276
362
460
651
867
1060
1357
1692
1675
1144
403
-168
-426
-471
-467
-477
-490
-502
-521
-552
-584
-603
-628
-674
-717
-756
-800
-831
-838
-823
-766
-654
-518
-378
-238
-113
-22
24
19
-3
-9
-24
-41
-30
-49
-67
3
-23
-121
42
87
-214
87
389
-1205
-2942
-1793
348
531
-29
166
338
242
304
282
138
157
202
158
169
200
185
195
193
195
299
402
511
755
783
322
-71
-6
109
47
25
54
32
16
25
10
-5
8
22
24
36
66
95
114
140
175
203
218
234
245
233
205
182
154
98
42
19
-5
-39
-37
-13
-34
-78
-87
-74
-55
-26
-25
-33
15
60
39
9
-6
-27
-23
-24
-66
-75
-23
-10
-67
-95
-51
56
317
642
582
71
-293
-254
-173
-207
-205
-174
-175
-168
-149
-140
-126
-110
-104
-91
-65
-44
-25
1
35
64
82
98
120
129
115
88
59
32
-4
-58
-82
-91
-144
-133
-44
-122
-193
12
-111
-772
-875
-201
141
-16
-36
23
-42
-65
-47
-73
-61
-18
-12
8
48
35
16
61
150
346
585
494
65
-161
-42
40
-11
-17
0
-29
-39
-22
-53
-76
-23
-43
-199
-217
-5
139
119
146
239
275
287
334
356
328
305
298
263
205
163
131
87
50
56
84
81
31
-13
-5
23
25
16
48
114
127
73
57
61
36
77
82
-37
74
184
-185
1
587
-1558
-5708
-5831
-1361
1383
573
-102
338
396
204
289
320
252
261
261
241
268
293
277
258
266
296
322
343
379
427
460
475
494
508
482
425
364
280
180
127
109
69
26
30
64
74
66
112
216
344
547
826
1095
1419
1792
1803
1200
376
-180
-392
-425
-448
-484
-473
-473
-512
-505
-535
-675
-738
-693
-602
-481
-955
-2359
-3117
-1913
-252
152
-45
93
261
236
239
253
213
194
188
163
155
161
151
145
147
128
105
107
104
80
71
68
49
48
66
53
21
11
20
23
1
-32
-39
-33
-51
-75
-61
-5
71
118
103
58
28
15
11
18
21
21
17
-22
-36
42
109
236
609
808
347
-238
-301
-155
-191
-238
-201
-198
-211
-192
-170
-154
-137
-123
-101
-73
-41
-6
25
51
89
134
169
194
211
213
201
178
147
110
64
17
-4
-18
-49
-58
-28
-21
-48
-51
-10
26
16
-13
9
83
135
109
36
34
62
-23
-19
102
-40
-59
291
-12
-295
726
90
-3530
-4401
-691
1404
226
-128
566
406
156
360
336
229
319
340
297
329
345
328
341
357
367
398
436
465
499
531
540
534
529
515
468
403
360
334
287
249
264
275
245
253
327
366
340
338
429
620
854
1060
1339
1697
1635
957
393
224
-9
-13
212
-224
-342
562
-677
-4301
-4674
-1189
570
-86
-223
-59
35
222
-1498
-4862
-5981
-3743
-702
1103
737
-1267
-2208
-746
932
1094
755
816
841
694
666
693
655
611
592
585
554
473
432
475
479
411
384
377
319
324
376
296
254
330
182
78
385
258
-774
-2109
-3180
-2488
25
-119
-4237
-6117
-3183
-215
593
958
1120
871
849
974
972
1016
1163
1354
1310
801
349
390
500
413
397
460
428
381
380
349
318
348
382
351
294
289
332
381
433
482
504
510
501
484
499
472
391
416
376
145
228
375
-70
88
782
-1424
-5812
-6451
-3142
-1049
-492
814
1781
1675
1859
2351
2313
1826
1142
495
229
222
175
129
148
148
106
55
17
1
-14
-59
-139
-199
-187
-154
-176
-176
-34
188
340
428
544
644
627
548
524
519
471
450
483
466
427
456
421
382
545
500
227
611
726
-1731
-5594
-6852
-4456
-1226
427
947
1311
723
-709
-720
709
1197
719
727
946
858
836
875
769
696
684
609
549
551
514
449
418
368
327
394
470
514
671
674
191
-258
-185
-66
-159
-143
-198
-356
-221
-329
-690
-111
-377
-4180
-7671
-5926
-2250
-1141
-902
-63
2
-320
-183
-235
