# session 46
152
192
185
166
147
83
-17
-107
-178
-231
-255
-259
-265
-276
-272
-257
-253
-253
-237
-235
-251
-224
-146
-86
-35
126
419
672
797
972
1293
1432
1024
273
-274
-422
-410
-435
-475
-476
-468
-480
-486
-481
-490
-513
-536
-569
-600
-619
-646
-674
-683
-692
-704
-667
-557
-409
-261
-119
17
117
163
167
138
90
46
9
-25
-40
-34
-35
-47
-50
-46
-40
-27
-14
-25
-40
-24
-4
-20
-34
-12
-7
-28
-15
15
8
-11
-11
-5
4
5
-33
-81
-87
-66
-52
-43
-20
36
101
128
109
82
77
71
35
18
53
60
33
36
28
43
194
360
475
660
651
190
-218
-158
-3
-20
-14
30
3
-10
42
64
42
44
67
74
73
87
106
122
143
170
203
255
307
345
389
432
435
409
374
305
214
142
57
-34
-44
-8
-42
-101
-102
-87
-68
-26
-27
-76
-66
6
33
-3
-32
-5
70
131
127
78
32
10
9
10
8
17
31
57
107
130
156
341
628
850
1063
1125
670
-2
-231
-124
-124
-179
-144
-121
-144
-154
-149
-144
-146
-155
-156
-155
-175
-198
-202
-193
-178
-177
-189
-159
-78
-20
0
32
71
74
30
-32
-77
-118
-175
-219
-226
-235
-265
-285
-294
-309
-312
-295
-292
-305
-302
-295
-311
-328
-319
-305
-315
-333
-320
-274
-236
-238
-271
-301
-313
-325
-345
-344
-342
-379
-388
-354
-385
-406
-281
-139
25
351
417
-131
-656
-615
-431
-457
-488
-442
-424
-424
-422
-432
-429
-406
-394
-392
-383
-365
-345
-327
-308
-275
-237
-191
-109
-11
46
71
99
105
76
37
-10
-49
-56
-51
-49
-23
21
67
131
205
249
263
298
365
419
444
479
514
519
540
608
647
647
692
774
811
809
809
808
803
812
833
869
911
936
970
1010
988
981
1118
1266
1372
1610
1756
1427
1004
1027
1236
1242
1184
1212
1236
1243
1275
1292
1252
1153
998
803
607
425
252
108
6
-81
-177
-258
-310
-347
-374
-387
-394
-414
-468
-564
-676
-773
-846
-899
-925
-932
-957
-1012
-1060
-1090
-1125
-1163
-1199
-1230
-1216
-1167
-1156
-1171
-1163
-1170
-1188
-1144
-1066
-1040
-1061
-1067
-1033
-999
-1018
-1051
-1049
-1053
-1075
-1051
-1016
-1018
-970
-864
-766
-607
-487
-728
-1178
-1323
-1166
-1082
-1100
-1077
-1060
-1083
-1057
-961
-864
-798
-736
-672
-620
-557
-461
-362
-266
-123
81
287
462
604
720
866
1063
1219
1259
1239
1214
1164
1098
1059
1031
985
951
941
910
860
835
826
797
760
739
723
694
667
677
721
744
740
768
816
823
798
776
747
726
729
719
694
682
668
658
655
610
573
644
732
799
929
899
498
133
162
302
289
250
250
232
207
189
161
136
120
101
92
84
52
19
16
19
1
-17
-14
9
44
76
82
62
34
-18
-126
-257
-346
-398
-454
-511
-539
-537
-530
-536
-548
-548
-541
-538
-530
-518
-533
-552
-522
-486
-501
-497
-428
-373
-365
-368
-391
-437
-450
-436
-444
-453
-437
-429
-408
-377
-412
-416
-249
-88
40
351
464
-85
-675
-632
-395
-412
-441
-373
-366
-367
-300
-257
-264
-253
-212
-172
-144
-121
-92
-55
-21
15
74
143
210
286
368
423
434
409
366
311
233
125
43
37
48
10
-26
-17
-3
-6
2
24
43
60
62
43
48
96
121
86
75
142
212
216
196
185
164
143
137
129
132
151
145
147
182
163
150
266
370
460
728
815
309
-236
-243
-77
-107
-140
-92
-85
-103
-99
-96
-87
-71
-65
-65
-60
-51
-34
-16
-4
22
66
111
156
200
239
280
302
270
215
170
89
-35
-122
-144
-150
-168
-188
-193
-179
-157
-142
-144
-151
-138
-121
-129
-134
-112
-95
-97
-100
-84
-38
-1
-24
-83
-115
-101
-71
-61
-70
-82
-87
-65
-33
-49
-57
22
118
247
490
528
100
-317
-292
-134
-140
-163
-125
-111
-108
-85
-63
-40
-13
2
12
28
46
67
95
124
146
169
209
266
320
365
400
400
367
342
307
213
101
37
0
-42
-68
-79
-99
-112
-102
-93
-100
-96
-80
-89
-130
-158
-149
-129
-113
-85
-47
-12
18
34
22
-17
-64
-78
-61
-71
-96
-82
-64
-63
-48
-56
-62
28
143
212
274
188
-132
-344
-243
-109
-117
-143
-140
-157
-179
-187
-188
-188
-183
-172
-162
-161
-147
-116
-94
-78
-43
5
47
87
132
177
213
232
225
192
145
81
1
-57
-65
-59
-78
-89
-62
-32
-23
-24
-32
-45
-41
-24
-23
-37
-40
-20
-3
-13
-13
32
73
64
28
-1
-20
-19
-10
-11
1
21
21
39
65
32
37
163
274
390
601
536
8
-381
-275
-108
-138
-161
-120
-113
-125
-120
-105
-90
-87
-91
-80
-55
-34
-23
-9
19
51
88
139
192
245
306
352
365
366
333
244
149
77
-2
-74
-99
-97
-103
-126
-151
-157
-148
-141
-130
-118
-103
-55
9
89
232
368
467
694
990
1074
979
752
233
-264
-282
-161
-316
-452
-350
-268
-297
-303
-282
-292
-322
-353
-371
-385
-422
-467
-486
-490
-488
-456
-390
-297
-174
-33
103
216
281
304
302
266
199
130
69
14
-22
-38
-49
-52
-49
-45
-38
-33
-39
-45
-49
-58
-56
-41
-50
-76
-76
-57
-56
-66
-71
-74
-79
-73
-55
-41
-42
-59
-76
-66
-40
-43
-88
-122
-100
-65
-79
-108
-74
9
56
49
23
0
-13
-14
-5
8
8
-1
26
44
-12
10
192
332
475
736
665
61
-364
-246
-97
-147
-158
-117
-120
-115
-100
-105
-93
-63
-51
-40
-17
5
23
42
67
105
149
191
241
293
326
344
362
367
340
297
255
197
117
50
12
-22
-51
-49
-40
-58
-66
-37
-15
-38
-69
-40
63
155
199
343
652
896
1014
1255
1520
1340
724
140
-193
-360
-427
-434
-431
-436
-449
-458
-459
-472
-497
-514
-541
-580
-602
-614
-643
-664
-645
-593
-524
-438
-334
-212
-87
5
49
59
37
-4
-27
-29
-40
-62
-74
-67
-55
-57
-68
-57
-30
-31
-56
-51
-22
-24
-45
-41
-25
-30
-46
-39
-9
0
-19
-16
9
3
-7
22
35
6
-4
7
-6
-14
9
11
-22
-34
10
70
91
82
69
43
20
33
59
68
67
65
83
105
76
70
168
289
405
506
361
-54
-291
-173
-38
-47
-61
-42
-39
-37
-25
-17
-7
6
16
24
38
55
65
71
85
109
141
187
237
275
305
332
344
335
316
289
244
173
92
39
12
-32
-81
-92
-85
-96
-120
-131
-120
-108
-117
-133
-128
-111
-104
-95
-54
4
20
-19
-66
-91
-94
-84
-84
-95
-100
-110
-105
-72
-93
-135
-23
170
294
450
497
95
-405
-419
-185
-151
-201
-157
-118
-132
-154
-158
-133
-103
-95
-89
-88
-93
-60
-5
17
33
82
140
205
291
372
420
437
420
356
254
144
48
-26
-81
-127
-154
-164
-180
-197
-190
-178
-188
-194
-190
-201
-208
-186
-170
-191
-208
-171
-97
-52
-56
-84
-115
-125
-113
-124
-129
-92
-88
-104
-55
-59
-129
-7
230
344
523
690
339
-262
-363
-122
-79
-147
-119
-85
-85
-72
-68
-78
-78
-69
-63
-63
-59
-41
-17
5
39
88
148
224
308
374
413
431
428
397
337
255
165
83
23
-7
-23
-50
-69
-59
-54
-69
-59
-31
-32
-48
-55
-65
-43
7
-6
-57
-22
52
50
2
-33
-58
-64
-61
-64
-56
-61
-77
-48
-42
-94
-28
146
268
509
792
521
-169
-422
-214
-151
-235
-206
-166
-188
-188
-177
-178
-156
-136
-142
-133
-100
-70
-46
-23
1
39
95
161
222
269
311
344
343
305
238
147
55
-12
-60
-93
-110
-130
-158
-165
-153
-148
-147
-146
-160
-177
-167
-147
-146
-159
-154
-117
-65
-41
-58
-84
-95
-100
-104
-95
-76
-67
-65
-49
-24
-40
-66
8
129
237
452
599
281
-230
-340
-174
-133
-155
-117
-100
-105
-81
-61
-56
-43
-28
-15
-5
-1
8
30
49
64
89
126
171
221
270
306
316
302
280
236
153
66
6
-32
-51
-53
-56
-61
-60
-63
-68
-52
-33
-45
-63
-57
-38
-29
-30
-24
8
54
63
21
-21
-24
-9
-19
-42
-37
-19
-19
-5
-3
-57
-52
72
178
256
342
204
-167
-331
-180
-70
-90
-87
-65
-63
-52
-48
-62
-63
-51
-39
-26
-25
-27
-10
17
39
65
102
146
194
239
269
283
278
250
201
134
62
1
-48
-85
-103
-107
-107
-103
-101
-111
-120
-114
-109
-122
-135
-132
-117
-111
-111
-88
-44
-28
-54
-84
-102
-113
-122
-130
-122
-102
-108
-114
-88
-100
-121
-14
144
253
413
455
90
-329
-324
-125
-85
-111
-91
-83
-92
-93
-86
-68
-57
-61
-58
-49
-40
-14
17
32
60
121
183
232
293
355
392
410
411
371
288
188
91
3
-59
-91
-113
-133
-139
-139
-145
-135
-113
-110
-114
-99
-81
-69
-56
-52
-39
23
92
91
44
21
26
19
-12
-33
-16
-3
-13
-3
-13
-60
19
214
345
515
681
391
-218
-435
-253
-170
-198
-179
-181
-201
-181
-166
-156
-120
-105
-122
-124
-104
-80
-49
-24
-9
32
107
173
222
278
320
334
330
285
185
87
23
-41
-105
-139
-156
-173
-180
-178
-182
-187
-177
-151
-132
-138
-140
-113
-95
-119
-131
-74
-3
9
-20
-47
-69
-86
-92
-100
-102
-92
-88
-65
-54
-110
-92
84
211
331
619
635
73
-392
-296
-114
-146
-176
-153
-151
-132
-111
-128
-129
-98
-93
-108
-100
-65
-17
17
20
32
90
161
226
299
361
389
390
368
316
239
150
67
13
-21
-58
-90
-90
-68
-50
-2
95
194
346
623
884
1068
1371
1625
1326
594
58
-129
-229
-312
-338
-360
-404
-434
-441
-435
-436
-469
-524
-564
-588
-623
-664
-668
-637
-600
-537
-421
-278
-152
-60
10
74
112
94
61
55
37
-6
-29
-29
-22
0
10
-8
-14
-3
0
9
19
2
-10
7
6
-16
-7
18
9
-4
17
39
27
12
16
19
18
28
33
18
15
31
29
11
10
8
-15
-18
6
0
-26
-7
45
74
69
45
19
9
1
-9
0
3
-20
-15
-5
-41
-10
131
263
400
470
191
-269
-389
-212
-140
-169
-141
-119
-137
-131
-110
-108
-104
-85
-65
-50
-37
-21
3
28
56
84
105
138
206
271
290
280
277
275
256
216
166
112
59
20
-5
-26
-37
-30
-27
-39
-46
-43
-50
-64
-62
-44
-29
-30
-26
11
56
85
124
192
299
449
567
584
565
521
390
368
583
615
194
-214
-257
-196
-229
-249
-239
-249
-250
-241
-250
-266
-284
-309
-328
-342
-359
-372
-378
-373
-354
-325
-289
-248
-212
-174
-135
-109
-79
-30
-3
-17
-32
-36
-46
-45
-34
-36
-41
-29
-27
-41
-39
-22
-12
-6
-5
-16
-20
-4
1
-22
-42
-29
-4
-15
-55
-44
44
116
105
60
37
38
43
30
12
13
12
18
52
38
-5
106
299
435
689
889
490
-188
-341
-128
-107
-180
-147
-131
-164
-166
-160
-169
-173
-164
-142
-114
-105
-115
-110
-73
-33
9
73
138
206
281
314
319
353
352
272
196
151
78
-8
-61
-87
-102
-115
-127
-126
-123
-123
-106
-78
-74
-80
-68
-72
-104
-104
-47
1
-15
-66
-106
-117
-118
-116
-96
-78
-91
-81
-45
-71
-63
91
234
391
734
827
281
-271
-262
-91
-111
-143
-113
-106
-94
-72
-79
-86
-77
-86
-97
-72
-39
-32
-29
1
41
82
130
173
205
247
285
286
257
206
138
74
17
-50
-116
-140
-119
-109
-130
-131
-96
-72
-61
-26
16
63
209
457
657
810
1094
1352
1133
469
-79
-251
-282
-330
-350
-343
-349
-357
-360
-375
-398
-417
-434
-457
-489
-518
-540
-560
-563
-535
-480
-394
-271
-134
-13
80
144
170
158
121
76
45
29
5
-21
-24
-14
-18
-33
-37
-17
5
-11
-42
-28
6
7
-2
0
-7
-5
29
44
13
-8
11
32
24
2
-3
11
19
11
9
18
32
50
54
37
47
107
147
121
77
56
44
24
12
11
-2
-6
22
23
-8
58
213
367
568
655
312
-181
-269
-86
-39
-76
-54
-48
-72
-66
-48
-48
-52
-47
-32
-22
-26
-25
-5
14
33
74
119
137
147
184
237
256
230
212
205
147
56
3
-33
-100
-141
-120
-110
-141
-151
-131
-118
-110
-109
-129
-151
-147
-115
-86
-89
-87
-38
6
-2
-26
-50
-75
-72
-50
-44
-48
-48
-32
-8
-30
-58
17
151
255
317
187
-172
-395
-280
-126
-123
-134
-92
-71
-87
-98
-85
-70
-75
-78
-65
-56
-46
-29
-16
4
45
88
125
172
228
279
308
304
277
241
188
114
44
-7
-44
-63
-55
-46
-59
-68
-47
-23
-25
-49
-66
-47
-2
15
-3
-1
38
61
45
21
6
3
13
25
34
44
43
44
52
23
8
101
224
355
554
524
48
-363
-294
-111
-107
-106
-58
-70
-89
-63
-41
-35
-25
-21
-16
-2
11
24
52
84
104
126
172
226
282
344
384
386
367
320
223
119
45
-29
-109
-154
-162
-186
-233
-255
-238
-231
-253
-270
-265
-247
-231
-229
-219
-174
-127
-122
-153
-198
-234
-244
-243
-244
-226
-209
-214
-201
-189
-210
-143
25
148
291
423
154
-405
-576
-331
-208
-271
-277
-253
-257
-231
-201
-213
-216
-186
-160
-139
-108
-87
-76
-48
6
71
128
182
252
323
377
410
399
347
274
177
80
29
4
-26
-36
-29
-41
-49
-13
79
200
298
435
720
1016
1197
1501
1949
1983
1350
581
99
