# session 250
-7
89
230
596
833
459
-101
-209
-62
-49
-78
-42
-28
-41
-34
-26
-19
-1
19
31
40
49
65
83
96
110
135
155
166
188
211
194
158
143
124
69
14
-11
-33
-57
-60
-56
-79
-117
-136
-133
-114
-83
-75
-84
-37
50
55
-21
-44
5
28
24
52
68
41
51
110
157
231
348
455
684
1012
945
386
-13
16
71
0
-30
-38
-85
-119
-138
-168
-184
-184
-192
-196
-180
-159
-145
-121
-80
-42
-16
14
43
55
61
70
66
43
15
-9
-35
-74
-109
-112
-100
-99
-97
-106
-134
-104
-15
24
39
130
259
417
651
835
967
1314
1707
1536
777
43
-333
-476
-529
-548
-572
-604
-624
-631
-635
-640
-658
-699
-746
-767
-776
-810
-853
-864
-845
-798
-704
-584
-468
-334
-175
-62
-27
-8
22
16
-15
-12
5
-5
-15
-4
-12
-34
-24
4
3
-11
-21
-42
-34
-1
-54
-154
-119
-14
-36
-97
-32
71
91
75
74
75
83
103
123
160
234
379
586
732
792
906
1010
1029
1211
1415
1042
302
-22
31
-26
-132
-122
-116
-144
-133
-121
-131
-128
-121
-121
-108
-79
-60
-58
-52
-17
33
65
87
115
130
131
137
131
106
77
38
-10
-41
-58
-85
-106
-111
-136
-176
-158
-87
-56
-44
48
179
291
485
752
935
1156
1573
1769
1281
426
-193
-461
-555
-576
-582
-601
-609
-606
-611
-611
-605
-613
-635
-659
-687
-719
-745
-767
-777
-755
-686
-571
-435
-307
-186
-74
-6
4
-10
-25
-37
-37
-35
-36
-31
-32
-41
-35
-30
-49
-60
-33
-10
-31
-66
-72
-67
-83
-103
-104
-84
-51
-27
-7
56
136
160
141
132
135
136
161
219
265
284
319
330
277
265
325
393
573
779
575
39
-216
-118
-68
-114
-115
-114
-133
-127
-115
-112
-105
-105
-99
-65
-37
-34
-5
49
75
86
124
166
181
181
193
227
231
166
104
101
81
11
-25
-5
5
-17
-43
-53
-25
28
61
89
177
310
481
732
940
1044
1282
1547
1267
464
-178
-395
-453
-486
-482
-483
-499
-505
-501
-493
-481
-473
-478
-499
-525
-550
-576
-600
-603
-574
-525
-452
-340
-215
-121
-50
12
35
18
1
-17
-42
-44
-29
-29
-29
-14
-10
-22
-33
-37
-32
-28
-44
-56
-39
-37
-72
-91
-69
-38
-25
-33
-45
-3
108
196
191
147
128
115
101
116
130
114
123
144
113
123
224
304
449
689
610
112
-215
-141
-56
-102
-119
-99
-98
-101
-104
-107
-99
-81
-57
-39
-33
-18
3
10
32
85
119
125
152
197
207
183
168
179
174
126
66
33
17
2
1
10
4
-16
-8
29
41
15
17
64
76
21
-37
-68
-94
-122
-138
-145
-159
-178
-166
-155
-187
-179
-95
-28
61
173
77
-173
-216
-80
-48
-86
-72
-66
-86
-81
-71
-75
-75
-65
-53
-46
-47
-35
-8
13
38
79
100
101
113
125
119
116
105
58
-1
-34
-56
-78
-83
-87
-103
-103
-96
-106
-92
-39
-20
-35
11
106
148
129
108
94
80
69
63
58
55
57
55
20
-24
1
138
387
690
699
88
-493
-74
709
513
-224
-354
-152
-198
-248
-175
-164
-170
-137
-126
-121
-99
-64
-18
6
14
56
103
125
155
177
159
139
110
58
33
4
-39
-13
-39
-110
40
39
-282
23
369
-1000
-2357
-1152
444
188
-56
346
-240
-966
-372
297
101
-39
144
130
9
57
191
284
344
355
180
-120
-201
-43
23
-32
-29
-1
-12
-14
-7
-8
-5
-3
-1
15
26
28
51
88
107
131
187
233
236
236
246
217
146
69
-6
-53
-62
-98
-149
-128
-116
-137
-71
-60
-115
71
133
-120
265
771
-247
-1234
5
1534
1545
1555
1963
1481
547
182
105
3
-6
-15
-86
-133
-183
-257
-312
-371
-446
-504
-550
-596
-636
-684
-733
-747
-716
-654
-557
-429
-298
-173
-55
34
68
56
53
63
32
20
75
54
19
150
83
-367
-484
-30
224
81
45
131
96
39
52
47
0
-43
-51
-5
66
101
81
44
13
-19
-42
-40
-47
-81
-80
-59
-79
-46
75
145
250
491
477
34
-278
-180
-68
-116
-134
-105
-107
-110
-104
-103
-92
-86
-94
-90
-73
-54
-33
-15
8
57
98
96
102
137
132
92
89
87
25
-56
-103
-110
-95
-105
-136
-132
-116
-124
-97
-22
27
45
86
159
227
247
218
189
183
174
162
168
155
109
89
72
-6
-53
-10
100
383
689
511
-56
-320
-205
-153
-201
-183
-164
-177
-157
-130
-129
-118
-91
-83
-78
-41
-7
-6
11
59
93
130
181
188
177
209
226
182
129
82
39
31
35
4
-43
-59
-51
-56
-84
-98
-74
-48
-63
-83
-43
24
41
32
68
128
204
351
517
615
763
1012
1067
733
262
-68
-237
-307
-322
-336
-356
-355
-351
-372
-395
-406
-428
-465
-504
-556
-603
-624
-671
-692
-618
-588
-550
-335
-262
-317
72
195
-823
-1424
-421
457
201
12
217
193
126
236
265
240
286
302
281
263
195
138
186
242
224
200
233
300
292
210
221
227
83
149
328
-179
-903
-586
189
233
54
253
423
560
774
545
-35
-212
-25
20
-46
-39
-26
-27
-14
-12
-19
-13
-14
-21
-9
11
17
23
59
103
120
141
194
234
229
211
200
187
154
76
-25
-92
-124
-140
-143
-152
-177
-203
-224
-219
-179
-167
-204
-214
-155
-93
-97
-145
-167
-157
-165
-181
-155
-125
-136
-130
-102
-113
-83
52
175
282
389
226
-188
-343
-165
-76
-135
-127
-90
-105
-113
-97
-84
-85
-93
-87
-61
-39
-26
-6
15
44
95
156
208
242
256
260
262
237
166
87
31
-19
-56
-68
-74
-85
-80
-63
-50
-33
-12
-3
-6
2
49
150
270
355
476
707
936
1142
1505
1878
1767
1104
353
-129
-326
-366
-385
-425
-454
-471
-485
-482
-478
-510
-560
-586
-600
-636
-683
-714
-731
-733
-698
-617
-504
-373
-238
-104
6
67
98
118
98
54
44
57
47
18
0
0
7
3
-2
20
28
-10
-37
-26
-34
-58
-51
-35
-40
-47
-25
31
91
108
72
19
-7
-13
-27
-34
-21
-5
15
16
-21
10
131
213
321
487
371
-49
-257
-142
-69
-103
-106
-98
-102
-88
-79
-75
-55
-41
-30
-5
13
12
28
71
102
120
158
206
224
221
223
222
204
175
128
59
-5
-33
-50
-87
-113
-91
-69
-90
-104
-82
-62
-47
-28
-25
-13
33
53
16
-16
-18
-14
-6
13
18
19
49
80
65
66
137
240
405
583
475
74
-157
-75
3
-34
-58
-68
-94
-101
-97
-106
-113
-113
-113
-101
-76
-56
-42
-19
17
55
88
118
147
172
179
166
146
118
72
24
-1
-16
-45
-67
-61
-59
-82
-95
-94
-97
-90
-72
-73
-70
-14
54
68
44
45
89
147
226
360
482
542
703
995
1071
720
206
-157
-323
-373
-387
-403
-418
-424
-427
-433
-441
-459
-490
-524
-556
-589
-625
-658
-683
-692
-668
-616
-543
-437
-301
-161
-33
72
140
174
182
167
143
114
86
76
84
83
61
34
20
32
51
39
-1
-22
-12
6
6
-1
34
111
156
148
138
143
136
119
119
136
137
144
187
182
127
185
317
424
656
843
512
-53
-176
-5
10
-41
-12
-14
-41
-28
-23
-43
-47
-38
-35
-20
15
53
76
89
119
167
209
243
280
304
301
281
243
174
93
29
-10
-37
-60
-78
-90
-102
-114
-122
-125
-118
-111
-137
-177
-156
-76
-26
-37
-65
-93
-122
-134
-135
-140
-160
-174
-142
-106
-136
-134
-29
61
144
243
100
-267
-391
-223
-147
-194
-182
-151
-159
-158
-144
-134
-123
-116
-106
-88
-71
-49
-15
18
54
102
140
162
191
214
198
161
136
101
30
-39
-75
-104
-133
-127
-106
-118
-135
-126
-130
-146
-122
-97
-118
-110
-29
64
147
221
286
426
647
807
995
1393
1698
1452
781
153
-205
-331
-350
-358
-357
-328
-311
-326
-339
-341
-359
-385
-403
-427
-479
-538
-580
-609
-620
-592
-521
-417
-289
-161
-48
49
105
109
93
75
46
29
36
43
40
45
48
40
41
56
61
52
51
54
51
43
32
17
6
13
27
36
48
79
120
133
97
54
53
67
58
46
42
29
31
29
-6
7
76
138
336
634
547
38
-259
-168
-97
-149
-157
-148
-172
-171
-152
-150
-140
-116
-105
-102
-88
-68
-48
-24
5
41
86
122
139
158
182
189
176
157
135
107
70
26
-18
-45
-38
-17
-24
-52
-67
-67
-67
-70
-48
22
94
219
506
787
950
1191
1395
1458
1511
717
-1305
-2313
-1059
122
-69
-204
-13
-177
-140
-3
-718
-1416
-891
-170
-280
-514
-433
-430
-485
-412
-335
-268
-135
-5
97
196
243
232
223
213
184
179
200
202
195
200
192
191
207
179
167
216
160
90
213
140
-188
-134
-43
-535
-925
-1006
-1277
-1052
-145
164
-136
-76
121
79
105
189
160
167
223
225
233
243
199
184
184
133
169
315
435
658
919
690
75
-151
48
116
48
63
58
18
34
21
5
61
29
-36
44
-18
-127
201
21
-1538
-2526
-1280
370
633
382
462
499
403
378
311
196
163
149
92
63
69
64
57
83
112
64
14
114
226
227
352
576
732
1090
1377
1206
1607
2171
159
-3141
-3029
-306
384
-1157
-2308
-2399
-1762
-765
-183
-186
-253
-233
-263
-304
-320
-342
-334
-281
-230
-178
-75
75
216
318
386
423
448
475
453
394
492
791
986
1028
1338
1830
1707
854
130
-45
-37
-42
-33
-105
-153
-57
-119
-364
-313
-193
-803
-1761
-1762
-734
69
60
-223
-372
-457
-503
-478
-437
-388
-303
-201
-98
0
65
112
171
202
192
238
324
311
265
332
390
325
289
342
344
284
250
268
297
258
214
282
188
-173
-141
276
-97
-1111
-1129
-171
237
-51
-187
-143
-188
-197
-129
-87
-40
65
186
265
298
315
332
346
353
336
303
313
343
292
216
235
253
189
168
223
282
330
288
196
205
128
46
342
264
-826
-1366
-399
348
-102
-678
-792
-652
-512
-817
-1351
-1310
-837
-570
-415
-165
10
67
98
127
198
278
303
340
410
433
439
470
488
518
564
607
688
666
526
642
740
185
-371
-215
-104
-318
-183
-39
-450
-868
-926
-923
-866
-641
-398
-227
-118
-99
-102
-26
86
143
142
126
113
103
115
145
157
128
82
68
109
142
112
112
256
440
528
551
316
-456
-1238
-1269
-833
-477
-114
172
139
54
107
112
103
225
346
345
308
306
319
334
349
376
444
517
526
503
512
509
450
357
239
112
45
67
104
76
16
7
-3
-39
-30
-51
-80
-52
-609
-1941
-2407
-1121
147
142
-156
-76
-40
-108
-77
-50
-53
14
66
26
55
208
305
415
657
617
91
-277
-138
25
-30
-59
-11
16
15
-25
-66
-63
-60
-28
19
-34
-38
51
-42
10
400
56
-1066
-1332
-734
-410
-20
584
573
233
230
230
78
54
65
22
59
119
107
110
158
178
156
130
147
203
225
192
158
134
111
112
120
125
153
153
93
106
169
65
39
419
554
-295
-1641
-2567
-2504
-1330
7
370
127
129
237
185
170
213
193
180
216
238
229
228
279
355
377
369
416
488
528
561
590
617
624
513
389
407
318
165
316
223
-177
277
437
-1384
-2196
-236
187
-1708
-1396
434
411
374
1708
1979
1018
597
422
17
-53
87
27
-32
11
-1
-57
-102
-156
-209
-248
-286
-355
-446
-488
-517
-592
-535
-371
-329
-93
296
88
50
881
44
-3027
-3642
-584
1031
-733
-2363
-1819
-371
453
419
225
258
256
174
178
171
108
118
187
221
233
256
269
280
285
254
234
263
257
232
288
329
279
262
233
163
259
276
-115
-482
-755
-1324
-1364
-244
711
671
558
857
1155
1154
784
376
359
512
468
336
280
279
279
224
155
177
217
157
117
182
180
122
207
247
118
223
436
81
-751
-1660
-2420
-2148
-615
545
445
152
254
301
180
48
-73
-100
-35
4
40
106
133
125
145
193
251
272
210
150
151
112
36
28
45
47
71
33
2
126
115
10
407
669
-235
-1078
-518
214
81
-92
54
84
78
158
168
163
204
179
119
108
120
161
204
164
150
242
233
195
359
374
197
436
483
-739
-2189
-2271
-1309
-365
88
68
-20
44
50
-21
-56
-96
-76
20
34
14
105
184
157
146
144
61
16
66
25
-72
-31
-2
-48
40
27
-241
-470
-1016
-1874
-1595
-195
384
45
64
245
120
93
183
126
85
146
147
99
111
177
208
153
98
135
193
207
245
278
250
297
401
368
350
383
136
-15
259
-163
-1420
-1549
-372
132
-195
-230
-135
-202
-87
44
-66
-84
85
130
55
54
78
62
62
59
35
44
51
38
62
32
-45
53
204
259
490
586
19
-358
-37
-336
-1245
-949
190
376
-30
50
245
203
238
289
176
104
168
201
189
240
314
335
353
405
456
516
542
463
395
388
283
176
189
63
-121
-230
-858
-1637
-1105
195
469
61
125
327
285
319
346
186
100
152
171
213
294
273
220
236
242
265
305
211
177
378
465
585
1063
877
-233
-542
-369
-1556
-2566
-1549
-372
-191
80
310
176
257
273
213
534
65
-1421
-1512
53
759
347
350
604
505
526
676
452
345
626
153
-900
-689
171
-202
