# session 47
-4
-70
-132
-186
-225
-235
-203
-129
-16
129
288
433
537
590
597
571
536
499
467
449
445
433
409
396
400
400
384
368
372
377
359
334
320
314
309
299
282
267
251
230
221
226
210
178
162
154
133
109
88
58
35
36
40
34
43
72
87
68
29
-13
-41
-34
-4
-11
-57
-61
-47
-89
-69
71
187
371
682
606
-16
-439
-341
-224
-267
-258
-232
-261
-260
-239
-248
-248
-230
-227
-222
-202
-182
-163
-142
-121
-83
-36
-3
38
104
151
160
160
159
135
84
23
-38
-107
-170
-200
-215
-244
-260
-258
-268
-275
-258
-256
-269
-254
-222
-211
-215
-203
-151
-99
-110
-156
-177
-180
-177
-151
-115
-110
-134
-127
-78
-77
-106
-32
116
259
424
403
4
-357
-289
-102
-101
-127
-90
-73
-62
-39
-39
-36
-17
-16
-18
-5
-2
-1
18
44
73
118
171
227
288
336
356
365
361
313
229
156
102
47
7
-4
-14
-24
-10
5
-2
-11
-4
-2
-18
-20
19
48
25
22
80
112
87
70
62
39
20
10
14
30
19
5
24
9
-20
54
174
279
414
387
30
-286
-237
-85
-81
-104
-78
-69
-75
-64
-57
-57
-48
-33
-26
-19
-5
15
37
58
79
109
154
201
243
281
303
296
275
237
167
82
15
-33
-77
-108
-118
-121
-126
-132
-139
-148
-154
-155
-146
-130
-128
-137
-116
-64
-37
-65
-114
-142
-139
-140
-163
-166
-146
-147
-133
-103
-116
-88
52
185
330
482
293
-204
-404
-225
-137
-176
-138
-102
-128
-124
-98
-99
-98
-80
-64
-48
-23
-1
14
30
58
96
138
189
246
289
316
342
339
278
185
90
-2
-77
-116
-138
-160
-174
-181
-172
-142
-127
-139
-136
-116
-105
-90
-74
-71
-51
5
53
54
20
-5
0
3
-11
-21
-44
-73
-31
30
-24
-62
78
236
360
559
518
14
-385
-297
-132
-148
-152
-110
-110
-112
-102
-104
-104
-102
-95
-71
-55
-58
-42
-2
35
66
109
176
239
285
334
377
375
325
252
162
64
-14
-56
-84
-116
-133
-128
-133
-140
-110
-59
-3
76
172
324
599
873
1030
1295
1731
1797
1159
307
-200
-381
-452
-482
-495
-515
-526
-535
-561
-585
-600
-622
-657
-695
-732
-775
-815
-818
-782
-725
-635
-509
-374
-227
-65
56
113
139
136
92
53
62
75
51
31
44
56
57
75
98
92
71
65
73
73
63
48
32
29
33
25
13
20
28
29
41
52
52
60
72
72
64
53
45
61
82
69
54
93
156
182
166
133
106
96
84
74
75
61
60
103
93
43
120
263
395
663
802
376
-185
-240
-59
-77
-138
-97
-87
-128
-135
-112
-107
-118
-102
-60
-46
-68
-71
-40
-2
25
44
70
121
180
216
229
239
237
209
168
132
89
25
-34
-65
-87
-109
-116
-119
-131
-128
-115
-117
-121
-112
-99
-79
-61
-68
-66
-26
0
-20
-48
-62
-84
-107
-107
-90
-92
-114
-117
-124
-146
-89
40
132
209
216
-43
-396
-457
-288
-187
-176
-171
-166
-145
-111
-97
-92
-76
-64
-56
-34
-13
-16
-22
9
63
107
147
195
246
292
325
335
319
273
202
121
48
-5
-36
-62
-91
-103
-100
-107
-123
-128
-122
-121
-129
-131
-122
-106
-86
-70
-50
-6
38
44
23
5
-2
2
9
11
13
9
14
46
40
11
89
228
362
607
748
376
-172
-269
-87
-60
-113
-89
-64
-72
-85
-101
-102
-86
-79
-75
-64
-65
-63
-30
8
31
75
141
184
214
264
306
312
298
266
199
109
28
-34
-88
-131
-142
-132
-134
-149
-153
-148
-148
-149
-136
-109
-90
-104
-133
-116
-51
-6
-1
-6
-30
-74
-88
-72
-60
-47
-42
-44
-24
-36
-65
44
232
358
568
717
327
-298
-415
-179
-131
-189
-153
-140
-178
-165
-144
-173
-172
-118
-107
-137
-109
-60
-64
-56
0
51
103
178
237
283
337
353
309
240
157
55
-42
-107
-136
-148
-162
-171
-169
-164
-156
-144
-136
-128
-118
-124
-131
-116
-106
-133
-148
-99
-25
3
-11
-30
-46
-55
-48
-26
-1
3
5
43
44
-4
69
242
382
662
971
701
-6
-290
-113
-53
-108
-58
-36
-93
-100
-79
-88
-79
-49
-47
-57
-46
-30
-21
-6
27
65
99
152
226
281
310
335
326
270
205
143
62
-16
-60
-99
-147
-161
-144
-157
-182
-160
-125
-119
-105
-81
-94
-124
-115
-89
-87
-82
-46
-9
-3
-17
-36
-53
-62
-65
-67
-56
-49
-55
-39
-28
-63
-26
112
224
403
639
477
-86
-370
-231
-138
-175
-153
-128
-151
-149
-137
-145
-135
-119
-126
-123
-90
-59
-54
-39
9
44
49
92
187
248
256
269
288
257
165
75
31
-8
-77
-133
-140
-125
-117
-122
-127
-115
-95
-85
-77
-76
-83
-80
-67
-64
-66
-65
-56
-35
-15
-18
-36
-53
-70
-78
-73
-63
-55
-52
-40
-17
-25
-33
47
155
245
414
483
162
-249
-284
-115
-85
-121
-95
-76
-80
-65
-65
-87
-78
-40
-23
-27
-27
-18
2
26
46
75
111
139
187
288
439
606
702
650
507
374
262
164
111
85
45
6
-14
-37
-60
-66
-70
-83
-88
-91
-111
-134
-127
-93
-75
-93
-100
-62
-28
-49
-94
-115
-118
-126
-130
-105
-93
-120
-117
-82
-96
-71
71
196
332
538
441
-73
-406
-299
-173
-203
-207
-174
-172
-183
-195
-200
-186
-178
-182
-179
-162
-145
-137
-120
-76
-27
10
59
130
197
246
279
287
261
205
115
13
-62
-105
-133
-154
-175
-191
-178
-151
-153
-159
-139
-136
-155
-134
-93
-101
-122
-92
-38
-2
8
-16
-60
-89
-98
-102
-93
-72
-70
-69
-32
-35
-70
34
223
351
592
840
542
-109
-309
-90
-26
-101
-61
-2
-19
-26
-12
-22
-22
11
27
19
31
47
43
61
117
154
169
223
306
350
360
378
386
337
244
149
71
3
-40
-57
-92
-131
-112
-65
-36
28
136
279
524
806
996
1242
1576
1516
847
114
-222
-309
-377
-428
-456
-488
-505
-509
-523
-543
-562
-597
-646
-687
-721
-764
-804
-813
-792
-744
-655
-518
-350
-181
-36
81
165
187
150
112
99
87
61
39
31
14
-10
-10
13
22
13
3
0
-1
-8
-20
-26
-32
-39
-37
-40
-54
-39
-7
-19
-36
-3
20
-5
-15
0
-2
-3
17
38
44
39
39
45
32
12
28
52
39
28
65
111
118
87
51
35
33
30
43
54
46
69
100
69
98
249
395
617
911
776
157
-205
-81
26
-24
-19
2
-31
-46
-40
-31
-10
-12
-33
-23
-13
-28
-13
33
57
61
79
119
159
173
182
211
214
173
145
138
100
37
-13
-52
-96
-129
-137
-131
-129
-129
-127
-128
-128
-117
-109
-118
-125
-110
-92
-100
-105
-60
-1
-1
-40
-60
-66
-73
-78
-81
-70
-60
-68
-59
-50
-78
-39
101
214
322
409
196
-229
-367
-197
-111
-152
-152
-136
-151
-153
-142
-149
-155
-133
-110
-116
-121
-95
-67
-54
-22
28
73
122
188
239
262
280
281
246
195
134
51
-31
-78
-102
-119
-127
-130
-133
-127
-124
-138
-144
-126
-106
-96
-88
-77
-55
-28
-24
-32
-7
34
37
6
-31
-58
-68
-71
-78
-72
-64
-67
-45
-26
-54
-16
123
236
377
530
347
-122
-309
-145
-49
-76
-50
-16
-35
-46
-27
-6
9
15
15
28
52
69
83
96
101
119
164
205
240
296
355
375
352
316
269
195
101
25
-20
-52
-84
-118
-149
-159
-142
-130
-138
-140
-134
-150
-167
-144
-109
-106
-113
-83
-36
-23
-47
-77
-103
-117
-105
-89
-78
-68
-71
-60
-39
-65
-39
131
275
417
689
666
85
-354
-216
-39
-113
-134
-60
-69
-108
-93
-81
-92
-83
-70
-72
-63
-53
-62
-54
-5
47
79
126
206
285
320
329
335
314
238
122
9
-66
-115
-155
-174
-182
-204
-211
-184
-175
-187
-180
-171
-174
-157
-113
-63
-34
-36
34
285
559
547
166
-357
-713
-770
-640
-486
-354
-228
-129
-94
-106
-102
-69
-54
-67
-61
-34
-23
-26
-13
23
69
133
227
335
445
569
672
699
672
629
543
428
332
248
152
66
5
-15
-10
-20
7
117
212
291
476
674
811
1094
1407
1221
526
-96
-375
-484
-554
-589
-603
-624
-656
-671
-669
-695
-759
-815
-837
-843
-863
-903
-921
-881
-824
-775
-697
-599
-513
-395
-235
-118
-74
-40
-1
11
7
11
25
48
73
81
85
104
119
124
131
131
130
145
143
120
128
161
155
120
104
105
108
117
122
119
121
135
150
144
124
124
150
180
197
204
207
213
231
251
262
272
285
291
298
298
288
305
343
341
318
336
358
341
332
353
377
382
369
368
412
463
457
422
402
378
353
362
379
357
344
363
353
353
458
596
713
843
779
393
92
177
341
346
328
349
355
369
388
389
394
301
-51
-561
-995
-1317
-1571
-1743
-1868
-1982
-2043
-2086
-2164
-2130
-1863
-1525
-1291
-1120
-948
-801
-699
-632
-586
-544
-502
-448
-369
-299
-257
-207
-150
-117
-80
-11
44
56
67
104
149
188
205
220
270
335
363
359
349
337
334
339
346
372
392
391
410
411
382
469
650
790
1036
1280
971
284
41
249
324
244
260
299
264
228
234
224
180
181
234
245
209
199
208
202
210
242
277
334
415
455
454
463
453
391
321
236
104
1
-25
-61
-126
-143
-139
-184
-217
-187
-182
-238
-253
-217
-212
-220
-201
-201
-209
-170
-137
-158
-165
-157
-203
-266
-284
-283
-286
-291
-311
-324
-325
-310
-202
-33
118
310
401
91
-347
-383
-169
-109
-128
-87
-78
-95
-76
-72
-82
-51
-24
-30
-16
16
30
36
50
70
104
141
182
252
325
344
322
304
276
211
125
55
3
-53
-100
-125
-136
-130
-126
-142
-139
-102
-84
-94
-94
-93
-94
-78
-66
-66
-41
-2
4
-17
-36
-49
-52
-47
-42
-34
-35
-40
-18
-11
-44
-6
118
203
271
288
38
-323
-373
-191
-122
-147
-127
-107
-114
-112
-114
-121
-106
-82
-77
-87
-86
-63
-33
-14
4
34
68
115
187
252
282
293
293
258
184
98
28
-25
-74
-107
-110
-108
-122
-134
-128
-117
-106
-99
-110
-120
-102
-74
-68
-63
-27
18
40
39
20
-10
-24
-27
-46
-64
-64
-58
-41
-42
-104
-102
65
235
392
639
604
54
-383
-291
-115
-132
-135
-94
-100
-95
-63
-58
-57
-32
-9
-6
3
31
43
39
67
119
158
204
276
339
367
377
391
375
297
196
115
35
-53
-102
-112
-128
-141
-117
-82
-58
-21
22
115
358
667
890
1177
1611
1713
1111
271
-201
-340
-419
-481
-504
-511
-503
-490
-500
-519
-522
-523
-539
-560
-579
-603
-617
-605
-575
-526
-437
-316
-184
-44
81
150
162
154
137
106
70
44
36
27
-2
-30
-34
-35
-52
-70
-62
-48
-60
-72
-58
-66
-102
-105
-84
-89
-93
-66
-42
-40
-38
-38
-44
-36
-14
-2
6
8
-16
-37
-12
29
29
9
34
107
161
162
137
116
105
98
96
100
91
76
92
92
51
80
190
296
432
491
203
-217
-282
-86
-5
-17
3
9
0
16
28
25
38
56
60
59
62
71
87
107
132
160
185
213
259
286
241
156
108
106
105
78
28
-25
-61
-91
-130
-161
-166
-166
-177
-181
-168
-154
-145
-136
-141
-145
-126
-112
-112
-80
-33
-31
-57
-81
-107
-120
-112
-102
-94
-101
-124
-109
-93
-126
-75
93
228
395
563
321
-231
-414
-202
-106
-152
-123
-99
-126
-102
-61
-73
-71
-37
-40
-57
-28
-1
0
35
81
98
143
226
296
356
410
413
379
333
242
115
4
-82
-135
-150
-169
-199
-206
-201
-197
-184
-188
-210
-199
-162
-151
-156
-136
-91
-46
-13
-8
-37
-71
-80
-81
-80
-57
-41
-45
-16
-3
-52
10
193
294
459
743
585
-80
-436
-270
-149
-208
-205
-165
-164
-151
-130
-123
-109
-91
-78
-62
-43
-16
28
58
68
104
173
230
284
359
409
402
377
354
292
193
107
51
5
-28
-51
-89
-115
-93
-72
-86
-81
-36
14
54
104
256
540
768
904
1191
1482
1268
605
46
-227
-374
-439
-431
-435
-466
-479
-478
-491
-511
-520
-532
-564
-602
-619
-614
-606
-595
-562
-490
-379
-253
-131
-23
64
124
152
136
95
62
39
20
7
-6
-15
-13
-8
-5
-2
0
1
1
-12
-33
-37
-23
-20
-30
-41
-49
-48
-33
-37
-54
-50
-46
-56
-45
-29
-45
-55
-30
0
15
12
17
66
117
102
54
36
42
41
37
46
52
51
61
51
33
98
228
360
535
577
228
-213
-268
-92
-52
-95
-82
-63
-68
-67
-66
-66
-54
-43
-38
-22
1
19
41
73
100
126
169
225
278
324
357
376
381
372
344
296
238
169
86
19
-1
-5
-41
-80
-84
-82
-89
-81
-74
-68
3
133
253
435
732
980
1143
1368
1446
1014
299
-190
-376
-454
-481
-476
-487
-505
-512
-531
-559
-578
-595
-625
-661
-699
-737
-762
-775
-775
-742
-666
-563
-430
-272
-130
-28
50
99
95
56
23
12
-3
-31
-44
-26
-13
-21
-18
4
14
7
5
11
7
-10
-9
24
40
15
1
19
18
-4
-2
20
34
20
-10
-8
32
37
13
44
121
162
153
132
119
116
112
111
137
160
154
154
144
119
195
352
467
683
972
803
171
-171
-22
113
77
71
98
71
