# session 95
10
-38
-81
-119
-125
-114
-133
-136
-98
-124
-156
-46
72
171
478
667
240
-322
-367
-196
-212
-238
-175
-160
-182
-172
-157
-154
-141
-106
-72
-58
-38
6
40
68
139
221
254
257
262
251
211
136
25
-72
-112
-133
-160
-170
-175
-201
-211
-184
-162
-167
-169
-156
-127
-82
-52
-63
-87
-99
-108
-96
-65
-65
-67
-39
-55
-70
37
152
233
417
457
65
-332
-307
-156
-164
-182
-139
-122
-118
-103
-104
-101
-75
-58
-43
-6
26
41
75
138
198
240
275
301
302
273
227
171
125
116
130
131
153
252
359
362
289
250
254
225
165
149
181
184
126
61
25
-4
-54
-112
-150
-161
-145
-132
-134
-76
32
115
254
395
193
-262
-441
-312
-249
-282
-274
-271
-302
-320
-321
-308
-294
-300
-298
-268
-245
-232
-200
-153
-106
-57
-18
3
16
8
-36
-104
-182
-259
-311
-339
-368
-381
-346
-304
-300
-291
-222
-124
-49
30
177
368
496
542
578
605
573
527
521
491
428
389
307
199
269
429
476
609
759
400
-223
-343
-106
-76
-162
-143
-138
-172
-156
-144
-168
-172
-159
-148
-121
-98
-84
-35
24
56
112
204
262
276
260
194
96
7
-76
-142
-182
-221
-251
-242
-228
-233
-228
-205
-183
-167
-153
-108
-15
60
93
157
244
324
475
660
763
954
1360
1574
1177
419
-166
-410
-466
-470
-464
-478
-507
-514
-509
-530
-567
-593
-606
-626
-672
-722
-747
-758
-758
-709
-598
-452
-292
-141
-19
62
98
112
119
102
65
42
51
66
58
36
40
66
71
51
39
52
73
62
28
49
132
182
163
125
96
71
65
78
61
37
73
83
17
68
222
292
527
983
928
203
-272
-179
-95
-171
-160
-107
-107
-93
-68
-74
-77
-55
-36
-31
-18
15
52
92
152
222
268
302
344
373
363
321
258
165
63
-3
-36
-66
-84
-90
-106
-124
-113
-78
-60
-63
-38
41
131
178
201
286
451
605
752
980
1167
1047
595
62
-309
-459
-490
-516
-542
-529
-503
-514
-546
-559
-556
-566
-599
-647
-685
-701
-707
-706
-659
-548
-407
-268
-137
-28
50
88
92
86
68
35
29
53
46
18
32
69
73
52
45
66
84
61
21
31
70
67
44
67
114
122
102
89
80
71
74
85
84
80
96
93
67
116
224
311
471
608
362
-109
-249
-82
-5
-31
-18
-3
-1
19
17
-6
-1
23
35
45
50
53
78
118
151
182
217
250
281
294
269
225
174
104
31
-18
-52
-81
-102
-129
-160
-171
-158
-129
-89
-58
-17
91
240
374
522
683
823
1016
1238
1191
727
138
-247
-400
-443
-463
-490
-511
-510
-504
-516
-559
-619
-657
-676
-718
-777
-814
-839
-850
-795
-663
-504
-343
-167
5
123
163
158
146
129
104
86
75
59
51
67
76
62
61
70
59
54
69
62
36
25
32
36
17
4
51
126
147
127
119
102
50
29
71
100
88
79
53
44
161
311
412
634
795
431
-132
-221
-34
-37
-88
-37
-36
-86
-91
-76
-55
-46
-87
-115
-54
12
0
-9
83
211
266
280
324
374
374
310
194
85
33
-16
-112
-191
-203
-179
-171
-205
-240
-201
-133
-136
-165
-118
-35
-8
-40
-89
-126
-149
-171
-190
-202
-200
-191
-224
-268
-179
0
108
238
364
138
-306
-402
-177
-68
-85
-51
-6
9
32
63
84
96
132
230
322
310
249
255
302
319
339
392
425
397
336
264
173
68
-29
-107
-157
-184
-198
-205
-210
-225
-229
-199
-155
-128
-106
-64
24
161
294
409
548
703
875
1146
1452
1476
1000
265
-274
-469
-510
-548
-569
-569
-582
-609
-627
-628
-648
-716
-783
-803
-812
-848
-876
-862
-804
-698
-539
-361
-209
-83
32
103
105
93
98
81
47
41
45
38
49
67
62
57
69
74
80
98
88
49
48
81
85
60
63
116
169
170
150
154
157
127
111
121
111
116
152
120
86
195
304
383
646
789
368
-159
-203
-42
-37
-63
-54
-89
-104
-64
-49
-60
-48
-27
-12
11
34
51
86
143
195
240
292
339
356
337
297
250
193
117
42
-10
-54
-87
-86
-82
-112
-121
-69
-21
-1
48
120
216
418
648
743
862
1149
1213
758
160
-193
-363
-460
-479
-468
-472
-480
-489
-500
-508
-527
-557
-582
-607
-632
-640
-630
-596
-522
-409
-279
-145
-23
58
88
86
67
25
-29
-56
-58
-67
-78
-65
-54
-67
-71
-57
-58
-68
-58
-48
-67
-90
-86
-80
-97
-106
-86
-77
-101
-111
-70
-10
4
-35
-66
-60
-60
-64
-46
-34
-22
-2
-20
2
142
259
372
624
645
145
-301
-243
-75
-95
-123
-88
-67
-58
-49
-35
-1
31
51
72
96
129
176
223
270
323
372
423
471
485
458
397
300
195
114
35
-40
-78
-87
-99
-121
-143
-122
-51
4
41
131
291
539
832
1018
1161
1491
1776
1510
769
85
-276
-408
-467
-505
-494
-467
-507
-569
-577
-576
-619
-682
-726
-751
-786
-836
-842
-770
-661
-540
-397
-240
-93
20
72
73
53
21
-21
-37
-31
-52
-68
-15
33
39
155
348
438
606
1040
1328
1029
365
-199
-476
-507
-413
-316
-280
-283
-267
-206
-161
-196
-273
-317
-339
-385
-426
-411
-365
-306
-196
-52
57
126
188
220
188
130
97
61
3
-31
-28
-27
-29
-23
-23
-21
-2
9
1
-15
-32
-39
-36
-38
-18
33
65
64
74
100
113
110
101
95
80
55
52
58
29
2
19
32
19
0
-18
-10
22
28
33
73
98
86
70
52
32
35
42
38
50
54
29
47
135
228
383
550
390
-86
-332
-199
-83
-107
-99
-66
-70
-63
-41
-36
-32
-21
-12
8
37
60
89
130
165
200
249
299
323
320
309
295
258
199
154
122
63
-1
-17
-7
-18
-33
-34
-32
-13
21
42
73
146
272
451
619
732
883
1039
931
506
58
-215
-349
-410
-437
-467
-508
-536
-545
-558
-590
-624
-655
-691
-722
-741
-760
-760
-707
-609
-494
-361
-219
-97
-12
31
32
12
-13
-43
-63
-63
-66
-74
-68
-58
-60
-62
-49
-37
-36
-34
-23
-19
-27
-32
-36
-39
-28
-26
-47
-43
17
83
106
87
45
21
17
-1
-16
-1
18
25
11
10
103
246
397
644
745
328
-221
-278
-63
-32
-86
-57
-39
-59
-56
-42
-29
-7
4
3
31
81
108
127
190
296
390
451
502
533
506
436
360
274
180
87
-4
-62
-65
-77
-127
-129
-80
-74
-93
-58
34
155
297
454
632
801
951
1177
1419
1336
805
186
-183
-337
-421
-457
-445
-429
-440
-478
-527
-540
-510
-533
-637
-696
-678
-712
-799
-792
-697
-612
-498
-299
-124
-45
28
111
103
33
13
14
-30
-58
-37
-38
-51
-29
-26
-42
39
181
209
116
63
124
227
273
235
207
327
560
744
856
826
382
-352
-769
-695
-510
-386
-255
-179
-193
-205
-192
-200
-220
-231
-241
-244
-241
-239
-221
-178
-117
-49
29
125
223
274
280
276
245
175
118
85
36
-8
-10
-12
-33
-30
-7
-6
-19
-26
-26
-18
-25
-49
-55
-48
-65
-82
-76
-69
-75
-82
-62
9
84
91
58
41
18
-12
-5
11
17
42
31
-9
86
242
311
519
792
544
-85
-302
-106
-35
-93
-83
-78
-102
-80
-63
-87
-85
-50
-36
-36
-11
23
46
92
164
218
258
317
360
352
314
260
192
117
36
-39
-81
-97
-100
-103
-123
-145
-130
-90
-72
-76
-62
-15
28
22
-20
-47
-55
-65
-66
-66
-72
-55
-51
-104
-86
41
129
284
577
536
10
-355
-291
-222
-272
-248
-201
-218
-217
-183
-175
-175
-150
-128
-129
-120
-82
-39
0
47
103
153
196
230
250
242
192
109
24
-34
-62
-74
-82
-91
-103
-108
-97
-78
-61
-49
-39
-26
-7
11
12
-17
-49
-43
-28
-19
63
203
282
342
511
700
664
292
-203
-462
-413
-312
-294
-278
-243
-248
-272
-258
-239
-271
-319
-322
-308
-321
-330
-313
-288
-254
-188
-97
-2
87
164
216
237
224
181
122
68
30
4
-11
-8
6
18
26
33
43
58
84
106
101
93
119
146
131
94
73
63
57
56
52
48
64
66
25
51
174
268
417
669
604
84
-278
-189
-54
-65
-63
-45
-64
-67
-46
-37
-36
-21
3
20
26
43
85
136
184
226
275
333
370
368
347
312
237
123
16
-52
-81
-97
-124
-152
-167
-180
-180
-158
-159
-176
-130
-47
-28
-59
-88
-125
-152
-140
-131
-150
-162
-128
-92
-111
-59
137
262
306
468
438
-51
-436
-341
-208
-266
-271
-206
-202
-215
-202
-194
-190
-186
-180
-155
-127
-113
-81
-23
28
81
170
265
301
278
238
181
88
-20
-91
-124
-151
-178
-193
-202
-214
-210
-182
-167
-190
-198
-136
-58
-35
-52
-77
-111
-133
-122
-108
-120
-105
-43
-53
-126
-42
152
216
314
537
412
-105
-351
-192
-98
-152
-146
-108
-106
-88
-54
-50
-48
-12
20
17
20
59
112
171
238
300
355
402
424
405
345
261
176
83
-21
-85
-87
-86
-106
-106
-87
-97
-106
-53
16
48
129
288
420
558
783
988
1185
1567
1939
1804
1129
371
-136
-375
-455
-481
-502
-518
-527
-539
-556
-588
-640
-689
-721
-756
-807
-866
-909
-887
-795
-684
-566
-403
-221
-80
19
77
91
174
406
613
729
1008
1328
1126
455
-19
-137
-220
-314
-320
-314
-331
-328
-337
-363
-351
-322
-340
-380
-368
-287
-192
-126
-66
20
111
174
193
169
132
106
83
53
29
17
11
14
17
14
6
1
-2
-9
-24
-34
-31
-29
-34
-40
-44
-38
-32
-46
-62
-49
-37
-51
-61
-53
-45
-39
-39
-56
-70
-53
-33
-31
-23
0
12
15
22
28
27
26
21
5
5
27
27
12
52
118
119
77
57
50
45
53
65
90
109
88
91
178
297
431
522
341
-59
-250
-135
-27
-23
-14
-5
-21
-19
-7
-13
-21
-14
-3
8
27
53
75
105
156
206
243
282
308
302
285
256
199
137
90
43
-4
-46
-87
-113
-111
-109
-122
-121
-90
-57
-46
-47
-32
2
15
-16
-59
-84
-104
-116
-111
-113
-118
-110
-133
-147
-55
75
206
391
371
-59
-439
-386
-228
-237
-243
-198
-203
-206
-176
-169
-174
-156
-144
-141
-118
-77
-37
7
71
147
218
289
346
351
298
211
108
4
-82
-150
-199
-222
-220
-209
-205
-213
-204
-178
-172
-167
-118
-54
-23
-25
-55
-91
-97
-87
-79
-79
-91
-74
-40
-52
-2
166
278
372
526
364
-166
-397
-176
-51
-129
-132
-88
-88
-76
-77
-99
-64
-14
-25
-21
34
55
67
157
263
312
361
425
441
415
371
272
128
21
-38
-95
-141
-149
-150
-168
-171
-140
-99
-65
-43
-25
30
130
201
208
220
282
399
571
731
858
1116
1523
1664
1198
405
-186
-417
-470
-491
-506
-505
-491
-496
-533
-559
-561
-585
-625
-637
-653
-716
-767
-754
-712
-653
-527
-338
-170
-61
30
111
133
100
71
59
36
25
33
17
-3
30
61
35
16
33
11
-40
-35
2
-7
-20
33
100
114
99
83
44
9
39
84
68
60
86
49
26
121
207
392
820
923
314
-262
-246
-96
-131
-143
-106
-126
-132
-102
-98
-100
-75
-50
-41
-27
10
56
98
144
204
264
308
337
346
320
264
199
111
0
-83
-120
-148
-169
-165
-169
-194
-186
-150
-144
-149
-101
-28
20
62
119
211
361
511
616
773
977
984
656
176
-205
-394
-446
-458
-464
-453
-447
-466
-475
-473
-511
-575
-605
-612
-651
-700
-699
-660
-616
-528
-375
-201
-48
63
128
183
241
280
354
452
463
523
825
1057
886
586
403
162
-112
-201
-184
-199
-188
-144
-139
-167
-179
-165
-161
-203
-265
-301
-312
-298
-249
-180
-101
5
118
193
220
214
200
199
199
173
147
153
160
146
134
134
133
130
127
124
121
109
97
95
94
89
84
76
72
77
82
97
130
162
205
267
285
319
495
704
858
1071
1058
385
-478
-773
-642
-529
-428
-324
-323
-342
-294
-266
-307
-361
-399
-440
-476
-480
-455
-431
-400
-343
-273
-198
-111
-35
13
53
90
104
88
64
55
50
20
-15
-17
-11
-20
-21
-19
-39
-51
-28
-12
-24
-28
-22
-33
-40
-24
-22
-39
-40
-31
-44
-58
-48
-39
-51
-58
-54
-67
-88
-72
-46
-64
-87
-82
-94
-101
-39
52
84
44
-11
-28
-2
6
-35
-52
3
21
-11
67
223
329
493
606
276
-247
-333
-112
-54
-105
-79
-44
-35
-16
1
5
10
19
32
49
73
110
157
212
290
371
420
447
465
449
396
330
253
166
85
4
-66
-100
-105
-105
-104
-106
-99
-59
-5
6
3
59
131
122
58
28
21
-6
-10
23
39
66
135
187
272
466
674
881
1033
769
119
-277
-257
-256
-347
-318
-253
-290
-341
-333
-319
-340
-355
-347
-358
-384
-373
-340
-329
-317
-267
-208
-170
-130
-74
-44
-64
-101
-119
-136
-162
-175
-167
-159
-160
-167
-161
-122
-81
-76
-63
-8
37
39
16
-26
-58
-46
-34
-56
-60
-40
-52
-77
-60
38
299
551
339
-263
-559
-353
-140
-136
-152
-126
-120
-125
-122
-112
-90
-73
-65
-54
-27
11
46
81
133
203
283
361
422
452
448
402
318
213
114
50
18
-10
-32
-30
-14
-7
-8
5
41
69
70
75
107
137
128
89
67
79
