# session 161
29
139
183
312
487
377
9
-167
-69
-8
-49
-59
-39
-41
-63
-73
-51
-35
-52
-41
16
37
18
46
118
164
199
260
318
349
369
383
378
349
304
249
189
136
102
91
89
76
57
66
106
149
194
244
316
489
734
868
963
1245
1443
1115
457
-26
-235
-322
-366
-388
-400
-413
-441
-466
-473
-487
-508
-528
-562
-605
-630
-641
-651
-646
-605
-521
-410
-298
-191
-97
-34
-1
23
21
-26
-73
-78
-78
-100
-98
-67
-66
-85
-68
-50
-70
-83
-74
-79
-90
-94
-119
-150
-149
-140
-158
-163
-112
-40
-10
-27
-44
-48
-67
-78
-51
-35
-36
-12
-9
-6
116
255
351
588
728
324
-216
-255
-61
-66
-113
-73
-72
-100
-87
-73
-73
-57
-38
-32
-20
0
16
30
52
92
167
252
288
287
319
359
337
270
196
115
44
-10
-56
-69
-74
-123
-152
-106
-80
-118
-117
-37
43
74
63
32
4
1
21
37
26
18
45
48
7
54
202
320
450
562
339
-135
-327
-182
-87
-118
-127
-104
-82
-76
-91
-89
-69
-68
-63
-31
-10
-7
18
63
102
149
214
273
310
333
340
309
244
162
67
1
-15
-43
-99
-112
-108
-156
-186
-142
-114
-136
-135
-90
-34
-9
-53
-125
-133
-89
-67
-87
-118
-117
-118
-152
-109
0
58
267
664
630
20
-383
-296
-213
-273
-268
-237
-256
-258
-240
-234
-222
-201
-182
-163
-145
-117
-77
-51
-32
20
85
129
166
194
190
187
188
126
29
-10
-17
-50
-75
-81
-104
-121
-96
-71
-76
-77
-52
-22
0
9
-5
-32
-54
-57
-39
-38
-63
-46
-6
-39
-52
39
109
240
543
581
105
-266
-163
-31
-103
-142
-99
-82
-82
-84
-87
-66
-46
-47
-37
-14
2
22
60
102
133
156
187
229
262
279
283
262
214
157
111
82
67
55
36
21
18
24
34
50
51
45
74
126
135
101
72
56
40
34
23
0
10
27
-10
-22
45
102
219
439
407
-5
-294
-214
-109
-147
-170
-145
-144
-153
-151
-154
-158
-159
-168
-185
-186
-155
-121
-109
-88
-38
11
45
78
102
106
96
76
42
-6
-57
-97
-122
-129
-133
-152
-169
-157
-137
-136
-139
-111
-55
-16
-27
-67
-94
-108
-114
-101
-102
-133
-123
-83
-107
-104
31
180
293
350
133
-273
-393
-209
-107
-120
-108
-110
-130
-115
-93
-81
-54
-40
-41
-14
32
62
85
111
146
210
305
379
411
423
419
397
362
292
183
96
65
51
26
0
-22
-40
-41
-37
-50
-69
-60
-20
21
26
-8
-47
-67
-72
-66
-63
-66
-31
6
-38
-49
96
241
336
471
396
-19
-291
-180
-55
-88
-109
-81
-72
-79
-86
-85
-71
-60
-66
-64
-30
6
20
43
84
117
149
192
227
255
277
258
209
167
109
25
-37
-78
-119
-125
-105
-136
-187
-169
-136
-165
-185
-122
-46
-38
-81
-115
-135
-166
-184
-166
-150
-144
-130
-140
-135
-44
28
83
291
392
48
-335
-310
-173
-207
-240
-208
-208
-207
-190
-199
-202
-176
-175
-184
-144
-93
-86
-71
-11
43
85
158
220
216
203
228
222
161
123
98
30
-9
31
51
14
-1
20
44
73
83
72
102
165
179
141
111
91
66
61
60
27
10
28
10
-5
65
142
251
499
585
216
-194
-221
-109
-115
-123
-97
-105
-94
-59
-76
-109
-94
-77
-83
-63
-24
-3
19
43
60
104
169
203
219
244
245
208
163
127
99
74
43
26
28
12
-18
-22
-17
-34
-43
-4
47
57
31
8
1
-19
-50
-49
-28
-38
-52
-43
-68
-94
-57
-3
139
443
522
104
-324
-347
-249
-274
-295
-273
-278
-286
-277
-275
-270
-258
-250
-235
-206
-179
-155
-120
-75
-29
12
49
85
113
121
111
94
63
17
-25
-60
-90
-108
-114
-120
-129
-131
-115
-91
-91
-99
-63
-8
-10
-43
-50
-66
-102
-101
-95
-120
-89
-29
-73
-96
43
170
238
369
323
-40
-260
-123
-5
-44
-40
14
24
18
26
32
30
28
44
79
107
122
138
159
189
240
309
366
386
383
379
369
337
267
171
88
40
20
10
-17
-55
-50
-21
-23
-28
8
91
223
337
405
558
799
956
1121
1431
1526
1030
270
-205
-341
-379
-417
-445
-469
-477
-472
-491
-535
-567
-591
-622
-658
-693
-723
-742
-750
-743
-737
-722
-626
-440
-263
-145
-58
6
40
50
35
-3
-37
-43
-32
-28
-29
-19
-4
-2
-2
10
24
18
-5
-16
-6
-7
-38
-47
1
54
63
49
33
-3
-33
-16
4
-22
-18
27
-6
-39
90
226
296
485
542
141
-237
-148
-1
-71
-74
17
6
-33
-16
-18
-18
18
16
-9
23
69
76
91
127
163
213
284
359
412
413
374
348
331
276
190
123
87
56
16
-16
-31
-33
-24
-16
-21
-4
46
77
57
14
-18
-40
-60
-61
-55
-65
-62
-55
-90
-95
-21
56
213
471
442
27
-256
-214
-165
-183
-169
-182
-207
-176
-161
-190
-193
-169
-162
-161
-149
-122
-89
-61
-33
1
34
62
96
123
116
79
38
-1
-46
-92
-126
-135
-124
-118
-125
-123
-101
-66
-41
-32
-14
31
65
49
12
-10
-28
-51
-59
-63
-81
-79
-69
-105
-112
-26
47
144
336
316
-64
-336
-243
-121
-145
-147
-102
-103
-128
-121
-96
-81
-71
-55
-38
-12
25
60
88
120
162
215
270
319
357
381
377
336
273
215
167
120
86
76
71
48
22
18
31
21
-4
6
44
49
7
-42
-66
-69
-74
-80
-92
-109
-89
-60
-83
-68
42
138
283
490
360
-121
-341
-188
-110
-155
-134
-115
-144
-137
-115
-136
-151
-128
-112
-114
-85
-36
-21
-11
34
87
131
186
235
252
241
204
145
79
2
-85
-149
-171
-168
-171
-190
-205
-194
-179
-180
-174
-147
-108
-75
-74
-104
-130
-145
-158
-147
-121
-119
-103
-78
-113
-109
35
171
252
347
228
-170
-387
-254
-136
-159
-161
-135
-130
-132
-149
-158
-126
-102
-110
-91
-39
-11
0
43
115
171
206
255
322
360
358
350
322
254
191
155
105
60
49
33
28
62
65
29
49
121
201
300
417
575
782
947
1136
1521
1823
1554
826
165
-211
-394
-463
-481
-518
-551
-543
-528
-533
-536
-543
-580
-629
-661
-675
-683
-707
-725
-682
-585
-474
-331
-158
-19
67
121
131
111
112
104
58
38
64
61
31
37
43
17
12
20
-13
-36
-13
-36
-100
-104
-65
-63
-73
-40
19
43
6
-36
-37
-35
-41
-19
-7
-41
-60
-66
-93
-68
2
77
298
554
381
-110
-300
-161
-104
-146
-121
-74
-70
-87
-98
-82
-59
-66
-86
-89
-74
-41
-7
11
32
70
108
140
173
203
218
203
177
162
138
95
70
62
36
6
2
16
51
91
86
62
95
148
149
124
103
73
41
22
19
21
22
29
13
-42
-44
31
141
345
503
285
-117
-217
-96
-80
-115
-94
-87
-99
-91
-91
-97
-88
-81
-84
-76
-53
-24
6
37
78
124
157
181
202
201
176
146
112
66
22
-2
-11
-20
-31
-48
-72
-80
-50
-27
-47
-56
-8
33
11
-30
-39
-47
-80
-101
-95
-120
-144
-99
-86
-157
-149
-36
116
360
468
131
-288
-322
-202
-231
-271
-234
-215
-226
-232
-225
-201
-174
-157
-136
-109
-83
-54
-16
37
97
145
183
223
247
245
236
218
176
118
60
10
-14
-15
-26
-62
-86
-77
-56
-56
-77
-88
-42
40
47
-33
-77
-66
-89
-112
-84
-76
-90
-69
-66
-76
8
132
200
236
129
-184
-357
-198
-31
-41
-53
-11
9
15
22
15
10
18
39
54
44
46
88
121
137
186
262
319
361
374
337
305
299
229
90
10
5
-21
-64
-72
-81
-102
-77
-46
-90
-124
-60
9
16
24
29
-17
-60
-56
-44
-49
-77
-88
-62
-70
-80
38
181
207
178
58
-191
-317
-214
-113
-94
-81
-97
-132
-119
-109
-149
-168
-130
-101
-107
-110
-76
-5
40
27
76
227
301
260
287
353
281
153
108
64
-15
-68
-120
-148
-106
-101
-172
-165
-92
-110
-157
-104
-28
-15
-15
-13
-48
-91
-111
-111
-89
-85
-107
-80
-39
-23
98
319
457
464
293
-72
-312
-228
-113
-149
-170
-113
-68
-64
-67
-59
-49
-41
-4
49
60
52
70
97
110
129
158
190
218
227
211
188
160
113
49
-7
-29
-32
-44
-55
-56
-64
-66
-44
-41
-71
-67
-1
66
76
41
2
-17
-27
-24
-15
-37
-56
-33
-39
-56
15
105
238
556
693
246
-270
-292
-157
-209
-249
-209
-226
-254
-228
-209
-220
-226
-218
-205
-189
-163
-126
-94
-57
-2
50
83
116
144
148
143
141
122
76
25
-1
-3
4
12
9
-8
-20
-11
-4
-20
-40
-28
15
41
12
-46
-82
-86
-78
-79
-98
-110
-84
-79
-111
-73
20
114
351
590
374
-126
-272
-102
-59
-120
-103
-76
-83
-73
-69
-84
-70
-32
-12
-5
5
20
56
106
143
185
252
320
365
372
338
287
238
178
111
58
15
-11
-13
-19
-41
-53
-52
-45
-36
-41
-35
22
75
56
14
-3
-27
-52
-36
-22
-51
-58
-30
-54
-83
-10
77
183
468
645
305
-182
-257
-124
-141
-195
-172
-170
-198
-199
-191
-197
-199
-197
-201
-193
-165
-143
-128
-88
-48
-49
-53
-5
58
77
65
53
41
15
-23
-56
-78
-100
-113
-103
-92
-93
-81
-39
-2
5
15
59
101
94
51
14
-8
-32
-51
-58
-76
-97
-85
-94
-133
-92
-1
78
298
520
287
-211
-344
-175
-128
-166
-134
-107
-114
-106
-94
-86
-71
-56
-38
-19
5
41
76
103
144
197
237
267
295
311
306
287
257
213
162
129
114
93
73
73
75
51
14
1
6
-7
-23
-1
40
40
-3
-43
-57
-67
-91
-104
-102
-105
-80
-48
-91
-99
35
169
312
532
451
-56
-366
-224
-99
-152
-160
-128
-136
-132
-119
-134
-134
-111
-115
-125
-82
-35
-34
-22
44
112
157
211
277
307
282
244
204
116
7
-48
-79
-132
-161
-156
-156
-153
-145
-152
-145
-128
-144
-153
-96
-25
-12
-47
-84
-98
-100
-101
-98
-92
-67
4
59
88
217
401
513
690
842
528
-88
-354
-271
-252
-294
-271
-259
-272
-257
-239
-234
-223
-218
-227
-236
-232
-221
-224
-235
-212
-151
-103
-82
-45
33
126
181
185
171
167
153
124
118
146
169
153
116
94
97
96
77
70
94
124
136
117
74
31
0
-18
-12
-9
-32
-21
29
14
3
102
194
316
614
697
242
-197
-181
-63
-83
-85
-68
-89
-79
-61
-80
-86
-71
-73
-75
-57
-33
-16
-10
3
41
80
105
138
168
157
127
111
90
41
-19
-59
-80
-101
-117
-108
-114
-166
-199
-160
-109
-105
-119
-107
-72
-53
-67
-96
-112
-113
-115
-111
-95
-92
-90
-67
-71
-97
-51
30
123
340
477
182
-258
-339
-212
-203
-227
-195
-188
-201
-193
-183
-173
-159
-152
-132
-100
-76
-50
-1
61
112
145
179
229
275
297
291
258
228
213
182
132
108
107
97
86
85
79
60
53
85
124
119
104
146
196
177
123
88
64
36
18
7
-10
-23
-20
-45
-85
-50
25
118
367
577
317
-181
-319
-176
-145
-191
-172
-151
-152
-142
-141
-140
-123
-112
-107
-86
-60
-43
-21
13
48
78
113
163
209
214
178
149
129
78
4
-43
-67
-97
-116
-113
-120
-143
-160
-174
-186
-182
-175
-167
-129
-62
-24
-49
-100
-119
-124
-142
-132
-115
-146
-143
-87
-113
-130
22
179
280
428
345
-98
-361
-218
-98
-140
-146
-134
-149
-125
-106
-134
-135
-103
-98
-93
-52
-26
-23
25
106
156
197
267
320
330
318
280
231
186
116
39
2
-17
-38
-32
-13
-18
-43
-52
-23
8
-15
-47
3
101
143
112
68
46
29
-8
-31
-18
-19
-36
-30
-51
-84
-5
125
237
446
553
222
-203
-222
-56
-47
-76
-48
-47
-57
-45
-49
-55
-45
-40
-32
-5
14
26
59
95
115
155
215
251
257
254
247
220
157
82
31
-3
-42
-75
-101
-119
-112
-104
-129
-147
-115
-89
-109
-121
-86
-39
-27
-56
-95
-118
-139
-156
-144
-141
-165
-156
-138
-164
-135
-13
152
477
820
644
25
-308
-224
-168
-220
-215
-188
-190
-186
-181
-189
-194
-191
-189
-181
-151
-118
-110
-97
-55
-27
-11
32
68
69
84
106
87
58
35
-6
-24
-1
-5
-34
-24
19
43
42
31
28
40
45
37
60
119
138
79
22
29
45
15
-11
-13
-27
-33
-18
-38
-58
-4
74
205
463
544
174
-242
-272
-147
-143
-150
-108
-108
-125
-104
-85
-88
-83
-71
-59
-35
-9
8
37
82
119
143
167
196
223
236
232
211
173
127
83
42
14
7
-8
-33
-37
-33
-61
-98
-99
-76
-63
-65
-51
-8
23
10
-31
-72
-93
-86
-72
-64
-65
-76
-76
-83
-130
-143
-88
-8
215
530
462
-30
-317
-213
-122
-149
-129
-96
-101
-88
-73
-87
-99
-87
-65
-45
-29
-7
26
56
86
127
173
217
259
280
277
274
256
195
129
84
39
7
7
7
-4
-4
-9
-33
-42
-19
5
8
6
30
80
115
92
32
-8
-23
-44
-53
-27
-26
-59
-49
-34
-79
-52
95
240
423
545
237
-279
-374
-165
-146
-244
-245
-239
-264
-264
-277
-312
-313
-284
-271
-276
-273
-255
-234
-192
-130
-91
-69
-22
13
-10
