# session 177
-6
-13
-2
8
9
11
14
15
25
46
59
57
61
87
117
131
153
194
217
211
217
240
245
225
189
135
80
34
-17
-68
-96
-107
-116
-122
-120
-101
-74
-63
-68
-67
-50
-31
-21
20
122
228
343
558
791
928
1068
1182
993
497
35
-214
-315
-342
-344
-353
-360
-360
-369
-380
-387
-397
-411
-429
-455
-487
-518
-547
-579
-607
-610
-575
-514
-441
-350
-239
-115
9
107
159
154
110
81
78
53
12
8
27
28
24
27
26
16
12
16
30
45
44
34
55
93
105
100
105
112
112
112
105
89
72
58
45
25
-10
-38
-30
-12
-16
-6
58
129
143
120
103
93
92
99
90
75
72
68
75
82
46
52
171
291
485
847
892
313
-212
-188
-46
-88
-112
-83
-110
-133
-127
-149
-171
-162
-160
-179
-185
-165
-136
-108
-85
-68
-42
3
39
52
87
153
195
193
179
165
136
88
31
-21
-61
-99
-131
-147
-150
-149
-138
-120
-100
-78
-38
31
99
179
365
615
783
949
1184
1159
659
61
-255
-357
-402
-404
-399
-429
-440
-399
-370
-387
-401
-392
-389
-398
-414
-436
-437
-421
-435
-456
-405
-305
-226
-144
-11
120
179
184
173
154
133
119
103
87
84
77
56
70
116
121
79
53
35
-4
-28
-22
-31
-59
-70
-61
-54
-44
-24
-10
-7
-1
20
37
34
29
42
58
57
47
46
43
28
18
33
48
29
14
61
121
117
75
41
15
3
0
-4
4
6
-23
-29
-14
-49
-59
27
131
312
567
501
10
-334
-263
-152
-188
-217
-203
-188
-153
-121
-117
-108
-94
-94
-88
-69
-55
-45
-29
-8
21
56
88
121
155
183
203
221
227
219
206
186
147
91
41
6
-29
-60
-76
-85
-91
-84
-86
-96
-78
-51
-49
-45
-35
-33
-5
38
58
124
253
367
497
645
719
831
1056
1069
691
242
-33
-193
-266
-252
-240
-261
-272
-270
-276
-291
-304
-315
-334
-356
-372
-398
-440
-468
-481
-499
-505
-480
-433
-363
-256
-124
8
122
196
223
210
171
123
88
69
57
45
35
26
13
-5
-18
-16
-3
5
3
-9
-24
-18
0
-11
-32
-23
-12
-23
-35
-43
-55
-69
-81
-71
-44
-44
-62
-45
-5
9
-2
-19
-48
-75
-64
-41
-52
-65
-58
-67
-61
-36
-63
-50
85
199
351
654
665
132
-298
-225
-92
-141
-166
-139
-150
-159
-155
-154
-142
-132
-133
-113
-86
-86
-81
-45
-17
3
47
103
151
207
268
317
351
370
370
356
329
283
212
140
96
74
45
12
-6
-16
-29
-35
-29
-17
-4
12
58
140
228
366
584
759
901
1154
1247
807
147
-210
-302
-358
-375
-351
-348
-355
-346
-334
-325
-323
-330
-337
-341
-353
-369
-386
-406
-422
-427
-419
-384
-312
-221
-117
-4
88
145
183
192
151
95
68
60
47
31
11
-8
-10
-7
-26
-44
-31
-20
-43
-63
-56
-50
-51
-46
-39
-42
-54
-61
-66
-86
-106
-110
-121
-136
-114
-73
-52
-47
-37
-30
-33
-41
-54
-71
-74
-58
-48
-57
-45
3
33
11
-28
-55
-75
-80
-75
-75
-72
-63
-61
-45
-29
-45
-19
80
189
365
543
374
-81
-284
-150
-49
-57
-49
-51
-67
-38
-11
-32
-59
-61
-47
-31
-22
-18
-12
-10
-5
22
61
95
132
183
247
304
332
338
354
368
347
298
244
183
121
77
48
15
-9
-18
-26
-24
-8
19
95
198
280
450
744
957
1123
1420
1492
954
220
-159
-254
-311
-351
-368
-388
-402
-402
-397
-396
-412
-438
-451
-462
-494
-526
-542
-564
-596
-590
-541
-485
-399
-257
-115
-8
93
161
150
99
63
28
-22
-68
-107
-132
-126
-103
-93
-80
-51
-38
-47
-42
-22
-18
-28
-34
-36
-42
-49
-55
-60
-66
-71
-69
-69
-73
-69
-64
-69
-71
-65
-61
-58
-51
-43
-32
-23
-26
-36
-45
-46
-27
-11
-43
-66
5
94
83
29
17
15
9
15
10
14
38
32
21
45
58
89
180
285
503
814
735
164
-218
-130
-31
-102
-132
-112
-126
-132
-124
-129
-122
-100
-84
-62
-30
-12
2
28
55
89
140
182
205
240
287
321
349
371
359
327
297
250
193
148
99
49
12
-30
-62
-53
-37
-47
-68
-95
-96
-57
-48
-92
-100
-69
-62
-24
74
126
181
379
579
662
827
1004
793
274
-92
-224
-294
-319
-294
-286
-303
-317
-330
-344
-354
-369
-392
-414
-435
-464
-493
-509
-523
-549
-564
-550
-504
-423
-312
-190
-73
35
136
210
229
197
144
97
87
87
62
47
51
23
-14
-6
18
25
31
29
8
-3
26
72
94
86
71
56
35
21
25
27
16
8
8
5
5
13
12
-5
-11
16
45
40
37
77
117
106
69
52
59
62
41
13
10
4
-24
-6
50
16
-37
44
148
279
588
718
336
-125
-263
-137
20
-156
-275
201
-97
-1826
-2326
-622
445
-4
-144
167
113
34
149
157
132
186
207
216
262
292
304
329
347
345
327
292
242
177
104
55
31
-6
-56
-74
-64
-63
-59
-39
-10
46
124
219
424
723
915
1044
1275
1299
777
80
-264
-296
-287
-309
-337
-363
-379
-370
-342
-315
-308
-326
-365
-407
-434
-461
-508
-559
-573
-561
-550
-505
-396
-257
-115
23
128
189
228
232
181
118
93
90
72
57
66
76
72
75
71
50
53
79
73
57
70
74
50
40
47
42
22
3
-6
5
19
-5
-47
-38
-6
-42
-114
-129
-108
-105
-97
-76
-73
-79
-67
-55
-73
-104
-107
-83
-76
-101
-100
-46
9
17
-7
-35
-52
-52
-53
-63
-54
-40
-58
-58
-25
-47
-68
40
184
340
590
606
133
-298
-260
-110
-131
-165
-143
-135
-140
-139
-120
-92
-86
-85
-63
-47
-47
-34
-13
2
29
70
103
122
159
219
265
289
321
349
342
310
273
225
159
91
35
-13
-45
-55
-69
-89
-82
-57
-45
-36
-20
-6
14
44
80
145
236
376
602
826
983
1228
1513
1391
750
90
-225
-328
-386
-394
-367
-372
-397
-399
-390
-393
-393
-385
-393
-425
-467
-492
-487
-484
-519
-558
-552
-505
-423
-301
-166
-48
51
112
115
86
54
13
-30
-59
-77
-95
-106
-106
-102
-99
-94
-84
-76
-81
-90
-83
-69
-64
-62
-46
-27
-23
-40
-51
-31
-12
-26
-32
-18
-48
-89
-63
-25
-39
-55
-52
-54
-41
-14
-5
6
44
91
125
139
133
123
119
115
110
102
81
41
23
51
58
35
81
190
336
625
826
506
-52
-207
-56
-25
-66
-40
-33
-48
-24
-19
-45
-30
-6
-34
-28
28
17
14
89
28
-22
197
150
-94
397
533
-1050
-2007
-522
813
433
118
389
317
132
187
161
73
91
85
32
25
39
38
60
127
196
281
481
730
893
1113
1390
1258
623
52
-167
-255
-324
-343
-361
-379
-362
-364
-399
-422
-431
-440
-434
-436
-465
-482
-478
-488
-498
-467
-404
-325
-218
-90
24
103
144
145
114
62
11
-24
-46
-64
-69
-59
-53
-57
-49
-35
-33
-29
-8
10
11
12
27
41
25
-9
1
47
48
20
23
27
26
42
41
24
13
6
45
46
-41
43
106
-210
-123
345
-703
-2592
-2146
-63
506
-14
131
393
234
183
235
166
142
170
150
149
158
121
110
118
80
107
246
354
520
802
726
143
-260
-174
-53
-85
-89
-84
-144
-174
-140
-125
-154
-163
-127
-90
-78
-80
-67
-26
22
67
123
188
248
303
344
368
389
404
396
372
338
290
217
131
67
32
-2
-43
-70
-69
-45
-28
-43
-64
-71
-83
-91
-59
-6
46
110
175
281
513
773
930
1125
1401
1368
828
185
-181
-315
-362
-377
-408
-448
-457
-462
-495
-509
-476
-459
-484
-505
-508
-518
-530
-541
-559
-571
-569
-555
-506
-409
-296
-190
-79
29
86
79
53
48
40
-4
-51
-47
-22
-34
-57
-54
-61
-74
-44
-17
-50
-70
-25
20
27
33
57
77
84
87
90
78
49
32
34
28
7
-8
-12
-21
-28
-7
22
26
40
92
126
113
91
66
28
31
80
97
81
87
80
40
31
52
74
148
248
352
576
690
247
-275
-110
54
-298
-41
314
-1190
-2783
-1595
321
303
-180
116
221
44
129
203
145
177
218
201
230
277
283
292
319
343
367
381
366
330
282
222
174
142
87
19
-7
-8
-24
-34
-33
-44
-47
-4
83
162
226
385
639
821
928
1022
904
478
53
-152
-221
-230
-207
-212
-244
-263
-276
-296
-322
-350
-375
-399
-425
-450
-470
-490
-517
-535
-512
-452
-379
-277
-145
-33
48
126
161
137
120
113
68
17
3
-3
-13
-19
-11
6
-5
-37
-19
26
6
-36
-28
-16
-26
-21
-24
-50
-52
-26
-38
-91
-126
-127
-123
-113
-83
-48
-24
-8
-3
-7
-3
3
-11
-36
-56
-68
-67
-57
-63
-71
-34
23
36
22
19
5
-13
-6
1
-2
10
7
-7
1
-23
-44
60
184
280
524
641
212
-296
-276
-69
-105
-172
-115
-82
-104
-111
-106
-97
-78
-59
-35
-7
21
55
84
85
81
97
117
129
154
193
227
252
281
304
303
287
263
212
144
96
60
15
-14
-18
-27
-43
-48
-44
-47
-58
-63
-64
-70
-58
-27
2
46
107
197
407
695
863
984
1246
1373
996
339
-130
-314
-366
-389
-418
-452
-483
-510
-522
-515
-495
-470
-452
-451
-454
-443
-431
-440
-456
-454
-429
-391
-345
-279
-188
-93
-12
57
104
107
81
53
18
-33
-63
-58
-55
-68
-77
-80
-69
-43
-44
-61
-34
-9
-59
-91
-26
23
-16
-50
-41
-51
-47
7
31
-6
-26
-21
-30
-33
-24
-35
-48
-16
35
43
22
42
114
169
178
167
158
152
146
129
105
88
53
11
4
-7
-26
36
153
304
595
785
460
-74
-207
-56
-19
-51
-33
-33
-60
-66
-58
-53
-63
-70
-34
3
-12
-32
-23
3
55
91
94
142
174
149
242
305
140
248
526
-86
-1016
-693
177
174
-119
-6
46
-50
-9
14
-48
-28
24
19
55
163
248
368
630
882
1025
1232
1375
1034
350
-111
-225
-264
-364
-443
-437
-416
-445
-476
-478
-491
-525
-544
-530
-547
-605
-590
-580
-676
-601
-435
-546
-331
262
-358
-1742
-1322
340
716
225
269
381
203
179
232
172
161
196
181
177
187
159
133
144
146
124
118
129
120
99
84
67
60
75
78
65
77
94
69
34
41
63
58
34
4
-25
-45
-61
-83
-110
-140
-161
-142
-90
-55
-56
-42
11
46
29
3
-17
-42
-44
-29
-32
-12
23
-13
-40
19
27
0
111
260
398
645
670
166
-301
-237
-56
-125
-229
-219
-193
-174
-146
-147
-173
-176
-148
-113
-86
-64
-44
-23
3
34
69
100
129
165
201
234
272
300
301
292
278
243
192
134
71
20
5
3
-21
-49
-52
-47
-50
-50
-44
-35
-24
-26
-10
70
193
364
577
728
889
1226
1405
968
228
-203
-300
-329
-355
-367
-384
-408
-435
-458
-467
-473
-481
-478
-466
-454
-456
-473
-478
-464
-445
-419
-366
-290
-204
-110
-17
57
103
117
101
71
35
0
-20
-28
-43
-50
-34
-24
-31
-31
-29
-35
-16
14
5
-18
-8
3
-8
-5
9
5
3
26
45
45
43
36
14
5
33
70
84
93
107
99
62
31
24
18
0
-5
22
50
45
18
-1
-2
7
10
6
16
21
1
7
38
8
-11
92
214
359
614
624
143
-283
-249
-123
-163
-194
-162
-152
-156
-160
-167
-161
-153
-151
-139
-121
-118
-122
-103
-48
-1
10
28
77
118
151
195
227
249
279
278
221
149
81
11
-42
-64
-64
-52
-46
-63
-85
-84
-71
-52
12
99
183
377
678
877
1062
1444
1609
1063
227
-224
-321
-369
-403
-399
-401
-419
-421
-398
-396
-442
-462
-440
-472
-538
-546
-554
-615
-627
-563
-505
-446
-329
-181
-43
83
184
237
243
227
206
190
186
177
151
132
129
123
112
105
94
77
72
81
86
87
93
89
82
93
106
102
96
97
88
80
79
68
58
66
71
69
71
61
39
38
51
53
41
9
-27
-18
19
0
-58
-48
37
90
55
-14
-47
-37
-17
-15
-28
-31
-22
-21
-27
-48
-64
-10
82
185
405
550
222
-303
-402
-197
-137
-180
-160
-151
-175
-179
-179
-191
-199
-211
-220
-216
-215
-219
-211
-191
-169
-139
-101
-59
-19
22
71
119
144
150
156
153
118
75
43
6
-39
-74
-101
-133
-161
-168
-144
-120
-133
-156
-134
-105
-119
-137
-132
-136
-132
-102
-94
-99
-59
5
43
55
43
20
30
69
103
167
284
398
562
903
1214
1063
472
-72
-293
-326
-326
-310
-286
-276
-262
-236
-221
-226
-234
-240
-248
-250
-250
-262
-286
-307
-312
-307
-306
-294
-239
-155
-71
28
135
221
299
368
373
334
335
359
341
299
274
254
243
254
254
229
218
227
259
320
348
344
385
393
342
380
348
215
487
744
199
40
801
146
-1769
-1467
567
835
-305
-705
-671
-763
-553
-264
-254
-270
-292
-392
-229
156
147
-315
-594
-409
-66
141
162
106
112
177
214
216
214
222
247
263
241
212
220
238
211
168
188
239
248
260
336
416
441
450
469
450
368
253
126
-12
-143
-244
-321
-383
-430
-466
-498
-532
-568
-592
-605
-635
-693
-733
-731
-747
-797
-805
-758
-724
-682
-547
-349
-171
