# session 226
4
-444
222
325
-1478
-2645
-1059
721
346
-298
438
532
-1579
-3191
-1683
634
790
145
661
724
-1464
-3730
-2966
-305
934
539
351
555
499
397
465
478
420
430
492
527
514
491
457
394
370
355
267
283
359
175
173
485
-548
-3049
-3667
-1263
723
562
126
271
431
451
224
306
868
-42
-2235
-2120
206
1064
426
438
725
572
555
698
676
678
749
734
702
697
654
583
503
419
369
341
298
257
235
216
209
229
251
296
400
527
690
935
1159
1332
1635
1929
1760
1119
453
34
-145
-184
-200
-220
-250
-307
-321
-340
-365
-179
-179
-690
-493
234
-1324
-4229
-3749
-596
464
-237
34
350
-18
387
452
-2189
-5609
-6379
-5444
-5459
-5419
-3032
211
1276
800
1018
944
-1026
-2747
-1679
612
1442
1098
1012
1156
1090
1012
1057
1094
1088
1048
986
944
901
848
833
821
786
800
797
726
779
911
885
936
1124
876
307
197
398
339
244
374
452
393
363
352
315
298
287
260
244
238
229
236
261
284
311
344
364
361
336
283
217
157
96
27
-36
-79
-108
-131
-154
-165
-153
-149
-171
-154
-78
-48
-114
-175
-175
-184
-223
-236
-234
-246
-249
-264
-285
-234
-144
-13
242
346
-7
-399
-373
-215
-229
-252
-204
-179
-157
-122
-116
-121
-120
-130
-138
-116
-72
-27
9
56
122
159
151
160
195
187
131
88
44
-36
-88
-64
-41
-62
-82
-86
-76
-31
-1
-26
-8
78
99
32
1
14
-6
-42
-69
-106
-100
-41
-27
-36
18
60
117
293
341
87
-84
35
130
84
68
87
71
57
62
68
77
89
117
164
196
231
309
378
420
482
499
465
546
592
453
504
556
159
300
684
-1792
-6097
-6208
-2231
-576
-1574
-647
1157
633
188
1614
777
-2850
-3027
531
1240
-808
-466
1371
1274
432
943
1374
-239
-2032
-903
1654
2066
912
577
822
777
764
826
742
737
790
736
775
778
599
763
925
429
673
1400
-1091
-5307
-4318
756
1653
-1789
-2870
-752
987
1362
-183
-3947
-6103
-3481
553
1719
1071
1207
1555
1010
957
1623
327
-2276
-1774
1323
2500
1922
2333
2970
2362
1371
832
564
410
328
344
388
246
183
274
-2
-90
373
-444
-2334
-2344
-1402
-1808
-1182
673
-393
-2666
-1307
1276
1283
638
965
971
641
730
815
668
613
628
598
556
528
552
584
544
515
504
432
429
466
393
437
453
126
381
819
-1741
-6252
-6361
-2237
-895
-2488
-2311
-1733
-2309
-1218
54
-1295
-1435
1429
2891
2254
2284
2341
1450
928
969
808
657
670
582
516
549
489
423
488
522
515
599
606
572
752
781
628
936
966
375
968
1216
-2222
-5142
-2802
-442
-1746
-1960
-331
-397
-625
718
1317
818
789
853
598
601
660
423
227
191
130
72
56
11
-30
-4
-28
-211
-353
-310
-302
-229
138
19
-880
-979
-272
-1106
-2742
-2143
-261
233
-127
-127
136
276
-656
-2059
-1519
-40
-330
-803
216
770
609
951
514
-669
-242
1111
1201
733
809
862
708
707
721
655
658
748
851
874
893
1116
1390
1582
1921
2227
2397
2737
2102
-721
-3905
-5427
-5329
-3426
-964
-573
-690
677
-118
-3743
-4040
-172
1880
1018
768
1214
796
648
1340
833
-780
-599
1222
1845
1301
1231
1355
1179
1120
1130
1044
1026
1000
976
1018
925
914
1074
795
717
1426
182
-3984
-5841
-2865
-315
-1305
-2480
-1957
-1453
-976
711
1602
-1090
-4914
-5015
-1558
1743
2734
399
-3922
-5029
-1337
1808
1935
1975
1840
-225
-1921
-1823
-1821
-1496
521
2202
2025
1625
1896
1892
1550
1726
1899
1281
1426
2311
-66
-4445
-3371
1666
1901
-1018
-382
750
-1031
-1143
1386
2173
1464
1704
1965
1573
1437
1445
1205
1042
1028
960
868
853
850
845
1006
1159
1078
1334
1759
1428
1648
2886
1344
-2554
-2298
927
-381
-4780
-6510
-6375
-5578
-3032
-953
-1032
-1572
-2374
-3131
-1679
416
-24
-1121
-420
605
809
661
752
1653
1376
-1830
-3586
-691
2071
1575
953
1421
1361
1030
1135
1180
1002
913
991
988
744
882
1151
-1054
-5714
-7113
-3009
-28
-1720
-2473
258
1930
1239
971
1325
1259
1213
1327
1261
1183
1173
1117
1050
967
913
1010
1253
1556
1756
1582
924
331
568
889
278
363
1309
-971
-5304
-4319
353
52
-3354
-2638
-338
-917
-1211
634
1471
882
866
1160
1086
1102
1222
1144
992
1025
1114
844
654
1066
732
-829
-1106
472
1186
658
691
926
679
807
880
319
641
524
-3507
-7385
-5032
-1473
-2228
-2327
-662
-2427
-4001
-488
2588
1875
1382
1750
1196
872
1206
1116
923
1051
1034
914
982
995
839
813
926
890
828
970
972
791
1091
1149
-1414
-6042
-7525
-3793
-471
-1219
-2213
-1400
-984
-473
1073
1618
997
951
1141
999
1014
1006
970
1187
1085
1088
1849
958
-2440
-3530
-132
2931
2798
1853
1469
1084
886
882
733
750
814
535
598
884
-911
-5209
-7693
-5359
-2184
-2076
-2183
-496
448
592
397
-2228
-4424
-1730
1874
1882
1150
1671
1687
1295
1416
1400
1133
1162
1259
1148
1038
1053
1097
1060
1004
1000
900
805
934
885
710
989
901
402
1264
1278
-2861
-6108
-3352
-99
-1224
-3172
-3293
-2272
-253
1310
1106
810
1283
1405
1367
1565
1095
397
802
1086
-172
-990
105
1088
799
568
796
822
720
754
801
744
749
935
834
597
1234
1227
-1726
-3844
-523
2585
-1387
-6211
-4426
-1370
-2015
-1742
882
1543
443
278
438
224
302
473
457
584
769
846
1047
1342
1511
1755
2271
2609
2267
1534
984
677
520
533
455
293
442
461
72
342
545
-1816
-5415
-6299
-4475
-3356
-4780
-6655
-5263
-1548
-271
-1633
-2429
-2272
-1312
734
1889
1320
994
1284
1133
939
1158
1282
1218
1235
1243
1165
1128
1150
1136
1081
1057
1074
1093
1097
1069
1063
1162
1212
1093
1047
1060
931
991
1089
684
840
1425
-1163
-6160
-6390
-1231
1664
445
-598
-842
-1053
-98
1018
775
453
766
789
600
656
678
648
755
857
904
946
914
902
994
991
943
1060
1062
970
1164
1083
703
1209
1219
-1749
-5541
-6747
-5869
-3817
-708
1401
1346
855
1077
1435
1044
-755
-3163
-3744
-1524
1219
2196
2051
2063
1878
1268
862
714
544
487
542
520
487
503
464
389
366
325
221
171
149
-5
-115
-45
-96
-131
163
208
106
787
734
-2144
-5886
-7155
-4912
-382
2065
-98
-1839
-407
-584
-1813
-153
-438
-4260
-3267
1531
980
-2132
-696
1925
1680
1107
1453
1414
1290
1477
1440
1309
1342
1273
1137
1160
1204
1111
1044
1103
1066
946
1044
1156
1132
1437
1638
1040
746
944
-334
-2160
-1301
1089
1105
-1290
-3349
-3796
-2335
437
1170
-1955
-4253
-1691
1482
875
104
1785
909
-3275
-3334
424
-152
-3256
-1691
1680
1728
813
1144
1264
993
1055
1137
1049
997
1104
1173
1010
1256
1772
1394
1552
3024
1599
-2514
-2137
1753
989
-3186
-4108
-2849
-3102
-3319
-1657
-295
-936
-1631
-829
70
65
-25
135
240
371
503
507
591
759
815
924
1158
1237
1179
1233
1330
1345
1309
1222
1190
1258
1199
1122
1241
1154
995
1340
1131
-273
-733
290
-72
-2412
-3968
-3316
-1280
551
935
652
924
960
715
1378
827
-3110
-5851
-2754
1700
1091
-2570
-3350
-674
1680
2007
1697
1948
2389
2180
1443
1125
1282
1256
1230
1274
978
1094
1587
52
-3715
-6228
-5769
-4812
-5849
-6467
-2832
1474
755
-1279
-290
-504
-2735
-1676
1406
1771
858
1073
1252
940
968
1175
1197
1149
1124
1175
1230
1175
1162
1211
1160
1196
1339
1226
1140
1252
915
833
1631
330
-3974
-5525
-1886
1233
1210
1280
1391
-608
-2852
-3425
-3666
-3884
-2538
-115
1202
1083
894
1045
1052
966
1000
1022
995
993
961
909
909
928
961
1030
1031
977
1034
1068
936
908
849
443
315
514
188
246
946
-647
-3814
-3144
518
814
-2135
-3354
-2447
-1886
-1499
-176
1263
1722
1573
1336
883
393
232
280
327
341
300
253
263
250
175
120
90
47
29
-10
-125
-166
-102
-71
91
314
65
-296
58
519
430
502
598
201
426
798
-731
-2385
-2063
-2293
-3379
-1912
774
1072
301
483
657
450
511
596
519
547
602
570
554
579
635
698
702
675
645
601
621
652
609
642
638
497
655
776
355
733
1635
28
-2444
-1213
995
-248
-1743
-741
324
731
301
-2150
-3427
-872
1381
717
170
933
747
-1395
-3720
-3537
-812
1346
1462
1153
1339
1431
1309
1285
1353
1264
999
1020
1120
717
835
1481
-506
-4806
-5932
-3742
-4226
-6713
-4637
335
726
-2311
-2852
-2073
-2369
-1165
1116
1442
1473
1643
-1133
-3793
-1414
2104
2170
1438
1842
1663
1079
1224
1434
1299
1286
1386
1397
1325
1266
1329
1315
1219
1363
1268
926
1477
1589
-586
-1472
963
255
-5359
-6428
-645
1951
-1089
-2125
-764
-1787
-2734
-544
1251
778
562
1091
1151
1052
1148
1124
1095
1186
1212
1179
1167
1134
1097
1057
995
976
1018
1045
1032
981
951
1016
1097
1127
1289
1485
1185
490
256
455
329
318
756
-63
-2751
-4613
-3662
-1364
28
186
153
304
267
321
526
323
500
1253
262
-1981
-1613
770
1368
610
614
748
461
479
595
372
311
421
207
251
624
127
-78
1109
-493
-5655
-6420
-1564
89
-2469
-3052
-2036
-1802
-798
471
219
-222
138
337
334
721
1236
1295
792
291
286
457
418
412
493
393
407
592
291
116
843
241
-3223
-6510
-7013
-5206
-1574
1652
1090
-960
-427
351
-645
-413
534
-1254
-3985
-4099
-1917
547
1813
1751
1628
1866
1869
1748
1784
1815
1862
1986
2101
2237
2382
2531
2808
2995
2679
1951
1306
1056
1039
975
1010
1162
1008
943
1318
1062
648
1527
738
-3845
-6383
-3137
651
1269
-109
-2934
-4487
-1283
2210
-127
-4024
-2746
815
1342
338
561
860
360
427
984
163
-1401
-1093
496
848
359
443
583
376
337
387
266
211
300
325
220
138
233
303
159
176
346
-156
-1046
-837
103
-327
-1909
-2163
-816
75
-19
-6
391
620
360
-161
-406
-290
-216
-258
-213
-138
-134
-121
-71
-53
-50
2
53
31
-4
-4
-19
-19
42
44
-24
3
69
81
177
270
228
246
160
-136
22
150
-1064
-2152
-1014
551
564
614
1419
1477
1473
2215
863
-3012
-4314
-1521
666
389
123
457
380
217
317
317
230
180
73
-23
-74
-120
-73
-4
41
283
523
560
857
992
477
819
1534
-342
-2709
-1928
-1508
-3518
-3001
-101
13
-1100
48
1208
831
714
1029
959
925
1051
1010
988
1059
1035
965
938
916
925
961
926
869
961
1084
1046
1030
1018
827
935
1167
629
647
1766
-11
-4770
-5287
-559
2097
1327
1275
912
-1945
-3782
-2113
-1040
-3796
-6613
-5322
-2020
-527
-795
-985
-669
-513
-673
-368
129
-705
-1963
-1202
596
1091
963
1334
1555
1451
1482
1478
1341
1280
1216
1085
1020
994
923
849
805
786
772
728
699
746
785
771
757
688
581
582
534
303
172
124
-13
42
-25
-776
-1231
-547
182
286
322
202
-210
-319
-131
-107
-105
23
78
44
23
16
8
-14
-5
28
-35
-22
110
-41
-86
382
-36
-1605
-1784
-201
549
83
-114
-14
-89
-257
-330
-106
-233
-1613
-3458
-4344
-3758
-1865
-6
378
12
117
277
119
100
204
160
119
148
115
95
154
153
104
155
233
299
505
632
294
-191
-283
-163
-191
-254
-221
-196
-203
-181
-155
-142
-91
54
363
835
1298
1595
1779
1927
1968
1864
1719
1596
1459
1307
1183
1068
926
794
697
596
498
444
387
293
230
213
195
178
166
176
243
308
337
463
672
788
957
1322
1447
966
254
-212
-419
-499
-503
-498
-532
-572
-579
-580
-615
-655
-684
-751
-825
-849
-890
-907
-831
-825
-767
-457
-422
-552
56
-48
-2840
-5971
-6693
-6424
-5695
-2828
442
1199
621
696
922
772
713
815
752
625
754
760
423
680
1008
-757
-3275
-2776
200
1768
263
-2519
-3206
-885
1275
1273
833
1041
1095
904
921
1050
1143
1280
1491
1556
1181
613
487
735
651
426
703
730
236
742
1070
-1591
-4176
-2259
921
1111
367
724
896
651
737
820
733
776
830
775
738
701
619
543
474
415
395
381
337
291
284
306
307
270
255
300
345
340
316
311
299
275
297
366
421
509
688
831
951
1300
1732
1661
957
167
-250
-349
-377
-424
-451
-449
-444
-454
-487
-532
-559
-583
-641
-714
-765
-810
-840
-827
-788
-706
-556
-446
-377
-213
-138
-232
-70
-22
-1239
-3296
-4376
-3806
-2229
-544
336
318
223
319
285
251
308
248
316
481
180
89
682
-127
-2620
-3046
-649
814
393
201
447
407
401
550
686
765
522
99
24
178
184
145
181
194
182
190
202
228
255
250
232
232
243
248
257
290
348
400
422
426
420
393
345
290
218
137
87
58
9
-26
-19
-21
-36
-20
-1
-19
-28
20
79
90
60
27
9
-4
-15
-22
-19
10
36
-1
-29
26
86
215
503
570
163
-206
-164
-52
-91
-115
-95
-97
-91
-77
-72
-54
-43
-57
-47
-4
23
32
63
119
169
196
206
205
191
156
107
60
22
-12
-37
-45
-41
-35
-29
-23
2
51
78
76
113
199
264
272
248
215
189
191
215
224
204
197
199
170
195
323
458
629
794
599
91
-137
19
123
82
68
69
50
55
76
83
83
83
83
113
148
131
158
255
239
257
457
373
184
604
351
-2353
-5778
-6441
-3848
-667
805
769
475
466
729
317
-1799
-3671
-2456
204
923
524
982
799
-1061
-2470
-2630
-2620
-1741
326
1476
1153
946
1134
1160
1211
1352
1406
1347
1040
654
617
778
762
669
657
654
637
625
585
535
510
498
488
464
438
453
443
420
509
521
404
530
526
132
468
671
-2032
-5383
-4304
-537
774
98
112
371
174
140
240
141
80
151
200
216
211
177
156
144
123
135
149
125
139
172
134
157
294
352
448
711
648
129
-128
2
8
