# session 211
347
602
434
139
130
-327
-330
1298
-306
-6855
-8658
-3695
-2703
-5139
-3493
-3356
-7900
-8680
-6466
-7168
-5050
1153
1233
-3397
-2538
730
-406
-1510
1490
3828
838
-4180
-3974
970
3117
1719
1629
2404
2101
2037
2036
1754
2616
2207
-2109
-5283
-2666
1976
3622
1268
-3371
-6981
-8042
-6654
-1939
3200
3308
48
-1984
-3402
-3964
-1098
2987
4296
3168
2874
4690
3979
-1874
-4768
-48
4524
4973
3612
-557
-3963
-347
4516
4008
3264
3997
1444
-599
2608
4035
-779
-4810
-5191
-6528
-7528
-4133
524
2307
1454
-632
-1261
99
-1256
-4923
-3747
1443
3875
4426
4523
-167
-5433
-1541
5229
2354
-4006
-1465
4836
3860
-1752
-4262
-4073
-3616
-801
4253
5730
1022
-4504
-6621
-6787
-4133
2532
6052
2104
-1488
-1108
-1934
-1687
3368
4468
-2948
-7041
-1322
4349
4078
3835
4654
872
-4192
-2415
3220
4974
3674
3543
4225
3593
1067
-2781
-6171
-6269
-2127
2836
4488
3219
2153
1837
-38
-3654
-4779
-1434
845
-1416
-2178
1666
3912
3013
3416
2490
-3588
-8276
-4871
2053
4280
825
-3443
-5374
-4680
-1075
3241
4147
2998
3461
3466
2401
3946
3887
-2505
-5634
-756
113
-4693
-3027
3197
3671
1776
3264
2539
-3315
-7057
-6008
-5340
-5000
-1556
2403
4223
4275
1388
-1833
-435
2954
4511
4078
-361
-4703
-501
4687
-475
-5649
-122
4215
-1154
-4709
-56
4120
3491
2633
3372
3373
2289
2530
3798
1994
-2561
-5052
-5418
-4764
-786
3528
3671
3605
3955
-989
-4894
952
4981
-2725
-7381
-87
2994
-4083
-5026
2097
1489
-5624
-5566
-1574
-3428
-5875
-1653
4190
5362
2717
-1318
-4753
-4443
-154
3802
4964
4445
3381
3812
5301
2101
-4026
-3320
1475
107
-3664
-1937
722
-1566
-4678
-3067
1719
5104
4407
-1275
-7503
-6017
805
1722
-2909
-4525
-3801
-3607
-568
4534
6051
4278
4069
5538
3627
-2116
-5473
-5632
-6667
-5004
1677
3652
-2579
-5521
-405
4306
4879
4856
3044
-3262
-8212
-4762
2241
2560
-3262
-5772
-1725
3304
5033
4470
3804
3977
4234
2424
-1840
-5950
-6968
-3253
2975
5380
2752
1256
1402
-1975
-5842
-3913
1422
5175
4695
-1228
-6652
-4423
1208
2854
733
-1586
-934
2625
4480
3293
2784
3497
3094
2490
3143
2892
1777
3217
3192
-3735
-8106
-2873
-695
-5766
-4075
2351
-1110
-7981
-4686
2447
3688
2518
3111
3611
3072
2506
2231
2188
2182
2056
2041
2032
1812
1732
1742
1597
1721
1678
1099
1682
2100
-2180
-7331
-4543
1552
-751
-7404
-6063
663
2625
1777
3155
1543
-4829
-6461
-267
4437
1649
-3962
-5382
-2287
331
965
2138
3110
1918
1712
3496
187
-7661
-6826
2056
2432
-4077
-2697
974
-3622
-6629
-1115
3222
2783
2414
2219
2640
3490
-1271
-7945
-4369
3266
255
-6245
-3253
2943
3836
2778
2624
2928
3702
1431
-4337
-4952
1726
4732
21
-3050
-1238
-1569
-4312
-3003
435
-1008
-5291
-5098
-507
3597
5299
2921
-3531
-6378
-664
5257
2703
-3996
-5509
-604
4010
4232
3229
3759
3796
3049
3858
3588
-2040
-7905
-5056
3518
6247
1810
-369
963
-1282
-4468
-1224
3628
3172
1909
3483
2584
-2238
-3980
367
4239
1361
-4748
-5797
-1106
2802
3123
2109
1844
2812
2689
-576
-4383
-6755
-7676
-4923
-343
121
-2836
-4835
-4468
-2220
-1842
-4578
-3742
1995
4887
3654
3306
3906
3595
3343
3497
3322
3151
3235
3061
2773
2880
2850
2449
2637
2799
1975
2258
3166
546
-2439
-176
825
-5598
-10114
-5819
-2214
-5515
-6471
-935
402
-5015
-5334
1222
4411
3097
3127
3996
3353
2569
2488
2447
2452
2439
2200
2133
2136
1883
1951
1998
1293
1585
2550
-745
-6890
-6147
1723
3961
-2893
-6622
-2872
-2125
-6519
-6210
-692
2516
3141
2586
-766
-3035
-43
3516
2853
-458
-4381
-7165
-5590
-430
2898
2822
2493
2474
2085
2796
1879
-4756
-9278
-2895
3609
-1249
-5741
-623
759
-6027
-5837
1324
709
-4198
-1494
3503
3442
3065
2893
-2536
-8763
-7235
-586
3160
3049
2716
3039
3015
2746
2691
2705
2507
2388
2638
2419
1863
2634
2764
-1263
-5488
-3177
2977
4337
-511
-3944
-1160
2901
3116
1972
2293
2430
1619
1168
1038
1341
2784
2324
-2652
-6194
-2701
2316
2869
1770
2084
2471
2037
1651
2056
2170
-633
-6201
-9785
-7402
-2040
-1077
-5045
-5889
-954
3006
2823
2218
2779
2859
2286
2005
2114
2167
2098
2231
2274
1612
894
1263
2186
2123
1396
1918
2538
-773
-6874
-8970
-6201
-5825
-8936
-7033
108
1064
-4708
-4613
2118
4294
1672
2261
4073
947
-2913
-886
3322
3521
2043
3076
3351
-1276
-5817
-3476
2062
3751
2836
2775
2833
2744
2777
2210
2617
3301
-844
-6998
-6802
-4252
-7051
-8090
-1235
2514
-3241
-6354
-384
2971
-2706
-7079
-2989
2722
3573
2944
4134
2791
-2871
-5162
-370
4019
3758
3062
3394
3179
3275
3139
2249
3269
3702
-1233
-5626
-3082
316
-1359
-4988
-5914
-3127
-1043
-3839
-5992
-1474
4088
4911
4302
4326
3697
4247
4969
1568
-1887
714
4478
4001
2906
3546
3504
2841
2967
2904
2363
2815
2472
-2974
-9812
-7972
-334
-321
-6113
-5962
-3186
-5056
-5100
559
3965
2431
2305
4256
1733
-4429
-4205
2890
4270
-2521
-5156
-225
3121
2388
2316
2890
2361
2346
2674
1892
2090
3192
550
-5188
-8667
-9094
-6974
-2410
-708
-3944
-4865
-2037
-2839
-6140
-4110
1380
3604
3155
2823
2668
3181
3056
407
-932
1940
4374
3655
3133
3977
4225
3788
3431
2537
1438
1719
1603
-2360
-7066
-5942
-404
1435
-3077
-7310
-6205
-4197
-4717
-3225
956
2400
1262
1277
1920
1773
1382
1159
1368
2049
2416
2149
1994
2257
2040
1468
2048
2183
-782
-2788
424
2793
-934
-4051
-1126
2421
1982
884
2094
2285
-1575
-5030
-3867
-2804
-4849
-4275
190
2597
1945
1313
1610
2630
1540
-3542
-5777
-283
4045
-415
-6076
-4237
1110
2948
2101
1984
2507
2552
2387
2724
2764
1299
833
2672
976
-4688
-5156
-1611
-3286
-5779
-1745
2421
1819
1206
2028
1928
1563
1638
1564
1589
1443
870
1046
1872
1842
1503
1823
1600
1135
2093
1352
-4392
-9255
-6257
489
2777
921
1002
2708
173
-3674
-1531
657
-3537
-4725
428
800
-3009
-961
2935
1408
368
2969
690
-6380
-6766
-1804
-2726
-6121
-2799
2583
3526
2673
2421
2454
2128
-1032
-5328
-3925
2040
3435
-558
-2056
338
1520
1229
1456
668
-185
906
-316
-5111
-6689
-4677
-4767
-4463
-74
3305
2760
2233
2854
2740
2336
2344
2224
2065
2113
2086
1986
1965
1922
1822
1737
1735
1803
1762
1669
1748
1724
1565
1741
1689
1117
1478
2009
-534
-5695
-9230
-7836
-2270
1122
-1216
-2247
1807
2358
-3593
-6582
-2714
1519
2340
1959
2067
2233
2146
2091
2198
2219
2141
2194
2094
1867
2138
2172
1569
2199
2610
-1212
-5102
-2113
2896
2735
1681
3152
1576
-3111
-4516
-4339
-6628
-6116
-32
3304
-312
-3797
-3204
-3240
-5009
-3615
638
2961
2990
2502
2409
3704
2948
-2302
-3837
1528
2530
-2578
-2445
2545
4011
2824
2375
2891
3841
1374
-3808
-2898
2889
3763
2182
3189
504
-5411
-4447
292
-2185
-8296
-7545
-1893
-498
-3331
-3651
-2033
-3305
-4230
-80
3980
3068
2613
4709
1664
-5185
-4724
544
439
-1012
2345
4923
3659
2825
3593
3953
1940
-2741
-5146
-1113
4192
3544
-2083
-6821
-7330
-5291
-5201
-6987
-4833
1223
3189
-847
-3640
-1283
1380
-129
-1828
872
4013
3655
2820
3310
3264
2786
2816
2756
2462
2374
2380
2337
2276
2219
2269
2375
2390
2404
2445
2364
2256
2247
2119
1899
1910
1781
1408
1774
1134
-4234
-9960
-6934
393
-138
-5193
-4755
-3058
-5618
-5493
-132
2468
1626
2824
1832
-5040
-7997
-3075
-822
-2924
-834
3400
3403
2162
2714
2813
2259
2361
2466
2207
2123
2171
2108
1986
1964
2024
2039
2291
2634
2165
1479
1296
-1339
-7408
-9849
-4479
845
-855
-5455
-6846
-4204
-115
2098
2138
1925
1564
1879
3053
478
-5148
-4936
967
3448
2043
1999
2700
2245
1927
2063
1879
1823
1959
1589
1378
1807
1475
959
2007
1521
-2833
-6825
-8586
-8697
-3880
2138
258
-4434
-3416
-2655
-5168
-3302
1925
2875
1246
2062
3127
1070
-1191
168
2875
3441
2979
2927
2423
1819
2096
2254
1706
1909
2392
-116
-4873
-6206
-2793
1374
3969
2560
-3955
-7581
-2901
872
-2608
-7000
-7469
-3189
3753
4003
-3512
-5943
-2223
-2834
-4667
-336
4192
3891
3290
4056
3878
3554
3856
3587
3505
4066
3096
1258
1644
3166
3497
3307
2873
2796
4010
2742
-2323
-3532
1666
5304
4339
3718
4685
3140
-2378
-7290
-7714
-6899
-7883
-6593
-1566
1146
-111
-890
-1602
-3948
-3478
828
2999
2094
1930
2134
2028
2553
-28
-6652
-7924
-1100
2225
-1682
-4323
-4469
-4361
-562
3106
-54
-3863
-3857
-4929
-3729
3153
4902
-2092
-6710
-6017
-4584
-1083
3979
5938
5145
4432
4884
5748
3119
-1874
-1572
977
-2545
-4633
665
1469
-3743
-2005
3348
2355
1299
4622
5683
4273
4586
4856
3827
3496
3845
3736
3379
3462
3663
3040
2888
4096
2545
-2215
-2121
3259
3129
-4057
-8354
-7144
-6303
-6978
-6273
-5822
-7388
-6318
-1679
-620
-2607
-551
1851
-317
-26
4468
3687
-2065
-1914
4234
4875
-2420
-6534
-2371
1876
894
-1624
-2148
221
4054
5324
3946
4093
4730
1101
-4396
-4572
403
4158
4715
4073
3523
4449
4884
467
-5305
-6817
-6991
-6637
-2564
-339
-3747
-4935
-2338
-2938
-4305
99
5797
4587
-1581
-2999
3136
6763
634
-5672
-1459
5463
2871
-4382
-4666
1489
5898
5644
4309
4490
3376
-168
-1004
2012
4170
4638
2586
-3938
-7618
-3160
-2
-3151
-4483
-1356
398
-1598
-4463
-3461
2340
6527
5532
5123
6684
2410
-5938
-5925
1074
1677
-3914
-5761
-4210
-4494
-5116
-4259
-4459
-4877
-1392
3482
4769
4843
4088
-2278
-7714
-2642
2850
-2298
-7187
-3408
-1367
-4627
-3191
2245
1078
-5404
-6812
-1354
4353
6158
5226
4767
5779
4613
-1016
-5197
-2055
3904
5830
4830
4578
4922
4602
4103
4376
4428
3390
3817
4837
-26
-7460
-6120
423
466
-2365
-663
476
-1487
-246
3590
4313
3504
3678
3329
3932
4677
-904
-8352
-5379
2580
1437
-4656
-5862
-5146
-4507
-92
4611
4531
3155
3427
3428
3399
3754
2849
2841
4633
1894
-4624
-4526
-37
-2733
-7804
-3562
3434
1674
-3617
-4219
-4161
-6590
-6910
-5597
-6829
-6500
-1004
1948
-2530
-5968
-1512
5060
5717
393
-5711
-7530
-3410
2472
5198
5722
4517
-1119
-5689
-1270
4701
1985
-2100
2097
6871
1841
-5194
-1389
6033
3580
-1273
1441
2524
-2389
-4006
-3205
-5156
-3497
3219
6018
4355
4381
5048
3935
3991
5038
2432
-3320
-7741
-8673
-4868
684
-372
-6214
-4217
4223
4335
-3116
-3681
3133
5825
3291
3326
5398
2277
-3780
-3351
2475
5017
3808
3301
4024
4868
3143
-3754
-9704
-6521
-338
-1914
-6648
-5954
-3880
-4225
-2959
-912
-2124
-4220
-3370
159
3404
3911
3089
3003
2923
2959
3181
2135
1777
2791
-218
-5669
-4242
2268
4566
3282
3165
3529
3363
2968
2372
2354
2218
2003
3630
2383
-5156
-7537
-482
99
-8186
-8873
-3718
-5546
-6979
-656
1157
-4279
-3465
3107
4546
2563
2827
3352
2783
2749
2981
2737
2522
2773
2808
2062
2263
3433
1355
-2924
-2316
2111
3192
1816
2289
2821
2065
2742
2998
-2411
-9526
-8971
-2830
-505
-1942
-2562
-4384
-7397
-5187
1194
3182
1748
3260
3148
-2620
-5239
-1769
-246
-443
2013
3629
2976
2777
2535
2849
3468
-224
-5136
-2843
2880
3457
1492
2311
2935
-1519
-8349
-9165
-2985
-119
-4766
-7820
-5640
-5129
-6170
-2539
2885
4021
3046
3426
3797
3429
3480
3626
3382
3429
3517
3143
3363
3879
3204
3388
4765
1706
-3976
-2561
2993
2333
-1483
-3046
-6759
-10525
-5528
2394
-344
-9581
-10137
-2868
-222
-1802
-1077
-2172
-5524
-2191
4943
5944
4078
4760
4706
4246
5575
3737
-967
-341
3985
4690
3817
4038
3431
3941
4577
-368
-5917
-3544
2777
5963
3165
-4544
-6811
147
1014
-8402
-10918
-3664
-1096
-4225
-4399
-3775
-6584
-7120
-1541
4107
5345
4531
4018
4560
4699
820
-3930
-2040
3533
4899
3509
3503
3728
3313
3179
3128
2977
2765
2599
2884
2534
1677
2939
2988
-3735
-9453
-3843
4014
-205
-10474
-11410
-4150
-1193
-2692
-321
1607
-4199
-8497
-3069
2284
1443
1824
2884
-2089
-6963
-4547
-495
906
2271
3170
2447
2135
2443
2199
1997
2118
2029
1903
1885
1830
1867
1943
1969
2102
2036
1557
1164
921
825
1355
881
-3657
-10194
-11041
-4225
513
-3673
-8173
-4284
1763
2655
1710
2328
2696
2378
2500
2667
2559
2546
2509
2346
2222
2058
1876
1775
1581
1457
1561
1363
1140
1433
1033
462
1805
957
-5711
-8610
-1042
3633
-3570
-8546
-2504
2329
-376
-2344
-1863
-4516
-8336
-7335
-2281
1344
1571
1167
1659
1762
1717
2583
3047
2281
1756
1892
1836
1695
1638
1520
1698
1727
1256
1702
1904
-2076
-7750
-7462
-1419
2767
2345
1255
2162
2545
94
-1389
1035
2602
1454
2266
2294
-4133
-9501
-6377
-3190
-6204
-7340
-2209
2327
2565
1935
2233
2400
2352
2450
2486
2520
2691
2832
2937
3124
3319
3297
2842
2133
1658
1510
1426
1361
1348
1309
1244
1181
1162
1177
1008
773
961
1082
-1031
-6595
-11063
-7875
-1339
-1729
-5294
-2837
-413
-3842
-4165
1157
3091
1564
1998
2230
1466
2599
1580
-4137
-6031
-624
3378
2485
1845
2531
2290
1865
2074
2095
1894
1856
1838
1772
1706
1682
1658
1453
1409
1738
1533
1091
1808
1205
-3665
-7094
-2400
3340
-310
-7497
-7062
-3505
-5312
-6516
-821
3233
-1462
-7477
-7965
-6893
-7029
-4429
1141
3935
1668
-2412
-5361
-5692
-2470
1979
3674
2921
2649
2974
2805
2603
2673
2606
2493
2497
2466
2424
2378
2248
2180
2130
1909
1825
1852
1519
1426
1695
1137
971
2112
508
-3448
-2285
1809
-451
-4384
-739
3339
-662
-4892
-2155
1337
860
56
611
686
428
588
660
554
563
634
743
899
1120
1301
1035
434
211
398
459
379
363
349
326
309
263
245
245
225
275
274
175
281
345
175
464
639
-16
533
1370
-2382
-7529
-5780
-222
921
-619
-420
25
-392
-361
-123
-265
-292
-170
-156
-125
-95
-130
-73
64
117
105
123
183
279
396
509
578
575
561
577
531
486
627
799
837
948
1028
683
216
188
391
411
352
367
378
375
399
384
321
332
397
357
234
192
286
412
402
405
678
713
378
832
1096
-2408
-8485
-9891
-4272
1133
31
-4703
-6550
-3749
138
1626
1182
972
1196
1090
913
962
929
877
1055
1043
741
954
1238
-484
-4235
-6588
-4791
-599
1930
1797
1311
1587
1770
1695
1803
1804
1407
1012
946
1006
969
889
860
864
846
758
598
440
352
311
246
155
112
126
121
91
83
71
44
65
119
115
52
-21
-100
-178
-232
-267
-289
-294
-304
-315
-289
-248
-229
-181
-83
19
165
417
733
1098
1451
1490
1004
266
-295
-553
-619
-609
-590
-590
-603
-616
-619
-620
-622
-631
-655
-689
-705
-691
-651
-591
-501
-344
-124
74
198
265
267
222
217
222
170
174
209
125
143
288
172
196
595
76
-1285
-1223
185
633
151
122
303
181
129
224
203
