# session 263
-52
-111
-133
-117
-97
-95
-94
-76
-56
-41
-27
-34
-56
-37
42
98
77
23
-14
-36
-33
-7
-14
-38
-14
7
7
79
172
221
318
318
13
-270
-196
-49
-78
-106
-70
-75
-66
-14
-17
-36
38
129
137
113
121
141
159
192
237
275
294
285
251
211
164
101
37
-12
-49
-67
-69
-72
-78
-79
-83
-89
-85
-83
-99
-103
-60
0
13
-24
-53
-61
-80
-92
-82
-85
-79
-46
-66
-121
-89
19
239
580
617
124
-291
-233
-138
-236
-255
-169
-151
-171
-168
-169
-157
-120
-89
-82
-91
-93
-73
-49
-18
34
77
89
99
104
75
36
6
-27
-62
-80
-76
-52
-32
-23
3
22
8
78
303
530
744
1139
1516
1344
624
-46
-300
-301
-311
-334
-294
-307
-377
-294
-253
-439
-333
-123
-838
-1731
-1219
-151
-7
-197
1
146
125
216
305
271
228
224
232
223
175
125
112
113
114
120
121
103
88
88
83
65
52
50
47
39
24
11
12
14
10
45
117
173
225
288
284
223
224
242
174
114
112
34
-114
-175
-156
-161
-171
-159
-170
-193
-189
-187
-214
-225
-208
-212
-236
-233
-205
-193
-203
-188
-134
-101
-101
-80
-45
-51
-75
-65
-38
-19
-4
9
14
4
-17
-24
-12
-8
-15
-8
6
3
-5
2
13
18
26
40
44
34
22
14
10
11
8
-1
13
66
113
115
97
73
37
26
49
28
-24
-9
12
-34
-6
144
267
353
343
31
-359
-376
-156
-79
-100
-70
-47
-57
-43
-17
-11
-7
21
58
84
97
113
143
181
228
299
372
399
393
387
368
317
232
115
13
-29
-48
-85
-112
-117
-118
-127
-134
-123
-100
-100
-94
-35
29
31
-5
-36
-63
-88
-97
-92
-92
-75
-45
-73
-117
-40
104
210
311
263
-88
-387
-310
-150
-167
-191
-145
-134
-140
-114
-85
-62
-62
-96
-95
-41
-16
-24
13
81
135
185
230
221
165
107
50
-23
-96
-148
-176
-181
-182
-185
-167
-142
-144
-131
-78
-54
-83
-88
-35
18
31
22
8
-16
-40
-33
-10
-18
-35
-20
-28
-48
4
75
147
310
358
57
-254
-220
-70
-58
-88
-78
-74
-85
-81
-64
-61
-80
-78
-39
-2
27
76
135
183
232
298
367
396
365
314
272
223
162
112
75
48
34
22
9
2
-10
-33
-43
-22
-6
-21
-28
5
46
41
-3
-33
-39
-65
-96
-100
-98
-91
-72
-92
-116
-66
14
176
471
527
116
-259
-241
-148
-185
-192
-150
-148
-152
-144
-152
-145
-107
-83
-76
-51
-15
5
28
66
90
93
105
133
159
159
128
72
4
-57
-94
-114
-133
-145
-138
-124
-125
-126
-105
-79
-75
-73
-30
46
90
72
35
15
0
-3
18
11
-23
-3
24
-20
-14
117
269
420
480
206
-223
-294
-73
-85
-256
-141
-7
-217
-293
-17
34
-186
-202
-89
-77
-50
16
45
97
186
248
274
286
292
286
245
174
101
36
-7
-22
-27
-44
-83
-116
-107
-93
-127
-152
-116
-104
-141
-106
0
35
-12
-47
-58
-64
-51
-40
-60
-69
-32
-11
-35
2
123
231
341
384
140
-219
-292
-170
-153
-186
-158
-141
-155
-150
-136
-139
-148
-139
-95
-38
-15
-21
0
60
109
127
148
181
197
183
152
99
21
-54
-109
-151
-164
-159
-175
-186
-160
-136
-126
-90
-37
14
87
239
535
875
1067
1250
1662
1963
1636
832
103
-285
-389
-382
-404
-436
-425
-423
-468
-503
-504
-511
-549
-602
-648
-687
-716
-693
-600
-482
-357
-207
-63
30
78
98
77
31
12
26
29
12
17
55
89
102
106
109
105
96
92
94
95
94
81
61
52
43
14
-4
8
8
-16
-9
42
85
82
44
10
-6
-20
-31
-31
-33
-29
-29
-60
-34
80
155
267
508
507
79
-252
-198
-102
-133
-149
-136
-131
-119
-123
-146
-152
-133
-103
-79
-64
-37
3
37
65
82
95
145
200
176
111
97
108
88
53
13
-48
-108
-140
-161
-181
-188
-188
-190
-175
-137
-107
-95
-64
-2
47
49
28
13
-2
-18
-15
-7
-21
-24
-18
-52
-73
-18
58
223
488
457
4
-294
-188
-113
-165
-114
-114
-174
-39
-52
-276
159
950
706
-143
-254
16
-29
-41
106
136
146
229
263
258
245
176
96
55
15
-26
-42
-57
-83
-80
-41
-12
-25
-23
117
407
677
886
1271
1744
1660
806
-98
-461
-491
-492
-476
-459
-474
-475
-468
-491
-525
-547
-556
-570
-602
-618
-593
-560
-499
-374
-241
-133
-5
108
132
102
66
18
-31
-47
-42
-49
-78
-101
-100
-83
-61
-38
-30
-36
-44
-50
-55
-55
-52
-47
-33
-14
-3
2
8
24
42
40
13
-1
16
18
-26
-50
11
96
110
68
38
24
7
10
24
21
38
70
50
54
154
256
421
675
589
61
-272
-170
-77
-123
-116
-103
-133
-121
-96
-105
-80
-18
15
25
52
106
179
233
247
270
325
359
353
343
328
279
215
161
93
10
-44
-63
-81
-102
-103
-100
-115
-127
-106
-78
-82
-95
-66
-19
-10
-39
-63
-79
-92
-87
-70
-76
-84
-51
-35
-72
-58
16
99
315
563
408
-73
-291
-170
-94
-130
-144
-132
-120
-109
-115
-122
-117
-121
-138
-137
-107
-74
-42
0
42
71
91
99
85
57
18
-38
-102
-154
-188
-204
-203
-192
-177
-161
-142
-127
-128
-129
-110
-85
-81
-73
-27
21
20
-9
-34
-53
-58
-34
-18
-38
-42
-4
-2
-31
11
84
167
374
490
180
-229
-259
-116
-116
-140
-98
-80
-83
-67
-53
-37
-7
28
58
75
94
139
192
227
264
306
330
341
334
300
257
208
133
53
-4
-47
-73
-63
-42
-52
-72
-70
-58
-17
81
182
326
636
989
1220
1514
1866
1729
929
77
-343
-451
-466
-445
-441
-477
-501
-510
-552
-595
-610
-647
-711
-750
-764
-770
-735
-645
-526
-395
-259
-152
-86
-29
21
11
-53
-93
-93
-94
-95
-87
-102
-127
-117
-101
-120
-125
-92
-82
-103
-98
-73
-65
-58
-46
-42
-28
-4
-1
-16
-15
7
25
18
15
71
144
157
137
133
114
77
83
109
83
70
120
102
27
109
274
368
556
698
361
-142
-194
-24
-46
-93
-40
-28
-40
-19
-15
-5
40
66
74
107
144
162
173
196
233
276
313
334
337
322
293
253
196
125
61
16
-25
-67
-87
-85
-84
-99
-125
-142
-130
-113
-118
-124
-97
-57
-38
-48
-75
-93
-99
-102
-91
-84
-105
-106
-83
-104
-110
-47
54
305
600
441
-113
-367
-243
-205
-262
-212
-160
-171
-160
-149
-164
-151
-116
-102
-99
-86
-63
-32
-1
28
61
95
112
110
101
84
39
-30
-85
-109
-126
-142
-143
-140
-135
-116
-98
-102
-115
-111
-83
-57
-54
-35
16
43
28
16
5
-21
-29
-14
-22
-43
-17
26
-8
-55
15
117
179
300
337
52
-260
-236
-85
-61
-65
-36
-34
-26
6
17
23
47
63
73
103
143
173
200
231
266
302
330
339
331
306
262
202
133
68
18
-20
-45
-48
-46
-52
-52
-49
-65
-88
-83
-56
-54
-71
-46
17
39
6
-16
-7
-19
-53
-56
-41
-47
-34
-8
-40
-60
1
89
305
659
642
81
-349
-298
-203
-262
-267
-223
-228
-232
-217
-216
-218
-205
-181
-149
-127
-105
-59
-3
46
106
166
189
194
208
204
161
108
55
-3
-35
-27
-17
-27
-42
-50
-40
-12
-7
-38
-52
-21
2
-19
-28
30
109
131
91
39
4
-29
-47
-29
-37
-96
-103
-77
-133
-133
36
152
130
61
-174
-483
-484
-284
-257
-308
-256
-229
-275
-288
-277
-275
-239
-186
-158
-137
-105
-79
-37
47
138
195
239
284
294
263
218
161
84
13
-38
-77
-106
-120
-118
-113
-117
-116
-96
-88
-92
-66
-20
16
77
196
396
701
982
1156
1462
1924
1990
1369
530
-13
-220
-265
-260
-250
-254
-264
-270
-274
-279
-280
-299
-345
-386
-409
-420
-418
-393
-323
-220
-120
13
199
332
342
298
243
170
111
78
34
-25
-71
-95
-111
-123
-120
-100
-86
-89
-86
-67
-57
-61
-61
-57
-67
-83
-85
-93
-135
-174
-172
-166
-190
-219
-216
-172
-117
-102
-130
-158
-185
-215
-210
-184
-191
-194
-171
-199
-233
-155
-69
-32
115
219
-48
-420
-450
-297
-282
-338
-326
-280
-254
-219
-134
-47
-20
-14
11
20
14
29
48
54
66
90
112
122
121
118
123
137
147
133
101
86
91
94
109
139
156
165
190
207
191
179
202
226
222
228
272
325
361
375
364
349
355
369
380
377
338
303
307
282
229
234
260
374
728
943
551
-15
-139
-46
-102
-179
-179
-208
-244
-223
-189
-178
-181
-197
-217
-222
-218
-207
-179
-130
-74
-26
14
48
70
73
55
19
-34
-91
-134
-164
-184
-197
-210
-223
-225
-225
-236
-240
-234
-252
-266
-234
-215
-227
-176
-123
-161
-145
-113
-242
-202
3
-655
-2138
-2524
-1150
182
318
100
229
377
391
485
504
216
-68
-9
176
206
161
157
160
140
115
109
125
137
124
98
81
102
152
191
221
267
311
349
398
431
420
373
300
210
124
55
7
-25
-45
-49
-57
-81
-82
-59
-70
-102
-112
-114
-103
-84
-113
-139
-62
41
42
-19
-53
-48
-26
-1
20
21
6
34
73
32
10
111
243
436
657
492
-50
-312
-171
-116
-209
-215
-189
-212
-212
-189
-176
-141
-87
-52
-21
28
70
110
177
244
279
309
342
348
326
290
232
152
75
20
-21
-62
-91
-103
-115
-115
-109
-128
-139
-106
-92
-119
-112
-77
-88
-114
-81
-12
27
10
-34
-58
-58
-59
-40
11
57
89
103
57
3
38
115
265
603
800
439
-98
-224
-112
-116
-154
-132
-127
-140
-133
-131
-139
-145
-148
-149
-153
-154
-148
-134
-105
-67
-47
-33
6
43
48
29
-13
-62
-95
-140
-192
-190
-163
-186
-226
-240
-248
-241
-212
-205
-210
-186
-166
-191
-217
-190
-139
-118
-110
-82
-49
-31
-14
4
11
7
-6
-17
-25
-46
-57
-40
-53
-72
-12
77
200
453
567
262
-84
-61
84
86
66
94
104
111
125
112
94
101
111
106
106
129
160
183
209
240
268
301
331
335
314
273
217
163
111
59
29
11
-7
-11
-4
-2
4
21
42
64
74
80
101
119
120
125
127
106
92
114
134
108
53
10
-11
-35
-61
-67
-68
-76
-61
-55
-96
-91
-8
116
349
530
270
-235
-393
-248
-214
-274
-259
-227
-223
-216
-217
-232
-230
-204
-179
-175
-171
-144
-123
-111
-66
-15
-4
12
43
38
30
43
16
-48
-88
-122
-172
-196
-198
-213
-222
-211
-201
-191
-171
-162
-165
-162
-162
-178
-188
-174
-151
-139
-137
-105
-24
52
66
41
26
19
14
33
54
32
23
67
68
44
130
264
385
578
586
142
-275
-216
-42
-64
-82
-39
-50
-58
-45
-65
-63
-27
-29
-33
4
24
31
79
139
187
258
343
400
425
421
378
311
233
154
84
30
-14
-34
-31
-31
-45
-69
-94
-104
-90
-74
-71
-87
-107
-104
-81
-75
-82
-39
53
127
166
207
266
376
567
749
876
1116
1466
1506
1004
303
-186
-384
-411
-400
-406
-432
-481
-519
-513
-503
-524
-565
-622
-678
-703
-725
-756
-755
-721
-679
-609
-504
-380
-229
-81
2
30
43
21
-34
-61
-53
-56
-75
-85
-78
-66
-55
-18
52
131
234
371
506
700
977
1126
1100
1074
897
427
76
35
-96
-329
-293
-110
-93
-159
-175
-201
-250
-279
-310
-354
-398
-446
-487
-493
-470
-443
-392
-280
-138
-26
47
113
171
190
163
122
90
65
55
65
92
132
169
172
153
147
144
125
99
85
82
79
68
53
40
36
42
41
26
22
36
50
56
49
35
35
44
33
11
0
-7
-13
-12
-29
-64
-66
-38
-45
-71
-47
16
62
67
28
-17
-19
-10
-21
-31
-32
-24
-25
-68
-84
0
123
321
611
620
167
-228
-222
-134
-161
-163
-125
-113
-121
-126
-116
-136
-174
-119
-94
-282
-395
-180
38
34
37
133
193
217
251
268
262
250
228
184
124
71
30
-4
-20
-19
-33
-52
-46
-47
-77
-85
-65
-64
-79
-93
-110
-105
-74
-63
-64
-25
24
7
-65
-103
-73
-44
-54
-54
-36
-32
-20
-2
-18
-13
53
153
341
520
363
-36
-185
-61
-11
-53
-40
-16
-29
-36
-32
-39
-47
-43
-29
-11
7
28
56
94
138
180
217
245
252
232
193
139
61
-26
-86
-121
-153
-176
-177
-175
-184
-183
-167
-160
-166
-158
-147
-173
-208
-197
-155
-137
-139
-112
-62
-35
-42
-74
-107
-112
-103
-101
-86
-84
-111
-100
-83
-126
-110
13
155
389
588
331
-197
-365
-214
-169
-208
-179
-161
-183
-178
-146
-115
-98
-88
-57
-5
31
55
92
142
191
243
291
321
329
329
319
282
212
136
65
-3
-41
-54
-75
-83
-65
-60
-69
-51
10
107
204
341
619
925
1113
1340
1583
1394
710
53
-270
-370
-402
-429
-445
-426
-397
-380
-362
-360
-390
-427
-460
-503
-551
-580
-578
-547
-483
-376
-239
-107
2
80
117
113
88
66
53
32
9
11
25
19
11
20
19
5
8
19
20
31
43
30
19
25
20
15
22
11
-1
18
25
6
3
1
-20
-12
17
13
-5
-13
-19
-9
-1
-24
-13
59
100
68
24
11
26
31
4
-25
-39
-49
-50
-68
-91
-30
84
199
385
490
253
-103
-178
11
