# session 109
-113
-120
-102
-61
0
76
170
363
684
996
1274
1679
2032
1801
951
98
-329
-453
-493
-502
-501
-517
-544
-566
-577
-590
-612
-638
-670
-725
-790
-831
-827
-776
-688
-570
-428
-278
-127
16
105
117
89
63
40
15
-1
4
17
21
25
39
52
56
62
71
79
86
90
88
91
102
108
102
100
104
104
98
91
75
68
88
92
60
62
126
180
186
163
128
110
121
132
122
98
105
168
175
107
168
338
450
648
832
518
-56
-183
9
30
-31
-2
16
4
1
-15
-16
8
6
-8
4
23
31
41
61
98
155
220
270
293
296
298
284
236
176
122
60
-3
-47
-78
-97
-98
-96
-101
-107
-113
-100
-56
-27
-43
-53
-9
49
52
0
-46
-46
-42
-65
-78
-77
-82
-62
-39
-70
-65
26
127
319
565
432
-94
-385
-279
-209
-265
-256
-227
-244
-230
-197
-207
-215
-197
-194
-188
-153
-129
-131
-115
-64
-10
33
80
139
187
197
181
151
94
13
-55
-91
-115
-139
-153
-153
-149
-146
-152
-160
-152
-129
-117
-128
-128
-87
-46
-61
-109
-123
-113
-125
-134
-107
-89
-105
-106
-106
-118
-52
63
133
251
349
114
-281
-343
-159
-94
-103
-65
-57
-65
-33
-9
-14
0
23
22
21
55
87
84
91
146
202
238
291
353
374
358
326
272
199
127
59
1
-30
-43
-63
-80
-85
-90
-101
-109
-101
-68
-36
-37
-31
20
62
49
11
-19
-35
-34
-27
-12
1
-4
6
14
-14
18
136
233
413
678
569
30
-274
-145
-46
-98
-92
-63
-81
-83
-75
-95
-102
-86
-87
-95
-84
-79
-78
-43
17
63
108
169
207
217
238
247
207
137
49
-42
-95
-112
-145
-191
-203
-184
-170
-160
-138
-101
-28
77
177
341
658
977
1136
1301
1547
1494
911
179
-255
-391
-423
-436
-444
-457
-468
-485
-506
-518
-549
-607
-650
-682
-733
-776
-790
-799
-785
-703
-572
-421
-253
-88
43
134
182
180
143
102
77
69
65
56
54
62
63
60
75
101
143
222
313
396
549
787
960
1051
1235
1439
1313
782
198
-128
-225
-261
-289
-275
-233
-227
-282
-379
-468
-521
-568
-643
-713
-748
-783
-828
-846
-831
-785
-678
-531
-397
-276
-154
-62
-6
35
53
35
3
-24
-45
-54
-52
-52
-51
-60
-86
-101
-100
-111
-119
-114
-135
-174
-186
-180
-183
-198
-223
-228
-213
-227
-245
-239
-255
-243
-206
-265
-36
1025
2260
2491
1903
1464
1307
1095
853
702
619
573
513
402
302
248
199
153
130
100
62
49
3
-59
5
128
214
433
613
255
-363
-518
-328
-292
-357
-344
-338
-365
-366
-359
-362
-354
-338
-327
-317
-314
-310
-276
-220
-170
-118
-65
-22
33
95
125
128
139
130
62
-30
-80
-100
-142
-193
-203
-188
-190
-195
-188
-184
-177
-147
-111
-104
-118
-104
-57
-31
-47
-75
-90
-97
-109
-111
-95
-102
-125
-116
-117
-142
-88
34
163
325
347
25
-306
-270
-99
-77
-89
-52
-42
-46
-32
-30
-29
-10
-2
-2
16
43
66
94
121
155
212
266
292
312
341
346
307
244
157
45
-44
-84
-111
-152
-182
-189
-191
-192
-190
-193
-203
-199
-180
-170
-162
-129
-98
-112
-153
-173
-172
-176
-178
-156
-130
-122
-100
-80
-99
-60
72
179
312
489
382
-38
-253
-127
-33
-67
-72
-55
-63
-65
-60
-58
-54
-52
-49
-40
-25
0
32
60
99
157
220
282
341
393
433
435
384
302
211
106
15
-21
-25
-39
-45
-23
-14
-39
-51
-29
-2
17
24
14
30
101
149
121
75
54
43
43
54
65
60
50
60
62
44
124
284
384
568
799
564
-60
-299
-88
2
-91
-123
-104
-72
-40
-90
-147
-89
-31
-70
-88
-40
-25
-36
-1
53
90
134
184
214
227
230
213
156
65
-24
-87
-141
-191
-220
-241
-264
-264
-249
-252
-260
-241
-176
-80
13
167
443
708
892
1133
1274
956
319
-186
-444
-578
-633
-643
-659
-677
-683
-686
-696
-717
-756
-798
-836
-884
-940
-969
-956
-922
-864
-756
-604
-438
-282
-156
-86
-67
-78
-99
-122
-146
-167
-168
-160
-164
-177
-178
-173
-170
-164
-159
-171
-184
-169
-152
-161
-142
-37
136
367
721
1229
1697
1831
1637
1408
1255
1077
908
838
790
694
607
541
460
394
364
323
263
228
225
200
136
126
211
290
393
572
504
36
-314
-236
-104
-142
-164
-132
-132
-133
-121
-128
-137
-130
-127
-131
-130
-122
-109
-95
-82
-64
-33
11
57
91
118
138
130
95
59
16
-49
-116
-157
-174
-187
-208
-221
-205
-190
-201
-205
-177
-150
-150
-149
-124
-92
-84
-99
-124
-151
-183
-212
-221
-213
-221
-234
-212
-206
-249
-236
-143
-37
130
226
-49
-478
-560
-394
-350
-395
-389
-384
-393
-380
-373
-381
-381
-373
-372
-367
-348
-327
-311
-268
-194
-131
-83
-18
43
63
67
71
38
-41
-123
-193
-257
-286
-280
-278
-254
-166
-65
66
311
506
480
467
639
701
542
479
594
620
489
368
303
226
150
122
105
65
52
46
31
117
264
355
517
651
351
-147
-203
54
132
76
84
98
67
36
28
41
48
43
62
95
124
160
198
222
250
302
363
413
442
448
419
359
271
152
38
-44
-117
-186
-216
-210
-207
-208
-202
-191
-147
-36
80
197
444
771
1000
1279
1706
1781
1134
232
-313
-470
-504
-552
-587
-581
-579
-607
-623
-620
-642
-684
-718
-760
-816
-850
-856
-855
-825
-735
-598
-445
-297
-165
-56
9
15
-15
-43
-72
-124
-158
-127
-79
-84
-120
-142
-154
-170
-184
-186
-169
-146
-139
-140
-133
-116
-105
-99
-92
-84
-68
-35
-14
-44
-81
-54
-2
-12
-48
-10
79
117
101
89
79
54
43
72
97
75
61
90
75
56
174
327
460
718
814
356
-167
-168
12
-12
-43
12
1
-29
6
27
4
2
26
47
74
108
124
131
159
205
251
310
376
407
408
420
423
375
291
204
127
71
31
-1
-20
-33
-48
-42
-22
-22
1
89
186
304
517
749
927
1112
1168
837
267
-134
-286
-356
-402
-406
-401
-407
-416
-425
-434
-439
-450
-473
-494
-514
-548
-574
-562
-525
-463
-353
-215
-83
53
173
219
199
178
153
94
43
42
39
8
-5
-10
-49
-80
-67
-64
-89
-89
-57
-37
-37
-46
-61
-76
-79
-75
-73
-80
-94
-105
-110
-118
-117
-88
-65
-80
-83
-36
8
8
-9
-20
-26
-30
-27
-14
-4
-6
2
2
-20
19
124
210
339
458
260
-167
-320
-167
-86
-124
-120
-97
-110
-124
-114
-92
-77
-79
-74
-47
-20
-13
-10
17
67
110
143
190
237
260
274
280
255
206
158
104
40
-18
-54
-75
-92
-101
-96
-83
-76
-77
-74
-49
-8
12
12
36
87
114
98
66
36
14
1
-6
-6
-17
-29
-12
-26
-78
-13
152
269
466
675
415
-174
-372
-164
-63
-100
-82
-60
-64
-50
-39
-41
-31
-21
-15
4
30
52
75
104
143
192
249
316
382
418
420
401
346
233
97
-13
-83
-129
-163
-186
-196
-200
-207
-222
-235
-232
-217
-215
-229
-217
-169
-124
-113
-130
-164
-192
-197
-193
-187
-164
-157
-172
-166
-162
-140
-6
149
247
423
480
83
-366
-343
-138
-128
-162
-123
-107
-111
-93
-82
-78
-63
-51
-48
-32
-3
13
20
56
119
183
249
322
372
374
355
336
281
166
57
-1
-54
-112
-123
-107
-128
-157
-152
-145
-154
-137
-98
-85
-96
-71
-8
24
5
-21
-32
-33
-40
-63
-79
-69
-47
-5
19
-37
-36
113
209
301
618
729
205
-331
-315
-161
-207
-241
-196
-186
-181
-146
-119
-101
-80
-60
-41
-26
-5
33
69
94
137
200
256
296
327
345
342
314
260
188
111
41
-7
-34
-52
-59
-48
-46
-71
-103
-119
-118
-101
-82
-94
-119
-92
-34
-32
-80
-110
-114
-113
-105
-91
-102
-133
-123
-78
-96
-132
-71
19
160
469
596
183
-300
-338
-207
-218
-231
-194
-195
-196
-166
-154
-143
-112
-92
-76
-47
-29
-21
11
60
99
137
185
237
277
283
265
251
219
147
80
39
0
-27
-34
-42
-42
-33
-36
-27
-3
4
57
180
269
385
637
847
926
1027
994
578
73
-164
-233
-276
-275
-265
-287
-306
-311
-326
-353
-383
-405
-422
-451
-496
-537
-552
-528
-469
-381
-256
-102
44
152
225
265
251
192
136
98
65
37
16
-5
-14
-13
-26
-38
-21
4
5
5
18
21
9
2
8
25
35
15
-12
-6
4
-15
-42
-62
-66
-41
-36
-66
-33
64
94
40
7
8
-3
-16
-2
7
-20
-29
-8
-42
-61
62
205
344
618
668
153
-355
-322
-137
-163
-220
-205
-209
-219
-214
-224
-242
-248
-237
-208
-189
-191
-169
-99
-29
4
56
153
234
272
296
295
266
240
194
105
19
-39
-83
-106
-115
-131
-140
-123
-102
-100
-106
-90
-50
-37
-60
-51
10
64
71
37
-4
-22
-26
-38
-38
-27
-26
-17
-7
-32
-6
146
281
356
493
464
46
-315
-231
-50
-65
-87
-37
-33
-42
-2
10
-27
-32
7
31
35
56
88
117
167
239
305
376
472
542
550
518
463
374
268
163
66
2
-26
-58
-101
-119
-113
-112
-106
-87
-71
-53
-31
-32
-42
-3
69
113
113
79
39
34
43
24
18
35
20
20
51
14
-3
133
270
414
707
725
163
-315
-244
-100
-154
-169
-145
-185
-195
-180
-219
-251
-232
-212
-202
-193
-189
-175
-154
-137
-114
-81
-43
6
43
31
-16
-68
-129
-199
-274
-348
-399
-419
-436
-450
-442
-430
-429
-416
-384
-332
-253
-162
-23
206
433
598
741
707
316
-204
-540
-709
-813
-850
-852
-871
-893
-904
-915
-922
-916
-908
-914
-924
-906
-865
-826
-777
-683
-536
-347
-134
71
237
359
447
504
527
519
495
491
536
615
689
739
764
768
764
762
768
776
775
788
835
865
850
849
879
875
844
844
854
834
818
827
819
770
733
740
737
686
641
636
611
530
446
403
368
295
207
145
80
-8
-61
-89
-165
-203
-135
-66
48
260
195
-297
-661
-592
-471
-502
-523
-510
-527
-530
-511
-517
-530
-520
-499
-489
-486
-471
-441
-405
-365
-324
-287
-247
-192
-132
-99
-95
-99
-107
-143
-205
-263
-317
-374
-406
-402
-404
-426
-425
-396
-356
-282
-180
-55
191
525
766
997
1345
1417
859
75
-394
-553
-603
-610
-608
-614
-616
-619
-618
-612
-636
-672
-684
-708
-756
-774
-757
-740
-694
-584
-420
-234
-55
99
224
285
275
255
230
173
135
148
149
124
125
139
127
123
149
166
165
171
180
174
170
179
184
185
195
207
215
214
191
168
177
197
193
182
182
195
206
192
184
247
337
354
305
265
257
244
210
194
197
180
172
172
122
122
267
408
561
807
741
181
-211
-98
32
-28
-38
-5
-30
-37
-11
-15
-24
-16
-8
3
15
20
31
61
94
130
188
249
275
279
294
306
283
230
166
98
29
-30
-79
-126
-170
-195
-208
-215
-209
-201
-204
-197
-175
-170
-192
-213
-200
-153
-120
-148
-211
-242
-241
-248
-255
-245
-246
-253
-226
-217
-258
-216
-82
16
175
390
250
-239
-464
-303
-201
-241
-229
-196
-204
-199
-177
-172
-177
-170
-145
-119
-105
-80
-49
-35
-4
65
130
180
229
263
271
268
244
169
61
-18
-61
-108
-142
-131
-122
-143
-141
-110
-97
-86
-54
-30
-11
23
28
8
43
103
86
28
10
9
-13
-19
4
15
-1
11
53
48
30
102
207
309
480
504
145
-234
-238
-104
-107
-137
-123
-135
-149
-125
-99
-86
-59
-24
0
24
59
83
98
135
181
216
257
314
361
379
378
364
326
258
183
129
87
43
11
4
8
6
-5
-16
-24
-37
-55
-53
-27
-22
-49
-49
-8
9
-23
-55
-63
-68
-86
-104
-100
-91
-104
-109
-110
-156
-167
-84
-2
122
331
297
-84
-330
-238
-143
-163
-152
-130
-142
-137
-121
-128
-135
-132
-127
-112
-94
-88
-80
-48
-1
45
84
128
172
202
211
199
163
109
47
-21
-85
-126
-140
-148
-156
-163
-160
-141
-128
-105
-29
68
204
473
745
862
1057
1373
1290
663
43
-256
-378
-425
-424
-428
-431
-433
-461
-493
-507
-517
-530
-554
-599
-644
-664
-659
-620
-533
-401
-234
-60
88
198
261
268
242
204
149
93
69
60
37
14
0
-12
-9
12
20
13
20
33
34
49
77
75
63
86
102
86
91
113
104
96
113
121
121
114
66
41
92
111
47
46
151
217
187
131
103
110
111
88
83
86
69
74
79
59
145
324
458
655
810
472
-128
-287
-102
-74
-144
-131
-128
-147
-125
-108
-110
-95
-82
-79
-66
-43
-15
18
53
100
168
236
284
325
363
375
358
328
278
200
113
43
-12
-65
-107
-130
-144
-157
-159
-151
-146
-147
-146
-137
-121
-122
-154
-157
-97
-49
-64
-98
-123
-156
-192
-202
-180
-160
-170
-167
-136
-159
-193
-95
73
224
391
353
-66
-434
-392
-254
-262
-259
-221
-240
-260
-241
-227
-208
-174
-158
-155
-138
-113
-99
-91
-65
-20
23
70
125
162
162
142
108
46
-42
-123
-174
-205
-228
-235
-234
-237
-238
-224
-204
-196
-198
-187
-172
-172
-151
-101
-83
-33
193
447
469
343
282
263
224
202
182
159
172
159
86
105
248
376
521
652
463
26
-161
-37
55
59
87
105
95
109
128
123
115
120
