# session 41
-71
-27
36
122
196
316
577
841
969
1100
1188
908
352
-34
-172
-247
-277
-236
-205
-230
-283
-316
-323
-343
-373
-374
-377
-424
-462
-448
-427
-420
-386
-310
-216
-118
-19
65
121
156
170
158
129
105
94
95
92
76
76
102
115
104
104
115
119
129
141
135
129
137
133
117
118
126
130
139
134
109
115
142
133
116
126
121
96
102
118
97
63
53
56
46
30
24
34
43
43
33
15
-7
-16
-6
5
4
6
35
78
98
80
46
24
17
12
-1
-3
3
-3
-1
6
-22
-20
91
227
351
467
347
-72
-341
-231
-96
-126
-147
-119
-129
-144
-140
-146
-144
-130
-138
-158
-156
-132
-109
-107
-108
-77
-37
-16
15
57
69
68
90
106
90
65
39
4
-42
-97
-139
-157
-169
-184
-188
-176
-149
-120
-113
-112
-84
-53
-50
-51
-44
-48
-58
-45
-14
2
2
27
88
134
136
120
106
78
50
38
33
34
43
31
22
28
-18
-31
127
313
472
745
781
213
-353
-318
-100
-108
-134
-93
-110
-133
-105
-94
-101
-90
-83
-89
-87
-65
-34
-26
-45
-28
37
90
126
191
264
295
303
300
254
170
74
-25
-103
-157
-215
-252
-243
-246
-272
-275
-262
-252
-219
-171
-126
-60
-10
-16
41
279
524
428
-65
-569
-724
-611
-468
-341
-211
-133
-133
-156
-144
-102
-67
-39
-15
-18
-46
-62
-57
-51
-42
4
100
217
332
447
551
608
603
574
544
471
348
239
171
85
-23
-88
-111
-142
-168
-157
-143
-144
-139
-129
-122
-108
-90
-75
-55
-44
-40
-18
19
59
112
177
242
305
342
414
627
878
1075
1287
1206
459
-423
-706
-574
-461
-351
-234
-201
-205
-211
-241
-246
-211
-197
-231
-286
-331
-356
-384
-415
-411
-372
-329
-269
-171
-74
1
78
152
191
215
246
245
199
159
133
90
48
23
-10
-29
-15
-28
-64
-74
-102
-165
-177
-141
-155
-208
-222
-192
-173
-186
-204
-199
-181
-167
-154
-165
-196
-202
-184
-184
-193
-175
-140
-111
-94
-85
-60
-17
6
-1
-5
4
6
6
19
35
52
80
112
141
178
226
260
260
256
283
316
315
309
338
376
384
357
306
264
245
215
168
146
135
99
73
65
51
87
188
305
469
553
271
-199
-346
-196
-132
-180
-185
-172
-175
-172
-176
-190
-191
-186
-181
-166
-151
-151
-155
-145
-113
-80
-65
-41
21
91
126
150
184
196
175
157
133
71
-6
-54
-90
-133
-165
-178
-187
-194
-201
-206
-193
-170
-169
-178
-165
-140
-118
-91
-70
-59
-20
39
57
31
8
-3
-3
6
4
-9
-14
-26
-39
-10
6
-34
-10
112
228
400
566
343
-181
-395
-229
-127
-171
-176
-150
-155
-162
-155
-147
-142
-139
-133
-117
-83
-54
-57
-63
-25
41
89
131
190
256
317
367
383
360
308
226
121
32
-28
-81
-121
-132
-131
-138
-140
-124
-97
-72
-64
-69
-71
-71
-66
-41
-13
-21
-35
2
65
91
81
69
68
78
105
210
446
668
727
785
946
943
723
578
478
178
-168
-311
-336
-364
-374
-372
-384
-385
-369
-376
-400
-397
-387
-415
-440
-437
-459
-496
-494
-489
-509
-496
-442
-394
-338
-245
-144
-71
-12
39
62
67
82
84
60
47
47
68
154
266
380
566
766
867
898
807
595
557
622
306
-199
-310
-184
-218
-258
-164
-96
-87
-75
-101
-145
-148
-149
-168
-157
-135
-147
-140
-71
3
35
52
76
108
148
167
145
117
98
64
16
-14
-21
-26
-34
-34
-24
-24
-34
-27
-13
-23
-37
-26
-22
-42
-41
-19
-24
-42
-34
-24
-36
-44
-42
-49
-64
-73
-80
-88
-94
-95
-89
-82
-75
-65
-55
-52
-47
-36
-29
-30
-28
-20
-16
-19
-26
-25
-20
-37
-62
-56
-30
-39
-77
-64
7
48
29
1
-16
-36
-56
-70
-70
-61
-53
-35
-47
-95
-36
136
284
484
660
388
-196
-411
-227
-132
-183
-190
-170
-170
-164
-158
-151
-138
-139
-143
-121
-84
-48
-21
-4
21
60
96
140
207
262
289
306
307
293
286
271
214
140
80
28
-17
-39
-45
-54
-62
-55
-40
-34
-28
-9
9
29
92
183
276
452
729
942
1092
1356
1537
1236
582
47
-222
-335
-370
-385
-398
-385
-388
-427
-436
-413
-433
-490
-523
-531
-550
-586
-603
-578
-541
-510
-456
-371
-273
-149
-10
93
138
146
127
93
53
6
-21
-10
-7
-32
-38
-24
-36
-44
-19
-2
-2
10
14
-4
-7
10
16
11
8
9
12
8
1
14
37
30
4
-9
-7
-1
-3
-25
-54
-65
-71
-95
-100
-49
8
9
-27
-60
-82
-92
-90
-81
-78
-89
-85
-48
-42
-63
2
144
281
417
404
65
-297
-296
-112
-65
-100
-93
-76
-77
-75
-64
-49
-41
-36
-21
1
19
36
54
69
89
122
159
192
233
278
310
327
335
327
301
265
215
152
92
40
-2
-31
-41
-47
-57
-50
-23
-9
-23
-22
7
38
79
160
255
357
546
805
975
1071
1283
1500
1347
785
183
-182
-329
-380
-402
-413
-422
-435
-448
-455
-467
-494
-526
-551
-578
-618
-649
-666
-696
-735
-739
-694
-621
-519
-385
-242
-114
-12
61
92
76
46
29
7
-28
-47
-51
-48
-29
-13
-21
-28
-21
-10
9
29
22
0
-1
13
19
26
42
45
39
41
50
56
58
43
16
10
20
7
-22
-14
36
81
94
73
30
-4
-21
-48
-62
-32
-25
-61
-37
0
-40
11
215
354
471
619
395
-165
-363
-155
-94
-177
-142
-92
-111
-118
-113
-100
-65
-62
-82
-65
-27
7
38
38
28
77
154
190
221
287
338
355
378
389
335
248
190
131
39
-26
-48
-74
-95
-97
-105
-107
-79
-48
-37
-46
-50
-26
-7
-8
17
61
83
101
114
86
54
75
139
224
317
430
576
701
828
1105
1401
1263
640
36
-256
-369
-413
-398
-389
-402
-392
-383
-410
-439
-443
-446
-472
-507
-536
-559
-587
-620
-646
-658
-656
-634
-570
-462
-337
-206
-71
33
81
93
89
71
43
18
6
-2
-9
-12
-8
-2
6
17
25
24
28
45
59
60
54
37
12
10
21
-6
-25
47
135
124
61
34
27
18
18
23
26
14
-6
7
8
-26
46
204
299
498
782
596
-32
-335
-184
-82
-123
-131
-120
-117
-105
-101
-95
-87
-91
-76
-38
-23
-18
21
65
82
98
129
168
221
287
339
366
378
373
346
289
211
131
56
-3
-31
-48
-70
-75
-64
-66
-70
-54
-49
-67
-76
-58
-40
-27
4
50
71
50
26
19
-3
-39
-49
-41
-52
-69
-52
-8
-25
-118
-123
12
133
276
476
369
-128
-429
-293
-149
-183
-198
-168
-170
-171
-156
-149
-137
-122
-118
-112
-99
-94
-82
-52
-30
-10
33
88
134
188
248
281
289
295
278
204
110
42
-5
-48
-80
-93
-99
-106
-104
-86
-71
-88
-113
-114
-105
-113
-128
-129
-112
-97
-99
-91
-61
-39
-32
-44
-90
-125
-110
-108
-133
-115
-81
-93
-90
-68
-99
-90
41
165
278
422
303
-149
-416
-269
-97
-102
-122
-98
-75
-48
-26
-22
-10
10
19
28
43
55
62
71
85
107
134
170
218
267
302
323
339
344
322
267
194
120
57
16
-8
-29
-47
-54
-53
-47
-39
-40
-45
-36
-21
-21
-21
1
27
50
78
83
55
36
28
7
-3
4
-8
-37
-58
-54
-39
-60
-77
7
123
232
448
531
140
-336
-372
-205
-198
-236
-205
-184
-179
-167
-168
-167
-155
-156
-158
-145
-131
-124
-111
-85
-50
-8
43
100
164
228
276
309
341
343
268
152
69
10
-56
-98
-109
-117
-119
-116
-125
-130
-116
-113
-125
-125
-124
-128
-122
-122
-145
-142
-84
-28
-15
-36
-81
-118
-113
-110
-145
-138
-86
-92
-118
-93
-104
-96
70
239
362
603
619
79
-414
-351
-159
-171
-182
-132
-133
-141
-122
-115
-111
-94
-75
-57
-37
-21
-3
23
56
95
134
172
221
288
355
399
412
396
357
287
193
103
32
-28
-67
-81
-90
-98
-92
-75
-64
-62
-55
-38
-29
-33
-20
23
60
81
142
309
575
834
999
1179
1494
1670
1295
532
-45
-256
-336
-396
-398
-392
-423
-445
-434
-435
-466
-489
-486
-484
-512
-553
-573
-580
-591
-593
-564
-507
-436
-349
-229
-102
-13
40
72
74
50
21
-5
-33
-52
-59
-65
-67
-54
-37
-35
-33
-14
7
11
7
10
18
19
12
7
10
15
12
8
16
21
13
6
-1
-19
-28
-21
-23
-52
-80
-81
-71
-53
-2
46
38
2
-12
-12
-15
-23
-26
-20
-22
-27
0
13
-10
51
191
321
552
729
399
-183
-313
-107
-76
-137
-84
-51
-80
-63
-23
-17
-10
8
12
10
17
16
8
15
35
56
81
123
173
223
277
324
333
322
317
288
220
159
115
64
23
4
-13
-29
-26
-16
-16
-15
-6
-9
-29
-30
-1
20
21
30
67
142
235
282
308
412
550
652
827
1072
1078
701
189
-181
-346
-380
-391
-419
-430
-427
-440
-457
-451
-446
-470
-500
-506
-510
-534
-564
-587
-604
-607
-590
-552
-480
-374
-259
-147
-37
48
94
106
91
54
22
9
4
3
9
10
6
13
20
13
14
31
39
31
24
27
31
27
20
13
8
4
-8
-35
-38
-4
0
-44
-36
40
76
50
34
29
5
-7
2
15
21
1
-11
31
45
24
117
288
443
692
820
401
-193
-292
-92
-61
-99
-53
-26
-37
-27
-18
-24
-16
0
2
-3
4
22
30
30
39
67
120
187
248
302
365
417
434
424
393
332
242
146
76
28
-22
-72
-93
-90
-88
-93
-98
-94
-75
-77
-113
-119
-84
-81
-115
-124
-93
-50
-15
-7
-35
-81
-109
-103
-104
-134
-140
-115
-116
-105
-65
-94
-111
30
185
327
608
648
92
-438
-390
-196
-213
-224
-171
-181
-199
-178
-174
-182
-171
-155
-145
-129
-109
-96
-85
-61
-14
42
94
154
226
294
348
382
373
319
239
147
54
-19
-72
-119
-151
-159
-169
-193
-194
-166
-163
-184
-160
-122
-153
-191
-152
-117
-158
-185
-136
-69
-38
-50
-85
-110
-111
-105
-103
-91
-72
-79
-86
-53
-54
-83
14
168
268
499
712
383
-223
-354
-130
-81
-137
-101
-69
-80
-76
-71
-69
-54
-48
-56
-56
-42
-21
2
22
51
99
156
214
279
347
397
432
459
458
409
334
250
168
109
69
27
-1
0
-5
-20
-9
2
-19
-31
-22
-38
-65
-52
-20
-20
-42
-46
-18
22
31
-5
-54
-87
-100
-100
-94
-73
-65
-92
-97
-72
-95
-97
10
121
269
554
589
104
-342
-316
-171
-186
-200
-166
-170
-186
-177
-165
-148
-129
-117
-107
-92
-70
-44
-19
7
38
76
116
160
205
250
286
299
296
288
249
163
63
-18
-78
-119
-139
-146
-153
-164
-173
-178
-190
-195
-187
-186
-200
-211
-207
-171
-120
-110
-128
-99
-37
-14
-28
-48
-73
-83
-64
-54
-61
-59
-63
-58
-26
-35
-75
-8
151
328
526
524
132
-251
-227
-55
-39
-69
-53
-49
-55
-50
-62
-80
-77
-64
-55
-45
-28
-13
4
36
76
110
146
193
241
286
328
357
366
352
308
240
170
105
48
11
-9
-28
-41
-44
-45
-46
-46
-45
-39
-40
-66
-99
-106
-86
-72
-83
-96
-76
-27
4
-10
-44
-70
-83
-87
-89
-88
-82
-86
-93
-68
-58
-95
-63
65
170
296
420
225
-217
-378
-214
-119
-140
-120
-94
-99
-82
-52
-46
-45
-41
-41
-31
-12
-2
9
44
80
96
118
160
205
258
323
359
352
345
328
255
149
59
-25
-94
-120
-133
-162
-174
-164
-175
-194
-182
-166
-174
-180
-172
-171
-169
-143
-126
-140
-139
-92
-32
4
1
-40
-76
-74
-73
-96
-84
-33
-13
-5
24
-2
-27
104
285
441
717
792
244
-371
-373
-136
-144
-197
-141
-132
-174
-163
-122
-101
-97
-90
-68
-47
-33
-9
29
61
79
103
156
234
300
342
390
451
473
420
324
230
146
73
17
-37
-92
-117
-107
-102
-120
-129
-119
-118
-123
-99
-80
-115
-147
-128
-123
-164
-175
-127
-78
-57
-55
-77
-118
-141
-133
-126
-131
-127
-132
-142
-113
-110
-153
-66
135
267
473
722
479
-162
-408
-205
-116
-178
-165
-138
-149
-142
-144
-159
-143
-120
-130
-143
-135
-120
-111
-96
-55
3
47
86
151
219
261
289
310
307
272
209
117
19
-47
-66
-74
-111
-153
-160
-147
-131
-110
-94
-74
-46
-51
-89
-99
-64
-24
-14
-35
-37
23
80
71
45
41
35
22
17
19
31
39
19
16
37
12
8
127
252
386
652
697
216
-243
-195
-8
-9
-26
14
19
16
29
31
33
33
23
33
58
65
65
82
108
146
194
215
221
266
343
391
401
401
377
313
232
156
83
20
-30
-76
-93
-71
-60
-91
-109
-86
-83
-117
-130
-111
-111
-153
-211
-236
-216
-197
-203
-198
-155
-117
-125
-155
-171
-177
-182
-186
-186
-175
-165
-177
-170
-144
-169
-167
-50
53
127
288
280
-103
-424
-360
-218
-217
-231
-219
-221
-222
-228
-240
-234
-221
-213
-207
-207
-197
-177
-173
-168
-136
-95
-53
16
79
101
128
179
190
145
96
52
-3
-53
-94
-131
-139
-119
-111
-120
-116
-96
-78
-66
-48
-31
-21
-11
7
23
34
57
93
115
125
183
299
405
488
602
705
729
721
676
567
605
855
867
447
91
73
118
85
78
111
