# session 7
13
123
207
243
248
248
244
244
245
239
241
251
245
228
235
265
295
312
329
349
369
399
441
470
482
497
511
505
469
405
327
244
170
121
93
62
31
9
-10
-14
4
9
-12
-31
-47
-69
-66
-36
-32
-65
-93
-103
-116
-122
-112
-118
-113
-74
-95
-133
3
199
285
413
459
77
-379
-376
-183
-185
-232
-194
-177
-193
-192
-184
-162
-121
-95
-97
-93
-73
-57
-45
-15
31
67
86
118
180
229
243
253
254
204
117
44
-13
-74
-130
-164
-176
-180
-179
-176
-179
-167
-117
-44
19
56
74
95
125
130
81
16
-9
-12
-42
-75
-80
-61
-28
-41
-79
17
190
283
455
635
338
-252
-407
-187
-126
-196
-182
-168
-192
-180
-171
-197
-190
-143
-114
-120
-133
-130
-109
-88
-75
-45
5
51
84
110
133
154
151
102
36
-17
-72
-134
-179
-202
-223
-239
-239
-226
-220
-230
-227
-180
-122
-107
-113
-75
1
66
100
105
82
41
6
-2
3
6
35
50
22
91
274
388
549
839
752
167
-190
-69
30
-33
-48
-51
-91
-84
-56
-68
-78
-74
-86
-92
-71
-51
-47
-43
-30
0
48
98
140
178
210
233
232
198
152
102
29
-51
-101
-115
-116
-126
-125
-98
-64
-11
79
184
367
646
856
1006
1288
1454
1083
397
-74
-263
-357
-400
-406
-416
-425
-429
-436
-438
-451
-486
-514
-529
-554
-580
-589
-590
-578
-523
-426
-319
-219
-106
15
108
164
195
193
165
149
149
129
91
71
84
98
87
73
71
61
41
38
50
48
31
12
-3
-10
-12
-11
-6
0
1
-2
-5
-16
-28
-24
-7
6
11
13
31
72
98
72
29
5
-7
-5
12
8
0
24
20
-8
58
187
297
433
446
125
-225
-221
-64
-40
-70
-64
-71
-77
-61
-52
-57
-58
-53
-41
-30
-26
-18
0
16
32
54
76
103
133
154
162
169
177
175
159
129
85
29
-30
-71
-95
-121
-146
-159
-161
-159
-157
-161
-161
-139
-116
-126
-134
-93
-47
-66
-127
-158
-160
-167
-164
-153
-169
-167
-138
-173
-194
-51
116
220
383
362
-91
-473
-366
-159
-155
-159
-112
-125
-143
-116
-86
-71
-72
-57
45
197
283
304
329
348
335
325
344
370
379
373
364
359
346
300
215
126
60
12
-12
1
33
51
61
74
74
58
40
30
19
-2
-14
25
120
209
225
191
182
169
92
22
18
6
-24
-38
-84
-89
36
147
256
490
451
-115
-551
-452
-310
-366
-373
-348
-393
-406
-379
-389
-386
-353
-355
-370
-336
-302
-306
-282
-211
-164
-136
-64
26
86
122
134
127
129
109
26
-79
-141
-149
-112
-51
-18
-43
-89
-108
-83
-23
14
-8
-27
-6
2
-4
36
89
87
73
97
113
124
216
378
512
533
325
-92
-420
-470
-378
-276
-164
-71
-25
-5
-9
-29
-28
-11
-16
-35
-32
-12
-1
-3
3
29
67
113
184
274
360
463
585
646
610
534
447
334
218
127
53
-18
-80
-116
-120
-115
-118
-121
-123
-123
-100
-50
15
86
160
300
529
715
817
1025
1314
1292
792
156
-247
-397
-435
-447
-460
-478
-496
-514
-525
-519
-524
-557
-589
-611
-636
-662
-687
-707
-702
-667
-609
-525
-429
-335
-216
-80
12
47
79
125
158
161
150
143
132
103
75
71
79
71
45
33
41
38
28
34
39
26
20
24
27
33
40
38
38
43
46
47
48
50
64
66
50
63
123
164
139
94
76
67
56
58
56
40
54
73
40
49
160
267
390
529
377
-80
-318
-171
-35
-59
-71
-52
-61
-71
-63
-56
-50
-44
-39
-27
-11
5
24
41
59
83
110
130
154
194
223
225
225
231
217
182
143
95
40
-1
-31
-60
-76
-79
-81
-80
-75
-82
-94
-87
-58
-36
-46
-65
-44
-5
-7
-46
-76
-93
-113
-117
-100
-94
-96
-83
-92
-111
-48
55
133
251
288
20
-311
-327
-176
-145
-168
-142
-131
-144
-140
-131
-127
-116
-105
-97
-86
-70
-53
-38
-17
12
40
63
93
128
157
178
191
185
162
126
67
0
-45
-68
-89
-114
-126
-113
-98
-101
-107
-98
-77
-44
11
79
182
396
669
848
996
1265
1411
1046
350
-144
-290
-320
-356
-367
-365
-379
-390
-394
-410
-432
-442
-451
-474
-506
-535
-555
-558
-553
-547
-502
-407
-311
-227
-123
-10
75
129
157
156
140
123
102
77
58
52
68
91
86
74
114
162
144
166
361
581
536
167
-302
-579
-570
-420
-278
-136
18
105
116
139
170
160
175
268
337
319
288
291
301
343
432
507
550
611
677
689
651
574
450
328
243
153
43
-45
-100
-142
-175
-214
-259
-278
-267
-273
-308
-322
-308
-308
-319
-307
-282
-271
-271
-258
-239
-241
-249
-230
-215
-225
-218
-192
-195
-207
-183
-163
-175
-174
-149
-136
-137
-134
-126
-117
-105
-101
-115
-131
-130
-110
-88
-89
-103
-74
13
78
84
72
49
17
31
64
49
54
98
81
91
243
387
547
822
782
205
-230
-140
-11
-86
-119
-89
-109
-127
-114
-113
-113
-105
-92
-65
-42
-25
25
95
125
136
194
264
285
283
292
292
258
205
156
126
97
55
14
-15
-41
-68
-80
-74
-71
-77
-75
-59
-55
-71
-71
-39
-21
-43
-54
-14
37
44
15
-19
-52
-82
-88
-87
-105
-106
-73
-88
-123
-58
44
179
476
630
254
-234
-291
-158
-170
-204
-175
-165
-159
-137
-130
-121
-104
-97
-86
-68
-56
-43
-20
2
24
52
75
93
119
149
164
165
161
142
104
58
19
-14
-46
-63
-49
-29
-36
-55
-60
-59
-73
-97
-110
-102
-83
-76
-76
-50
5
34
9
-31
-54
-75
-89
-78
-69
-75
-56
-42
-82
-78
25
144
321
510
370
-68
-271
-142
-61
-108
-120
-104
-105
-99
-96
-100
-91
-74
-59
-39
-19
-5
8
28
50
73
95
116
139
166
189
204
210
206
188
163
137
102
59
20
-5
-18
-24
-34
-46
-50
-53
-71
-94
-99
-80
-56
-50
-43
0
59
73
38
2
-5
9
29
46
44
23
19
13
-25
-21
65
181
325
384
149
-183
-235
-112
-89
-112
-99
-104
-98
-57
-50
-74
-64
-37
-33
-47
-55
-52
-43
-31
-14
3
18
36
52
60
64
66
70
69
36
-27
-79
-113
-150
-178
-196
-223
-232
-198
-161
-113
-22
89
277
590
854
1020
1320
1578
1280
522
-100
-389
-506
-533
-509
-479
-418
-332
-294
-334
-409
-479
-534
-593
-654
-681
-682
-699
-696
-623
-523
-432
-311
-178
-84
-12
62
103
97
77
71
82
109
151
198
237
292
346
335
307
340
371
358
375
402
386
390
401
331
243
221
195
134
102
93
66
24
-10
-21
-24
-37
-45
-39
-59
-98
-74
8
32
-23
-45
-16
-37
-90
-83
-60
-72
-51
-39
-96
-47
153
298
397
455
190
-273
-394
-196
-108
-139
-119
-114
-161
-163
-122
-110
-127
-135
-118
-92
-83
-76
-35
18
39
44
78
132
179
214
234
235
237
239
203
128
62
19
-37
-108
-151
-159
-165
-182
-194
-197
-196
-196
-200
-198
-183
-172
-163
-133
-85
-51
-56
-94
-125
-122
-112
-112
-118
-119
-101
-99
-149
-125
29
154
254
373
206
-261
-459
-265
-137
-185
-181
-88
64
315
584
692
594
440
367
335
275
224
209
203
201
210
231
264
293
308
323
328
304
260
200
118
37
-35
-88
-105
-121
-184
-244
-242
-214
-205
-199
-177
-144
-116
-105
-94
-55
-8
17
40
46
-7
-77
-109
-134
-171
-190
-184
-167
-181
-224
-200
-104
24
232
316
-28
-485
-542
-369
-337
-381
-374
-371
-380
-373
-365
-347
-328
-330
-307
-212
-108
-79
-105
-112
-99
-96
-80
-30
6
18
75
175
205
130
46
50
188
412
561
519
374
258
179
109
62
38
44
94
150
232
431
647
765
931
1079
795
145
-309
-413
-422
-429
-406
-396
-398
-379
-351
-321
-247
-112
53
225
349
320
143
-27
-88
-53
76
292
512
640
646
584
521
464
384
277
168
87
43
2
-57
-112
-144
-170
-204
-235
-260
-279
-293
-309
-336
-361
-368
-367
-376
-379
-365
-353
-342
-306
-244
-170
-74
41
154
275
378
390
351
376
444
415
266
114
31
-13
-55
-96
-137
-150
-144
-185
-202
-84
64
216
478
510
-6
-526
-495
-263
-209
-147
19
92
17
-86
-135
-130
-126
-144
-156
-153
-120
-38
27
5
-55
-80
-79
-80
-76
-57
-39
-38
-25
6
-17
-115
-212
-284
-360
-407
-424
-465
-464
-357
-288
-311
-268
-178
-198
-267
-275
-239
-96
181
374
344
239
175
112
84
165
273
304
324
368
295
153
183
292
333
557
836
544
-74
-158
155
191
45
62
134
120
78
23
-36
-46
-14
32
98
165
201
205
183
175
235
324
374
400
427
448
463
459
407
323
236
151
73
10
-49
-102
-131
-148
-183
-232
-269
-289
-294
-286
-282
-288
-283
-252
-204
-168
-182
-232
-264
-274
-278
-258
-242
-267
-259
-228
-272
-267
-110
24
201
554
578
-15
-495
-408
-242
-273
-277
-226
-219
-210
-190
-184
-155
-101
-76
-77
-64
-37
-11
16
41
63
91
130
176
205
209
217
234
218
159
90
18
-49
-86
-95
-107
-138
-170
-170
-140
-114
-88
-55
-55
-66
-32
-18
-44
44
260
455
579
531
241
9
72
180
140
89
81
44
3
0
5
-3
-7
-5
-11
-17
8
68
131
169
176
171
184
211
224
236
253
235
170
98
47
7
-31
-55
-63
-80
-108
-110
-98
-113
-132
-120
-113
-133
-139
-120
-115
-130
-148
-156
-145
-126
-124
-132
-131
-134
-142
-130
-104
-90
-82
-59
-28
-20
-44
-67
-75
-84
-92
-88
-79
-61
-58
-83
-53
68
196
321
380
160
-219
-324
-157
-64
-86
-86
-81
-102
-113
-112
-115
-113
-101
-77
-51
-40
-32
-12
12
36
67
104
144
184
219
243
260
274
277
255
212
168
119
59
21
18
17
0
-9
-9
-17
-37
-57
-74
-87
-86
-73
-74
-96
-96
-56
-22
-32
-65
-88
-98
-113
-112
-96
-111
-131
-104
-117
-145
-23
145
258
516
691
292
-266
-283
-44
-41
-118
-96
-79
-90
-95
-104
-101
-81
-72
-68
-55
-45
-40
-25
5
46
90
134
178
232
283
303
306
305
272
197
112
39
-15
-44
-61
-75
-84
-97
-106
-83
-45
-16
38
139
279
502
793
1035
1275
1630
1794
1330
461
-183
-419
-488
-525
-528
-528
-545
-554
-554
-569
-601
-631
-652
-681
-727
-779
-818
-833
-824
-790
-718
-605
-467
-328
-186
-36
93
157
161
151
142
127
110
90
66
62
76
71
52
54
56
40
39
61
65
54
59
71
68
65
75
86
87
83
80
82
73
57
61
79
84
85
89
79
73
86
89
75
64
43
33
68
82
60
73
71
37
135
312
439
686
886
513
-143
-314
-110
-62
-141
-151
-131
-121
-112
-116
-110
-86
-67
-57
-47
-38
-26
-14
-14
-5
31
68
85
104
131
146
153
153
133
101
69
30
-13
-46
-74
-102
-115
-112
-109
-114
-116
-104
-95
-99
-93
-68
-52
-59
-57
-19
27
37
12
-15
-31
-47
-50
-33
-33
-43
-17
-7
-38
21
167
269
417
555
304
-203
-359
-170
-86
-133
-135
-124
-133
-127
-121
-126
-118
-104
-99
-93
-80
-61
-38
-9
22
59
103
151
189
214
233
239
217
172
111
34
-36
-79
-112
-145
-166
-176
-179
-169
-148
-130
-125
-129
-122
-95
-61
-37
-32
-31
-1
36
34
-5
-40
-60
-73
-76
-65
-55
-42
-10
-1
-23
27
146
252
399
489
236
-169
-245
-69
-8
-37
-8
19
2
4
29
34
28
40
58
56
47
42
42
52
64
69
81
106
131
142
146
153
153
124
69
17
-31
-82
-116
-141
-171
-181
-167
-175
-195
-179
-148
-147
-146
-100
-38
-18
-47
-76
-61
-29
-37
-73
-92
-97
-108
-98
-70
-71
-78
-48
-53
-82
7
149
232
368
430
123
-262
-260
-75
-42
-59
-27
-25
-39
-25
-16
-17
-11
-3
17
41
43
48
79
102
104
121
158
196
228
247
253
250
226
183
127
53
-31
-97
-136
-158
-168
-170
-170
-165
-153
-134
-106
-82
-43
60
188
301
516
835
1042
1188
1491
1645
1185
382
-143
-299
-359
-418
-437
-434
-444
-421
-299
-155
-154
-286
-403
-463
-518
-582
-632
-665
-690
-695
-650
-563
-456
-336
-218
-116
-7
97
139
124
105
90
66
44
35
28
18
14
7
-5
2
11
-5
-13
1
-10
-35
-33
-28
-40
-44
-36
-36
-57
-85
-97
-92
-88
-93
-96
-80
-28
31
39
-4
-29
-26
-35
-37
-28
-55
-61
-16
-42
-69
87
264
353
553
623
172
-333
-328
-137
-139
-175
-148
-153
-158
-123
-111
-132
-123
-51
45
122
200
311
403
406
356
332
350
385
412
415
397
386
378
338
273
210
140
59
4
-14
-30
-64
-100
-111
-99
-109
-138
-126
-83
-67
-73
-73
-80
-72
-18
17
-33
-102
-114
-118
-152
-151
-120
-134
-143
-118
-141
-116
52
181
290
518
485
-23
-387
-271
-129
-169
-179
-143
-144
-139
-115
-99
-86
-83
-86
-71
-47
-39
-31
-6
30
74
118
150
181
221
252
259
254
239
200
130
42
-29
-64
-80
-91
-92
-92
-103
-105
-86
-78
-89
-83
-66
-53
-40
-37
-36
1
44
33
-6
-27
-48
-69
-70
-60
-64
-76
-81
