# session 43
11
30
83
159
218
254
292
333
348
325
276
214
147
77
0
-69
-109
-121
-132
-147
-149
-140
-132
-117
-105
-115
-123
-96
-68
-82
-108
-83
-20
20
10
-24
-58
-76
-71
-70
-80
-66
-54
-60
-33
-25
-72
2
192
309
515
777
519
-149
-391
-189
-131
-204
-175
-156
-191
-174
-136
-143
-152
-132
-117
-117
-105
-75
-43
-20
-3
36
112
175
201
248
328
365
345
319
261
139
24
-40
-93
-138
-153
-163
-171
-150
-126
-123
-118
-107
-109
-120
-128
-125
-112
-111
-131
-134
-104
-72
-55
-45
-54
-80
-93
-89
-83
-57
-26
-28
-21
7
-3
9
113
233
439
753
711
139
-293
-222
-89
-126
-141
-117
-121
-113
-103
-117
-112
-94
-93
-77
-49
-51
-67
-57
-22
13
44
84
128
165
204
249
278
277
248
183
93
18
-20
-43
-65
-84
-95
-87
-77
-92
-106
-85
-65
-73
-81
-72
-62
-48
-38
-41
-26
20
40
10
-14
-11
-13
-30
-42
-35
-22
-30
-27
3
-13
-29
79
219
320
470
461
67
-310
-279
-117
-102
-117
-97
-94
-93
-93
-106
-94
-61
-60
-78
-67
-33
-11
3
40
91
129
169
220
278
351
418
431
404
374
323
246
173
105
42
10
1
-13
-32
-39
-28
-11
-4
-1
5
5
-8
-14
-8
-18
-46
-52
-34
-36
-68
-95
-107
-115
-121
-123
-107
-87
-91
-86
-67
-95
-98
24
142
231
438
496
90
-340
-324
-148
-134
-156
-130
-128
-141
-141
-146
-148
-143
-140
-131
-121
-123
-123
-108
-94
-90
-71
-20
46
109
161
195
211
202
154
70
-28
-127
-209
-264
-308
-356
-391
-398
-401
-418
-437
-451
-466
-469
-451
-430
-427
-424
-370
-248
-122
-57
-44
-40
-28
-9
14
50
94
112
112
121
90
71
203
372
497
751
893
487
-41
-57
162
178
142
189
201
162
141
143
143
136
146
162
149
148
173
138
99
199
335
340
328
443
558
558
551
584
550
443
344
261
173
95
24
-49
-98
-115
-133
-154
-147
-128
-132
-134
-123
-150
-214
-246
-249
-269
-283
-244
-181
-153
-163
-195
-236
-271
-307
-335
-325
-319
-351
-337
-297
-330
-301
-131
6
210
571
553
-42
-446
-308
-149
-174
-151
-89
-80
-58
-12
10
14
20
31
41
57
79
82
79
126
190
210
239
315
385
433
476
496
507
497
408
271
170
101
42
12
-3
-25
-32
-2
43
73
77
55
10
-46
-90
-99
-79
-69
-75
-63
-39
-47
-86
-125
-154
-170
-181
-196
-199
-197
-206
-196
-184
-215
-190
-63
48
162
284
120
-314
-504
-342
-223
-252
-256
-228
-227
-225
-210
-209
-220
-218
-204
-199
-190
-158
-134
-146
-144
-91
-24
13
39
76
118
165
192
153
79
41
9
-69
-135
-137
-127
-128
-104
-72
-70
-75
-73
-78
-73
-46
-24
-18
-2
35
82
120
138
127
88
57
58
63
64
79
75
53
59
51
16
62
167
258
433
547
243
-235
-335
-161
-96
-112
-91
-90
-101
-83
-72
-82
-89
-94
-92
-75
-52
-11
46
89
120
178
261
329
382
453
530
569
566
545
493
401
318
292
280
224
152
108
81
58
51
66
75
70
126
302
504
647
849
1109
1054
525
-32
-238
-267
-336
-387
-388
-397
-408
-404
-412
-433
-451
-471
-500
-539
-577
-602
-612
-617
-603
-547
-452
-345
-232
-117
-29
13
34
51
45
50
116
194
275
455
684
858
1103
1363
1210
580
-47
-379
-513
-563
-576
-574
-550
-528
-534
-550
-549
-533
-514
-508
-532
-574
-600
-599
-585
-552
-486
-392
-283
-162
-40
47
97
145
186
181
138
109
96
84
88
108
115
114
133
151
147
141
126
111
132
119
58
133
321
440
620
803
488
-150
-340
-118
-48
-113
-83
-42
-38
-14
-7
-25
-19
4
27
56
72
78
107
147
166
197
274
351
380
401
435
416
340
283
230
120
1
-48
-59
-86
-122
-133
-115
-102
-118
-123
-93
-77
-98
-102
-59
-9
8
-11
-49
-81
-85
-71
-74
-82
-75
-86
-99
-72
-82
-120
-13
172
290
489
623
249
-315
-390
-158
-111
-155
-121
-107
-129
-126
-119
-116
-103
-99
-103
-91
-70
-56
-41
-13
23
66
123
188
234
245
252
278
282
221
140
85
23
-52
-88
-99
-131
-145
-125
-125
-134
-103
-85
-120
-133
-94
-68
-77
-87
-78
-37
12
16
-19
-49
-75
-104
-107
-84
-70
-84
-106
-87
-61
-94
-68
89
221
365
606
540
-4
-389
-290
-153
-195
-214
-188
-205
-221
-201
-174
-156
-149
-140
-116
-86
-56
-26
0
29
67
111
151
184
230
285
311
300
280
248
190
124
68
24
1
-15
-40
-60
-66
-63
-48
-49
-81
-84
-51
-58
-92
-87
-67
-61
-39
-12
-17
-45
-80
-109
-109
-83
-57
-53
-83
-94
-44
-32
-74
-19
110
213
420
630
417
-79
-264
-136
-82
-105
-77
-63
-75
-57
-45
-53
-41
-18
-14
-6
16
31
40
59
89
126
161
191
227
266
285
287
288
264
196
120
60
1
-48
-68
-75
-83
-82
-60
-3
58
134
333
597
733
817
890
642
78
-295
-307
-260
-295
-337
-359
-374
-382
-383
-386
-403
-431
-461
-493
-526
-552
-573
-584
-567
-512
-416
-295
-167
-44
62
133
170
181
176
168
148
113
88
82
78
69
56
37
27
31
32
30
34
35
30
29
26
20
21
27
33
37
38
42
54
57
49
51
61
63
61
63
60
56
55
52
41
21
0
1
19
18
-1
17
76
98
56
16
9
-2
-16
-7
-13
-40
-16
8
-55
-30
157
307
500
815
709
36
-394
-263
-136
-190
-181
-145
-162
-152
-135
-154
-149
-125
-126
-115
-79
-69
-70
-42
-9
27
90
149
178
215
266
299
313
317
296
255
201
130
64
25
-10
-55
-91
-111
-117
-115
-107
-101
-104
-103
-80
-73
-114
-142
-75
47
127
165
256
414
525
514
436
317
154
97
209
190
-109
-344
-317
-264
-302
-304
-259
-249
-270
-282
-286
-299
-308
-303
-302
-319
-330
-317
-294
-259
-204
-159
-129
-84
-31
1
17
27
22
6
-13
-33
-43
-42
-44
-42
-24
-5
-2
3
25
50
62
64
68
70
60
46
49
69
74
59
51
51
35
18
18
5
-8
41
119
138
104
67
45
41
42
31
13
-5
0
13
-31
-43
99
241
375
713
881
378
-242
-291
-119
-149
-196
-168
-180
-193
-171
-164
-159
-139
-127
-115
-98
-93
-87
-67
-40
-1
48
96
151
215
272
316
345
345
322
281
211
128
67
22
-36
-79
-82
-79
-99
-103
-81
-83
-108
-107
-86
-75
-68
-62
-52
-21
10
20
66
198
353
444
473
486
435
260
164
348
484
186
-233
-329
-268
-306
-330
-285
-286
-319
-315
-306
-310
-302
-313
-355
-373
-364
-368
-382
-372
-347
-333
-321
-283
-228
-181
-142
-98
-51
-15
-3
-4
-3
-12
-22
-2
33
40
42
82
142
224
383
604
802
990
1270
1536
1430
841
181
-144
-205
-221
-224
-214
-232
-249
-229
-210
-225
-272
-337
-400
-453
-494
-516
-534
-548
-512
-416
-315
-220
-95
30
96
112
119
124
112
91
72
58
38
19
52
114
79
0
87
259
224
-9
-235
-424
-575
-609
-536
-433
-306
-150
-12
72
101
101
101
110
122
137
153
172
198
238
290
356
433
513
583
632
649
623
566
496
411
309
218
155
110
57
-4
-36
-29
-33
-75
-127
-168
-193
-200
-201
-204
-206
-215
-221
-211
-202
-180
-146
-157
-156
-29
124
229
351
299
-90
-407
-331
-165
-153
-159
-127
-134
-148
-129
-122
-132
-117
-83
-67
-57
-28
3
22
48
85
115
143
178
205
211
206
194
156
96
39
-12
-64
-110
-138
-147
-145
-143
-143
-134
-132
-142
-124
-78
-68
-95
-74
-2
33
16
-9
-39
-73
-86
-75
-53
-44
-73
-86
-56
-86
-128
-2
171
275
499
623
174
-425
-461
-211
-204
-283
-233
-188
-201
-198
-190
-194
-198
-206
-192
-152
-140
-147
-117
-78
-52
7
92
153
186
202
218
241
232
180
128
65
-9
-26
-3
-17
-39
-27
-30
-38
8
68
86
104
165
241
299
337
344
326
315
311
284
227
155
113
136
182
228
310
399
465
559
651
718
986
1500
1727
1223
331
-291
-466
-459
-475
-501
-497
-497
-520
-534
-532
-540
-558
-573
-599
-645
-692
-726
-754
-777
-781
-760
-718
-645
-539
-416
-266
-71
110
183
165
132
94
49
21
6
-10
-18
-19
-22
-18
-5
13
33
46
47
42
40
46
61
66
63
99
166
202
188
155
129
120
111
86
88
106
88
80
93
58
72
215
340
518
832
789
182
-266
-172
-45
-125
-153
-107
-116
-133
-125
-133
-140
-108
-63
-56
-76
-68
-37
-30
-24
15
56
91
146
213
271
307
307
286
258
198
111
35
-17
-55
-73
-88
-108
-113
-103
-94
-83
-75
-81
-86
-78
-62
-53
-61
-69
-42
3
14
-17
-47
-56
-66
-89
-98
-81
-76
-94
-90
-89
-126
-95
43
148
233
342
203
-220
-440
-299
-165
-168
-155
-131
-143
-134
-100
-91
-87
-62
-43
-45
-41
-16
13
36
70
111
137
168
226
283
319
343
352
325
261
181
111
63
22
-21
-54
-68
-75
-89
-102
-99
-99
-113
-120
-105
-79
-50
-40
-44
-14
43
55
21
-1
-4
-11
-21
-25
-19
-14
-14
10
23
-21
-13
103
223
393
594
447
-61
-337
-222
-125
-156
-160
-154
-164
-146
-137
-158
-164
-156
-154
-146
-138
-131
-113
-91
-68
-33
7
49
107
159
185
206
225
210
157
91
22
-43
-91
-120
-132
-137
-153
-163
-141
-115
-120
-137
-126
-95
-75
-70
-68
-50
-3
44
52
25
-15
-42
-31
-16
-30
-38
-31
-33
-12
-1
-40
23
205
329
524
792
577
-104
-421
-225
-102
-156
-149
-125
-156
-170
-150
-137
-139
-134
-106
-85
-94
-90
-52
-18
2
39
89
145
218
292
331
342
346
323
245
142
64
14
-27
-60
-82
-94
-82
-58
-55
-46
-13
13
51
138
255
450
731
943
1134
1530
1854
1550
726
4
-339
-442
-461
-468
-487
-499
-492
-488
-499
-514
-526
-549
-588
-620
-644
-689
-739
-755
-738
-692
-603
-483
-344
-179
-16
97
156
171
154
141
137
107
61
38
36
41
46
28
1
7
33
32
20
34
41
15
2
24
28
1
-6
18
19
-10
-14
17
33
21
12
11
11
12
-5
-43
-57
-24
0
-28
-42
19
97
114
85
54
45
48
42
39
45
43
59
69
27
62
230
363
540
829
721
88
-300
-168
-60
-128
-134
-113
-138
-139
-133
-161
-174
-151
-121
-113
-116
-103
-84
-75
-49
-1
39
83
143
186
217
260
276
246
225
218
158
63
11
-7
-44
-86
-93
-86
-102
-115
-88
-64
-81
-83
-52
-44
-58
-53
-48
-49
-24
4
-5
-40
-76
-97
-100
-99
-90
-68
-63
-65
-31
-29
-58
23
168
254
413
559
298
-185
-303
-121
-66
-112
-92
-70
-83
-76
-65
-76
-76
-50
-33
-40
-47
-36
-4
31
41
45
90
160
206
234
265
282
270
234
171
96
33
-8
-41
-79
-111
-112
-96
-95
-104
-96
-81
-79
-82
-75
-69
-69
-62
-43
-32
-35
-27
12
45
36
8
-9
-15
-18
-23
-22
-11
-13
-25
-10
-10
-38
16
138
221
324
364
87
-300
-356
-192
-141
-174
-176
-170
-162
-156
-171
-174
-159
-154
-153
-146
-145
-143
-117
-83
-63
-39
15
76
117
157
203
235
253
248
197
120
53
-7
-61
-89
-95
-99
-101
-101
-98
-91
-88
-89
-78
-61
-46
-26
-10
-6
17
64
83
55
12
-22
-42
-56
-71
-67
-53
-70
-72
-28
-37
-48
90
244
345
575
659
200
-313
-299
-97
-90
-105
-61
-71
-88
-64
-64
-74
-52
-38
-48
-36
-7
3
-3
0
31
99
169
207
240
286
317
328
336
311
222
112
43
0
-50
-87
-86
-81
-96
-102
-93
-89
-73
-27
14
58
203
477
725
862
1103
1563
1781
1267
359
-220
-351
-371
-412
-427
-429
-441
-455
-463
-459
-463
-493
-534
-571
-611
-642
-666
-702
-730
-712
-658
-584
-474
-323
-159
-15
97
168
175
136
106
93
60
17
-12
-28
-26
-12
-14
-19
-15
-13
-4
4
-15
-27
6
30
4
-17
0
17
15
2
-7
8
28
13
-6
19
47
33
19
35
39
9
2
33
34
-6
-7
53
112
135
123
83
47
36
31
28
23
7
17
36
4
34
203
338
484
788
802
232
-244
-163
-3
-49
-65
-20
-42
-74
-57
-39
-42
-44
-34
-18
-6
1
-5
-6
28
78
103
121
159
197
224
246
260
254
219
168
115
55
-15
-73
-116
-149
-149
-124
-121
-146
-153
-129
-119
-147
-166
-137
-101
-111
-143
-128
-71
-29
-21
-36
-70
-99
-98
-90
-87
-75
-73
-78
-48
-42
-83
-20
128
210
359
538
303
-221
-377
-188
-126
-169
-136
-120
-144
-116
-82
-92
-104
-104
-109
-100
-70
-51
-47
-27
4
27
60
122
194
244
271
288
293
264
196
114
54
15
-35
-88
-101
-80
-81
-107
-108
-84
-69
-70
-78
-76
-56
-45
-63
-83
-71
-36
-17
-23
-2
62
100
82
57
46
24
-2
-17
-17
-8
-20
-48
-42
-29
-45
-4
106
206
356
470
233
-206
-325
-150
-70
-101
-90
-69
-67
-57
-52
-57
-59
-60
-48
-25
-21
-29
-18
11
