# session 52
-32
25
72
62
0
-36
-22
-28
-63
-69
-62
-61
-46
-74
-110
13
185
252
448
655
318
-293
-415
-203
-172
-226
-199
-187
-192
-165
-136
-112
-107
-133
-140
-106
-73
-61
-50
-17
36
79
119
183
259
301
297
286
278
218
106
13
-46
-106
-140
-131
-134
-159
-164
-169
-189
-187
-166
-155
-134
-109
-94
-58
-3
10
-21
-41
-44
-56
-54
-17
4
5
23
6
-11
94
225
335
634
858
470
-150
-278
-115
-113
-144
-94
-89
-107
-91
-93
-97
-70
-55
-57
-35
1
12
-12
-19
40
110
133
160
224
278
312
331
305
242
175
110
52
7
-35
-58
-47
-40
-61
-71
-50
-40
-44
-22
0
-13
-2
91
202
265
304
346
413
521
597
593
560
438
181
-3
-38
-153
-337
-357
-281
-279
-288
-267
-288
-325
-329
-343
-384
-418
-453
-501
-533
-531
-508
-483
-444
-368
-265
-176
-97
-11
64
113
135
121
77
33
9
-2
-14
-19
-6
2
-13
-24
-14
-4
-3
-9
-12
-8
-10
-25
-17
23
44
28
32
77
112
105
76
56
44
29
26
32
18
5
18
2
-20
58
176
286
456
471
96
-288
-261
-80
-58
-80
-54
-45
-49
-37
-33
-30
-15
-3
5
24
43
48
60
93
125
150
194
257
305
337
364
374
363
327
246
143
61
4
-48
-89
-112
-125
-134
-141
-155
-166
-151
-114
-102
-120
-103
-40
-12
-47
-76
-70
-74
-101
-107
-97
-109
-97
-58
-88
-91
71
215
285
469
476
-3
-416
-317
-136
-155
-150
-90
-93
-116
-124
-126
-89
-43
-37
-45
-37
-24
-14
2
34
82
134
190
254
313
357
373
343
264
157
56
-20
-93
-175
-216
-201
-194
-212
-211
-193
-187
-171
-137
-119
-111
-55
55
189
354
537
677
776
940
1237
1434
1118
361
-220
-356
-355
-411
-439
-419
-410
-416
-428
-439
-446
-467
-501
-532
-563
-602
-637
-666
-694
-709
-695
-622
-476
-303
-153
-16
115
194
206
176
130
99
89
74
55
55
63
62
61
70
82
87
84
89
96
85
75
82
79
48
23
33
44
32
40
86
124
127
118
101
54
10
31
71
46
36
78
57
57
196
323
532
981
1073
403
-219
-197
-48
-110
-131
-85
-110
-131
-103
-91
-93
-88
-84
-78
-63
-49
-32
-3
31
68
116
171
221
263
304
335
340
314
258
176
97
39
-12
-62
-96
-113
-114
-109
-126
-148
-138
-117
-125
-143
-136
-105
-72
-55
-65
-105
-152
-171
-158
-144
-166
-186
-135
-87
-131
-112
39
151
313
591
503
-73
-419
-272
-154
-224
-226
-178
-184
-187
-169
-163
-151
-135
-130
-111
-81
-72
-59
-19
23
60
101
142
192
240
252
239
220
169
80
-9
-76
-126
-151
-163
-173
-164
-138
-130
-145
-153
-135
-101
-82
-79
-50
4
36
34
19
8
4
-8
-26
-26
-21
-22
-6
-11
-32
41
170
259
429
584
342
-128
-267
-123
-88
-135
-109
-80
-88
-81
-62
-54
-43
-23
-9
-10
-10
16
54
73
86
123
175
220
262
304
325
325
309
259
182
115
64
20
-7
-18
-28
-32
-33
-37
-29
-13
13
88
184
249
397
671
870
1000
1236
1296
846
222
-127
-267
-361
-387
-379
-406
-440
-457
-476
-501
-537
-578
-610
-645
-694
-734
-754
-769
-766
-704
-589
-466
-337
-192
-51
54
106
104
74
46
26
10
-5
-21
-30
-23
-11
-11
-17
-20
-20
-19
-13
-4
11
35
44
31
24
38
51
49
36
20
15
17
-2
-28
-13
43
98
115
87
46
31
27
24
40
52
52
71
54
16
123
320
483
780
1008
593
-134
-306
-68
-28
-105
-64
-35
-67
-73
-72
-84
-66
-38
-37
-44
-47
-54
-38
14
56
78
125
193
243
287
337
351
328
292
217
104
18
-20
-53
-91
-112
-115
-118
-129
-134
-113
-72
-13
71
169
315
584
887
1069
1212
1419
1438
1008
342
-153
-363
-422
-436
-447
-471
-490
-491
-496
-518
-544
-575
-616
-663
-713
-758
-794
-824
-843
-826
-755
-633
-467
-283
-129
-12
89
149
131
82
73
72
30
-6
10
34
25
14
28
42
41
47
60
49
31
32
32
26
30
18
-2
7
18
-9
-18
17
17
-25
0
95
152
136
106
89
73
68
78
64
33
45
57
7
30
181
320
524
808
677
49
-319
-157
-12
-69
-73
-28
-38
-42
-25
-27
-17
7
6
-7
4
29
50
65
79
101
139
184
225
259
281
292
292
266
203
135
89
39
-20
-60
-97
-148
-167
-148
-149
-164
-153
-133
-122
-101
-79
-72
-56
-28
-19
-38
-60
-74
-88
-92
-84
-88
-97
-78
-70
-86
-27
91
178
314
427
193
-246
-366
-195
-118
-141
-122
-109
-119
-106
-94
-90
-80
-75
-78
-67
-49
-38
-28
1
42
73
105
148
186
217
246
256
224
161
91
21
-56
-126
-161
-177
-201
-210
-188
-173
-182
-177
-142
-115
-108
-99
-71
-28
4
5
-19
-47
-66
-73
-69
-71
-88
-83
-42
-38
-65
1
133
243
404
490
200
-232
-303
-120
-61
-96
-74
-49
-64
-72
-60
-54
-64
-67
-51
-41
-44
-25
15
45
76
130
190
241
292
338
360
359
339
298
243
178
105
49
28
17
-7
-22
-15
-10
-21
-29
-10
37
91
143
202
331
575
792
866
986
1213
1158
665
121
-192
-334
-378
-378
-408
-448
-463
-476
-493
-507
-536
-569
-592
-626
-675
-715
-733
-736
-728
-692
-599
-462
-318
-169
-15
99
149
160
144
104
71
61
51
41
42
33
12
20
46
43
26
37
53
49
47
54
54
51
52
43
21
8
14
14
-23
-52
-3
87
110
54
5
2
-5
-38
-46
-32
-39
-28
-9
-38
10
192
337
489
676
486
-95
-381
-214
-91
-132
-136
-118
-125
-114
-98
-95
-81
-65
-62
-51
-28
-14
-10
18
72
121
166
228
290
338
375
374
331
287
239
155
69
13
-34
-79
-99
-92
-89
-100
-97
-60
0
83
177
273
470
813
1124
1357
1713
2001
1687
807
18
-346
-451
-472
-484
-538
-576
-549
-536
-576
-599
-608
-654
-705
-728
-759
-800
-812
-794
-752
-667
-544
-402
-253
-117
-16
43
66
65
41
3
-15
-7
-11
-30
-42
-37
-15
11
12
1
13
29
23
21
29
24
16
17
21
26
26
7
-4
18
39
25
11
44
106
138
116
80
80
88
61
43
57
53
46
57
28
27
140
276
449
666
542
-11
-357
-227
-74
-107
-130
-113
-118
-109
-88
-85
-77
-53
-34
-19
-6
-5
1
30
64
89
123
176
229
269
301
314
300
274
239
182
111
43
-14
-49
-62
-76
-93
-100
-104
-117
-124
-105
-69
-56
-71
-65
-20
5
-21
-58
-75
-83
-89
-80
-65
-70
-67
-39
-49
-65
27
159
281
484
529
125
-311
-302
-130
-130
-155
-112
-107
-127
-115
-102
-101
-96
-94
-92
-86
-79
-64
-44
-35
-20
28
93
153
205
240
253
250
219
153
72
-11
-92
-147
-170
-188
-202
-200
-203
-221
-229
-215
-194
-176
-156
-134
-112
-70
-19
-19
-76
-112
-94
-67
-50
-45
-54
-34
-11
-40
8
182
303
471
796
748
110
-338
-209
-48
-90
-93
-60
-84
-101
-95
-96
-85
-70
-63
-54
-55
-62
-40
10
51
81
134
214
274
307
355
389
351
281
214
111
2
-51
-81
-112
-123
-138
-154
-118
-73
-56
23
156
262
454
793
1080
1306
1636
1784
1315
467
-154
-377
-430
-472
-498
-499
-510
-540
-563
-579
-608
-645
-685
-734
-783
-822
-846
-856
-850
-811
-722
-596
-446
-271
-94
40
128
182
196
184
163
135
113
103
92
88
100
99
82
89
106
90
66
75
86
58
16
9
35
56
51
21
-19
-35
-19
-12
-32
-29
25
96
139
136
102
66
46
55
70
48
14
37
49
-23
-13
150
272
436
760
741
142
-315
-225
-75
-117
-138
-111
-122
-122
-98
-96
-102
-90
-73
-61
-48
-27
-2
19
38
69
121
184
233
261
289
319
314
267
209
145
76
14
-45
-107
-153
-157
-130
-115
-125
-90
20
144
312
573
816
1018
1257
1295
868
250
-155
-337
-425
-453
-461
-473
-479
-494
-523
-544
-566
-595
-614
-637
-680
-709
-696
-665
-618
-519
-377
-239
-120
-4
97
145
140
123
103
62
26
22
13
-2
9
23
5
-7
18
32
17
23
54
63
54
66
87
99
124
174
249
392
591
726
806
961
1059
890
705
754
714
346
-20
-140
-169
-214
-241
-262
-282
-281
-295
-331
-349
-359
-403
-457
-494
-535
-576
-591
-592
-596
-581
-528
-451
-360
-266
-193
-129
-58
-8
5
23
65
94
95
101
121
138
144
147
161
187
209
251
328
403
496
664
815
870
936
963
725
319
60
-30
-96
-144
-153
-162
-169
-167
-189
-216
-200
-185
-242
-338
-418
-484
-545
-580
-585
-564
-503
-387
-231
-71
61
162
228
239
201
160
136
104
72
70
70
35
4
16
39
41
39
46
46
27
16
28
28
3
-1
24
35
17
-6
-8
9
16
12
22
36
33
27
29
31
35
41
30
7
-4
-12
-30
-39
-36
-55
-98
-108
-43
44
66
30
-2
-23
-29
-2
6
-26
-1
37
-15
20
231
380
529
826
762
108
-353
-231
-85
-147
-137
-74
-115
-159
-131
-116
-128
-128
-139
-159
-146
-103
-79
-89
-90
-46
32
111
169
200
228
257
257
223
172
93
3
-51
-91
-172
-254
-252
-204
-203
-236
-239
-200
-161
-150
-122
-48
7
57
198
334
301
147
-89
-483
-870
-964
-816
-651
-497
-317
-160
-57
1
9
5
28
49
45
35
34
51
85
114
146
219
327
433
541
664
757
769
723
673
605
489
362
264
166
57
-18
-46
-71
-117
-151
-138
-105
-71
-10
61
119
264
531
750
901
1168
1471
1502
1138
500
-110
-396
-414
-425
-491
-539
-555
-551
-562
-608
-650
-675
-727
-792
-839
-877
-927
-979
-990
-922
-816
-722
-611
-461
-299
-140
-14
44
73
117
144
132
115
116
124
128
121
100
93
117
141
134
112
100
99
102
100
84
63
59
72
73
61
62
63
53
57
59
27
12
40
38
0
-1
46
109
157
151
106
85
84
78
88
98
88
93
96
76
116
218
331
554
751
500
-34
-226
-77
-20
-69
-58
-38
-49
-46
-39
-37
-32
-26
-16
-10
-16
-10
18
42
62
97
137
175
221
262
279
279
263
230
189
135
66
1
-65
-130
-158
-156
-163
-179
-179
-166
-146
-127
-113
-93
-67
-56
-75
-95
-92
-99
-130
-130
-92
-81
-76
-45
-40
-18
88
190
270
356
225
-153
-342
-202
-87
-112
-115
-102
-121
-114
-80
-68
-69
-59
-42
-28
-26
-26
-15
4
28
55
86
128
174
208
228
236
217
159
77
-2
-59
-91
-112
-128
-133
-134
-149
-161
-146
-120
-104
-91
-65
-20
24
27
-9
-39
-46
-54
-56
-51
-59
-47
-25
-69
-74
71
185
271
536
617
117
-402
-374
-184
-208
-245
-192
-173
-177
-167
-178
-183
-139
-103
-112
-109
-77
-59
-47
-8
37
75
130
194
247
292
318
299
232
142
59
-15
-87
-133
-152
-169
-170
-158
-169
-180
-158
-137
-122
-84
-36
-2
10
-10
-25
-17
-40
-84
-83
-70
-62
-21
-27
-56
76
251
308
466
596
218
-323
-342
-107
-106
-160
-105
-91
-107
-85
-85
-94
-50
-14
-17
-8
23
51
76
97
125
192
276
336
379
415
431
422
372
283
197
126
53
4
0
10
13
12
14
27
57
86
99
116
157
208
233
214
176
150
125
106
126
145
132
159
199
172
224
390
468
608
932
878
256
-160
-47
79
10
-67
-136
-221
-292
-379
-484
-575
-677
-806
-930
-1058
-1195
-1261
-1190
-1030
-865
-704
-541
-408
-314
-216
-103
-46
-90
-168
-191
-177
-184
-201
-176
-126
-110
-106
-53
25
94
192
302
436
714
1038
1219
1479
1903
1913
1250
507
105
-104
-220
-222
-204
-225
-246
-258
-265
-270
-294
-336
-362
-382
-432
-491
-519
-516
-493
-436
-339
-215
-81
44
153
240
288
286
251
218
198
169
129
98
80
66
66
71
59
36
21
15
12
7
0
0
-5
-34
-65
-72
-56
-38
-44
-58
-31
25
42
17
-8
-33
-70
-86
-77
-92
-118
-99
-87
-123
-93
25
169
383
491
152
-364
-476
-292
-234
-274
-261
-250
-263
-265
-275
-292
-288
-284
-299
-302
-280
-259
-245
-220
-186
-141
-56
62
151
193
223
255
274
283
292
297
300
311
327
351
381
387
359
350
384
414
438
561
789
943
969
1047
1197
1290
1432
1669
1660
1222
650
227
-11
-91
-102
-157
-248
-310
-360
-427
-488
-529
-578
-639
-701
-768
-841
-897
-930
-951
-944
-879
-768
-650
-533
-412
-311
-257
-249
-276
-322
-359
-375
-382
-382
-371
-366
-370
-350
-306
-278
-272
-257
-219
-166
-109
-50
17
97
164
176
162
202
291
344
336
325
347
386
430
442
369
269
239
203
111
149
309
398
561
767
471
-216
-471
-259
-172
-245
-243
-218
-225
-219
-211
-203
-198
-214
-217
-189
-169
-155
-129
-111
-70
20
97
135
199
269
279
267
262
207
106
32
-16
-75
-132
-160
-161
-153
-159
-175
-166
-141
-135
-122
-57
15
30
8
-11
-33
-53
-37
-3
-2
-3
37
40
28
164
342
439
677
894
549
-53
-169
24
33
-18
42
75
53
51
63
70
