# session 66
-15
-29
-7
65
202
372
510
622
720
764
758
729
671
633
656
655
589
542
539
523
500
496
474
434
425
434
410
366
342
333
312
283
264
257
247
224
204
226
278
292
246
190
162
144
128
116
88
58
77
85
19
22
166
283
415
643
569
31
-349
-245
-96
-135
-160
-135
-148
-159
-158
-171
-165
-141
-142
-149
-134
-122
-114
-87
-50
-14
24
63
118
168
154
105
95
85
15
-64
-106
-156
-218
-240
-230
-226
-238
-252
-234
-168
-100
-59
-4
69
92
38
-38
-78
-96
-132
-167
-163
-147
-151
-146
-148
-164
-97
20
82
165
209
-42
-392
-412
-235
-188
-210
-189
-176
-175
-158
-149
-146
-144
-142
-115
-78
-75
-81
-51
-7
26
66
119
166
196
214
214
176
104
20
-54
-113
-150
-165
-171
-177
-177
-172
-177
-180
-157
-130
-137
-143
-98
-45
-53
-95
-110
-105
-112
-107
-86
-92
-96
-47
-42
-99
-36
117
191
295
419
205
-237
-355
-161
-65
-87
-62
-27
-18
7
33
39
46
55
60
71
90
110
132
159
196
237
282
336
387
415
421
400
331
234
150
87
37
7
-8
-11
-11
-32
-60
-53
-15
34
106
236
426
599
732
923
1196
1477
1662
1460
738
-8
-305
-349
-422
-464
-452
-465
-489
-498
-517
-554
-599
-643
-684
-733
-784
-809
-813
-803
-763
-681
-570
-428
-245
-69
59
156
220
230
239
345
570
805
979
1227
1598
1708
1207
402
-148
-349
-413
-442
-448
-457
-465
-470
-496
-539
-571
-595
-623
-659
-692
-679
-589
-462
-354
-253
-132
-14
69
124
154
151
131
113
91
77
84
83
68
78
100
83
50
46
55
53
37
10
-2
9
3
-15
1
15
-7
-24
-19
-9
15
28
0
-8
33
44
12
-1
8
11
17
17
3
1
10
2
-7
3
14
19
28
17
-3
13
44
38
13
33
102
151
136
94
71
48
27
28
20
9
26
9
-8
110
276
426
699
797
311
-251
-251
-42
-60
-107
-62
-57
-69
-52
-52
-52
-38
-36
-33
-15
-2
11
31
58
97
144
182
209
227
226
207
190
172
126
64
16
-33
-89
-118
-128
-151
-161
-139
-129
-142
-132
-92
-70
-76
-71
-37
-4
-14
-73
-123
-126
-122
-133
-134
-132
-124
-92
-95
-113
-26
99
181
306
309
-45
-399
-352
-163
-141
-165
-139
-131
-127
-106
-103
-110
-97
-83
-75
-49
-11
15
38
82
140
194
245
298
330
336
331
291
196
87
-6
-80
-111
-114
-136
-157
-154
-159
-168
-147
-116
-105
-100
-89
-72
-41
-27
-63
-104
-93
-69
-70
-64
-49
-45
-36
-43
-71
-22
98
197
329
398
122
-293
-354
-155
-84
-117
-93
-64
-69
-61
-45
-40
-34
-28
-27
-8
23
41
58
99
150
195
247
306
350
371
367
331
264
172
75
6
-40
-79
-86
-66
-82
-127
-143
-127
-103
-78
-72
-66
-18
32
24
-16
-46
-63
-79
-91
-80
-65
-80
-82
-76
-105
-60
103
217
355
582
448
-140
-468
-298
-158
-203
-193
-145
-148
-145
-134
-139
-123
-89
-75
-64
-35
-3
21
45
91
160
231
294
363
402
363
289
237
172
66
-30
-94
-138
-138
-104
-94
-92
-54
10
157
434
702
894
1227
1748
1970
1446
479
-228
-450
-483
-523
-529
-506
-521
-566
-588
-582
-592
-647
-716
-753
-779
-831
-871
-847
-769
-656
-506
-323
-131
22
97
121
131
105
43
1
-4
-12
-20
-7
-1
-14
-12
0
-3
5
28
11
-29
-16
22
14
-5
14
24
3
0
14
-4
-20
16
36
-7
-11
80
158
157
137
126
110
98
100
107
101
97
114
92
61
172
353
470
645
720
321
-201
-240
-32
-17
-65
-30
-26
-52
-34
-5
2
12
32
44
51
65
86
107
135
183
246
299
331
350
355
328
272
219
181
118
21
-40
-53
-84
-139
-162
-160
-173
-172
-141
-125
-140
-149
-122
-61
-8
-21
-79
-109
-120
-163
-188
-158
-149
-169
-149
-154
-190
-111
21
150
479
744
374
-274
-429
-243
-202
-249
-236
-219
-209
-191
-183
-174
-155
-134
-109
-94
-77
-35
7
40
96
162
214
266
310
310
267
206
128
33
-58
-119
-148
-169
-183
-181
-174
-183
-203
-199
-161
-137
-150
-160
-133
-82
-45
-63
-116
-139
-136
-139
-132
-128
-142
-118
-82
-107
-74
84
198
324
554
495
10
-299
-184
-80
-136
-145
-109
-102
-84
-53
-45
-49
-37
-6
24
45
81
133
170
200
254
315
357
384
399
392
355
288
208
130
57
2
-25
-36
-42
-51
-63
-56
-32
-18
-3
18
13
13
71
122
95
52
53
67
86
142
201
238
337
498
577
660
964
1231
981
343
-134
-284
-308
-318
-321
-333
-341
-330
-332
-351
-375
-411
-441
-448
-463
-493
-511
-520
-522
-490
-418
-325
-224
-132
-57
1
34
32
5
-20
-33
-50
-71
-71
-59
-53
-48
-41
-41
-40
-36
-31
-15
-7
-16
0
48
68
41
6
-17
-34
-39
-21
-9
-30
-23
20
-3
-36
66
202
321
531
553
98
-348
-305
-118
-128
-153
-98
-87
-112
-110
-106
-107
-98
-94
-87
-63
-47
-42
-13
39
91
166
268
336
359
379
374
307
219
144
65
-9
-56
-87
-107
-107
-104
-109
-112
-107
-94
-82
-89
-77
-6
55
48
20
1
-18
-21
-22
-29
-19
-14
-8
15
-15
-18
135
289
413
669
686
126
-379
-331
-178
-206
-192
-133
-144
-151
-139
-137
-102
-74
-93
-80
-26
0
32
94
125
154
254
362
399
394
372
311
236
170
75
-46
-114
-117
-130
-166
-167
-143
-151
-171
-124
-3
90
132
291
644
957
1100
1289
1538
1479
951
249
-264
-465
-481
-501
-559
-583
-578
-594
-624
-653
-689
-724
-754
-796
-847
-874
-878
-863
-791
-652
-488
-314
-120
50
144
169
161
145
128
112
91
72
74
91
88
69
69
75
59
46
54
53
43
39
38
37
38
32
16
-1
-19
-34
-38
-36
-39
-32
15
88
103
38
-13
-13
-18
-30
-14
7
29
51
24
36
178
294
405
704
791
274
-244
-212
-41
-72
-100
-58
-51
-51
-35
-33
-36
-22
12
41
37
22
40
93
154
203
249
297
335
356
356
327
281
228
157
81
31
-10
-52
-63
-53
-57
-68
-67
-58
-37
-11
-3
-9
-8
14
48
45
-8
-50
-56
-84
-136
-153
-160
-186
-185
-180
-204
-155
-19
92
250
399
184
-284
-431
-253
-181
-217
-178
-150
-173
-145
-98
-102
-97
-61
-42
-33
-7
13
26
67
123
166
199
234
262
270
245
190
128
66
-1
-52
-73
-78
-87
-93
-86
-78
-78
-82
-73
-42
-22
-37
-41
0
35
15
-32
-66
-77
-85
-101
-107
-104
-104
-94
-92
-111
-76
42
202
404
468
143
-305
-392
-224
-163
-188
-173
-166
-178
-173
-167
-163
-145
-137
-144
-129
-87
-59
-45
-14
41
108
190
269
304
306
310
293
213
100
23
-6
-34
-82
-110
-100
-91
-104
-115
-96
-61
-45
4
121
220
415
936
1405
1124
253
-403
-537
-388
-205
-106
-98
-110
-108
-107
-110
-121
-140
-157
-166
-181
-202
-205
-194
-168
-85
54
172
247
314
370
370
300
203
128
76
17
-28
-35
-32
-48
-59
-54
-58
-77
-88
-75
-57
-72
-102
-95
-74
-83
-97
-90
-82
-79
-71
-68
-93
-125
-123
-115
-146
-149
-65
19
5
-55
-75
-62
-52
-40
-33
-51
-42
-17
-68
-67
116
278
396
657
690
159
-330
-288
-125
-149
-172
-140
-137
-137
-129
-127
-108
-79
-67
-58
-37
-5
34
69
103
164
254
315
322
323
335
312
252
198
142
66
-10
-66
-92
-101
-130
-159
-129
-94
-128
-152
-82
-17
-60
-125
-85
2
4
-55
-84
-98
-133
-158
-167
-190
-191
-127
-93
-153
-134
21
131
278
561
513
-37
-407
-289
-162
-206
-193
-144
-165
-166
-114
-88
-92
-82
-65
-61
-48
-13
17
43
106
187
237
275
323
344
328
298
239
138
47
7
-9
-40
-75
-78
-57
-52
-70
-84
-76
-63
-61
-62
-49
-9
41
56
21
-25
-49
-54
-48
-43
-57
-72
-49
-27
-51
-40
45
129
277
495
430
-10
-319
-249
-121
-122
-135
-116
-102
-93
-88
-84
-72
-54
-37
-27
-20
0
36
72
112
166
219
263
311
348
341
308
270
214
138
70
28
5
-7
-12
-14
-20
-36
-48
-37
-6
34
82
133
221
412
611
679
750
928
895
457
-32
-272
-370
-427
-425
-426
-470
-495
-483
-491
-525
-558
-584
-614
-649
-690
-718
-713
-687
-649
-571
-438
-279
-135
-16
73
115
106
78
52
26
13
23
29
23
22
17
4
10
36
47
32
24
38
53
47
35
47
75
80
57
56
90
101
69
58
99
153
172
143
103
86
66
35
47
78
68
64
65
24
88
284
409
575
862
733
81
-295
-133
3
-62
-74
-35
-38
-40
-23
-14
-18
-24
-12
18
38
44
63
105
157
209
271
346
397
396
373
348
284
184
93
18
-53
-101
-124
-137
-138
-133
-129
-132
-137
-123
-90
-78
-80
-29
100
241
356
503
670
751
847
1102
1212
806
150
-261
-399
-460
-477
-483
-517
-511
-465
-472
-534
-583
-589
-575
-612
-706
-760
-764
-789
-796
-737
-659
-554
-385
-219
-101
3
62
47
22
13
-15
-38
-38
-44
-41
-21
-25
-43
-29
-7
-6
0
13
14
11
19
24
11
4
19
15
-1
55
159
186
137
110
111
93
71
77
87
83
112
140
88
92
250
392
565
858
792
184
-229
-105
29
-35
-50
-20
-41
-39
-5
-6
-29
-30
0
25
16
16
66
126
170
235
320
380
414
442
447
409
352
289
208
116
45
3
-26
-49
-66
-74
-74
-81
-99
-101
-78
-65
-68
-57
-25
-3
-17
-57
-89
-105
-117
-126
-140
-144
-103
-82
-153
-171
-56
30
179
521
565
21
-436
-367
-218
-260
-278
-237
-255
-281
-253
-219
-208
-201
-187
-155
-113
-90
-68
-11
49
97
168
239
260
263
267
232
159
87
11
-68
-109
-110
-118
-136
-133
-123
-140
-164
-159
-141
-135
-140
-143
-120
-70
-39
-58
-97
-121
-133
-146
-149
-139
-137
-130
-112
-133
-146
-43
103
209
307
233
-127
-402
-313
-143
-119
-113
-64
-39
-29
-7
4
4
15
33
44
51
64
95
139
186
238
303
369
420
451
451
410
351
285
206
132
76
28
0
0
5
1
-11
-18
1
37
83
152
215
296
505
754
850
930
1104
1026
549
70
-153
-249
-300
-304
-318
-351
-363
-369
-391
-413
-438
-485
-539
-579
-608
-630
-630
-606
-558
-464
-320
-169
-51
41
106
124
112
103
86
46
9
1
5
-1
-6
-11
-27
-29
-3
13
-1
-20
-23
-15
-13
-29
-38
-34
-43
-73
-100
-112
-103
-91
-103
-112
-65
10
32
-2
-26
-24
-34
-43
-19
-17
-35
4
26
-16
65
261
388
598
845
569
-111
-354
-121
-41
-143
-133
-88
-115
-128
-107
-92
-75
-71
-86
-83
-51
-15
18
53
101
164
227
297
361
371
336
293
223
118
17
-60
-101
-106
-127
-184
-218
-201
-179
-191
-205
-170
-129
-132
-122
-31
113
237
330
464
647
762
847
1103
1381
1221
593
-17
-308
-390
-406
-393
-381
-379
-376
-390
-417
-422
-420
-439
-466
-489
-519
-547
-542
-510
-480
-432
-331
-194
-56
72
170
208
198
183
174
147
103
78
78
68
59
74
67
34
42
68
45
15
28
37
21
8
-12
-39
-46
-51
-77
-72
-12
42
46
21
-6
-30
-44
-44
-35
-42
-44
-6
-4
-37
41
171
288
632
980
646
-105
-371
-195
-148
-214
-194
-166
-171
-171
-174
-166
-145
-140
-132
-104
-83
-67
-27
30
86
150
218
269
299
317
316
283
225
148
61
-15
-67
-107
-137
-147
-136
-117
-112
-130
-146
-134
-103
-85
-96
-93
-45
-6
-40
-103
-135
-154
-173
-164
-153
-166
-155
-123
-142
-143
-18
117
224
425
474
92
-307
-288
-128
-129
-165
-140
-119
-109
-89
-66
-54
-52
-25
27
57
69
107
164
207
249
313
378
416
427
420
389
318
212
118
59
7
-43
-56
-47
-58
-70
-58
-60
-74
-47
3
21
22
58
144
237
282
315
438
599
671
775
1026
1137
808
248
-151
-304
-348
-370
-370
-351
-343
-355
-369
-386
-411
-432
-450
-475
-505
-540
-580
-594
-562
-499
-411
-291
-163
-56
26
78
99
98
69
19
-11
-23
-53
-88
-96
-88
-87
-99
-110
-100
-74
-63
-72
-76
-74
-90
-117
-116
-85
-80
-102
-86
-25
13
5
-13
-32
-47
-48
-39
-39
-53
-34
11
-9
-27
109
275
415
733
906
395
-294
-366
-119
-112
-184
-134
-103
-135
-147
-139
-129
-120
-117
-107
-86
-68
-38
8
54
117
219
314
354
370
402
418
361
239
116
33
-22
-76
-129
-152
-144
-134
-138
-149
-146
-109
-63
-48
-42
27
172
334
493
675
833
927
1088
1363
1435
1012
325
-172
-367
-421
-437
-448
-477
-496
-485
-482
-503
-530
-553
-570
-599
-652
-689
-686
-685
-685
-628
-509
-372
-223
-69
58
143
184
179
158
147
130
110
104
100
97
107
113
109
120
135
140
175
234
247
256
352
480
615
881
1266
1485
1276
699
115
-155
-149
-93
-90
-128
-201
-273
-293
-289
-318
-364
-384
-397
-429
-455
-447
-426
-411
-377
-304
-206
-109
-22
55
107
134
141
117
69
28
-1
-35
-64
-82
-104
