# session 200
-36
4
21
-7
-73
-79
9
36
-25
-4
48
41
98
86
-40
93
114
-286
2
480
-968
-2738
-1878
10
512
-107
-1385
-2117
-916
520
426
-34
-67
-165
-162
46
96
89
184
223
204
224
265
313
345
339
365
423
420
432
522
489
410
580
647
486
675
688
230
842
1172
-1565
-3157
-45
934
-2845
-3331
-299
-768
-2249
-274
1268
417
237
763
584
472
652
591
580
674
622
669
755
632
645
718
524
704
984
450
762
1851
-366
-3709
-1542
1658
-1765
-5195
-1178
2636
-687
-4532
-2966
117
602
-800
-2217
-1899
120
1206
675
466
766
631
468
598
588
449
421
456
470
428
420
568
652
633
858
985
749
1028
1301
-180
-1786
-785
911
698
199
696
695
349
879
279
-3100
-5508
-3426
143
1183
652
674
893
808
835
922
854
844
891
832
817
856
750
754
927
743
578
905
638
276
1453
825
-4226
-6832
-2479
1631
1145
573
1049
665
969
1104
-1507
-3145
-679
1535
965
526
974
849
585
728
757
696
778
818
800
848
920
968
966
948
986
968
846
787
716
584
626
528
173
482
591
-2198
-6673
-8265
-6902
-6026
-4736
-887
1355
-1810
-5122
-2933
1244
2385
1837
2072
2309
1813
1305
1033
784
655
646
620
617
627
544
447
455
440
315
253
307
286
190
152
105
5
-10
39
45
85
197
303
382
425
495
593
483
367
565
429
29
527
543
-1677
-3065
-1145
702
274
-137
245
199
7
160
217
167
222
221
171
197
208
175
177
184
144
124
166
202
192
200
239
266
308
324
251
249
291
197
245
353
70
114
507
-119
-210
1258
-506
-5454
-5613
-2035
-2533
-4110
-1385
1115
422
65
636
439
240
498
488
397
503
503
428
451
485
512
549
555
582
649
686
707
727
730
745
710
704
929
920
432
524
928
-397
-2377
-1906
-121
104
-443
-286
-18
-8
-72
-247
-144
334
618
785
1176
1444
1534
1839
2020
1546
813
415
297
235
218
220
204
229
238
165
176
218
48
-19
175
45
-462
-1020
-1481
-881
308
-795
-3294
-2685
222
1068
353
568
1002
836
840
960
808
840
957
766
855
1071
596
670
1566
111
-3818
-6423
-6924
-5577
-1665
932
-983
-2151
947
2793
0
-2620
-1263
1305
1828
1292
1389
1617
1454
1378
1463
1379
1307
1527
1588
1308
1482
1350
-1245
-4979
-6354
-5847
-5501
-4026
-405
2716
2092
-2338
-5893
-3654
1571
2869
-86
-2740
-2709
-85
2041
295
-1905
62
2901
2815
2141
2515
2528
2184
2255
2324
2203
2238
2297
2161
2116
2202
2012
1905
2168
1824
1475
2549
2001
-2734
-6376
-3820
1697
3702
-452
-5742
-5078
-1482
-1349
-1093
1877
1669
-1351
-673
2051
1980
1038
1698
1848
369
-392
634
1572
1509
1331
1219
1183
1298
877
788
1704
297
-4082
-6692
-7196
-7279
-3708
1058
188
-1210
2221
2158
-2989
-3484
-874
-1989
-3347
-3094
-3617
-1614
2155
912
-2254
-569
2209
1768
1099
1638
1627
1296
1381
1403
1304
1329
1349
1318
1323
1371
1368
1271
1242
1222
1024
965
992
612
567
1016
-32
-1911
-1199
788
468
-331
193
-706
-2460
-1460
593
554
7
411
558
336
460
619
642
825
1036
1053
1035
1231
1577
1658
1242
637
241
143
178
122
50
124
100
-2
97
-57
-288
254
6
-1789
-1432
695
-1334
-5452
-4886
-2718
-3425
-2955
-133
654
-167
147
623
470
550
695
599
614
629
496
486
537
462
444
480
424
454
471
323
477
588
25
233
979
-1632
-6311
-5799
-475
1575
-484
-801
202
-1705
-4002
-2295
726
1152
505
707
873
720
795
821
755
934
1087
1135
1414
1527
997
440
445
640
646
566
525
538
531
489
537
575
502
567
589
363
545
777
245
506
1373
-520
-3053
-1668
-513
-3311
-3984
-208
1881
1010
852
1279
979
809
920
761
682
800
739
668
764
697
554
657
630
500
783
664
136
897
1180
-1532
-3726
-3617
-5000
-5823
-1960
768
-2041
-3853
-1271
97
-2244
-3744
-1481
1586
2315
1797
1690
1514
1157
1245
1453
1362
1305
1408
1400
1312
1325
1299
1209
1295
1285
1085
1345
1438
720
1195
1990
-1640
-6670
-4928
719
2333
1449
1474
1288
1684
2127
-378
-2475
-1255
-1436
-2984
-1830
-1454
-3315
-1899
1645
2033
1047
1413
1598
1250
1394
1515
1273
1286
1524
1453
1288
1431
1345
1020
1484
1377
-1490
-3642
-664
2549
-388
-4077
-1785
872
-1129
-1834
1073
2011
883
1043
1154
723
715
-1214
-4912
-6587
-6399
-5336
-1624
2237
2177
1369
2573
1433
-2279
-2185
1444
2641
1616
1757
2102
1642
2009
1935
-1294
-4342
-2920
-1054
-2494
-2740
-315
148
-1155
-1246
-600
485
1842
2059
1724
1776
1715
1998
2169
135
-3431
-5098
-2312
3270
4524
-1843
-7408
-5026
-153
752
-948
-2680
-3716
-3306
-1548
601
2050
2104
1619
1604
1629
1387
1255
1212
1132
1056
929
931
1120
1098
1104
1591
1208
-1510
-4288
-3226
658
2370
1480
1844
2442
-23
-2230
-505
2009
2467
959
-2635
-4710
-1319
2175
-34
-2577
-275
2348
1870
1195
1619
1683
1444
1495
1549
1457
1358
1394
1399
1168
1241
1451
928
1020
1947
-16
-3212
-1099
2251
-871
-3962
-825
547
-2479
-1971
1416
1638
641
1185
1419
1249
1684
1590
809
677
1014
902
765
1054
963
538
969
1120
-1306
-5284
-7804
-6577
-1596
1716
-1083
-4053
-1879
-533
-2244
57
3922
185
-5718
-4086
-492
-1361
-2007
-568
63
1082
2723
2578
1880
2195
2178
1872
2093
1962
1655
1968
1775
1369
2378
1891
-2780
-6714
-6551
-6274
-6246
-2646
2208
3697
2170
-376
-2465
-2951
-2259
-808
742
-67
-2894
-3270
-213
2214
2206
1766
1899
1908
1766
1787
1716
1502
1486
1584
1507
1566
1839
1652
1539
2205
932
-3327
-4364
-4
910
-4494
-6439
-1300
3164
2393
-730
-1746
749
2895
1975
1653
2669
-219
-5449
-5347
-531
2667
2748
6
-4959
-6642
-1747
3117
1438
-2840
-2813
624
2582
2504
2259
2292
2774
2493
-467
-3200
-1261
2774
3263
53
-3839
-6637
-6355
-2788
-157
-186
815
3257
3696
2577
2308
2467
2333
2340
2392
2274
2213
2221
2139
2017
2033
2104
1965
1861
1926
1637
1567
2338
1599
-1669
-2884
580
3442
937
-2591
-581
3359
636
-5478
-4823
-381
-1777
-5343
-3442
-938
-2911
-3476
431
3095
2515
2162
2507
2335
2326
2314
1968
2509
2676
-282
-4628
-6784
-5953
-2542
1507
3078
2439
2004
2189
2415
2190
1164
-463
-2648
-4236
-3645
-2800
-3148
-1525
2048
2877
1681
2510
2811
-1169
-5610
-6209
-5242
-5252
-5167
-4659
-4661
-4942
-5071
-4970
-4626
-4754
-4868
-2206
3034
5469
2572
-1090
-2239
-2674
-2005
1092
2053
-1543
-3162
640
4230
4274
3622
3806
3782
3574
3638
3553
3322
3422
3493
3342
3694
4056
3805
4358
4605
1579
-1338
-749
-1678
-5212
-4695
-914
162
-107
1138
1961
1568
1414
1459
1261
1230
1323
1173
946
913
943
870
877
976
864
898
1279
1016
658
1533
624
-4398
-7439
-3540
1636
1982
-590
-2598
-3495
-3739
-3812
-3176
-857
1571
1957
1351
1372
1528
1325
1151
1244
1344
1035
930
1451
85
-4663
-8169
-5846
-719
1669
1126
873
1602
835
-2729
-6063
-5163
-1020
1742
1734
1273
1408
1413
1197
1100
1173
1209
790
246
448
1080
1272
1129
925
598
401
500
605
573
496
429
415
442
426
357
292
271
299
336
347
352
382
423
416
344
315
349
324
309
317
245
383
539
148
-51
-655
-4091
-7447
-5897
-3461
-4426
-3813
109
1654
477
453
1027
792
723
914
816
801
957
949
866
835
797
804
848
829
788
783
802
836
766
623
671
741
744
1153
1301
432
205
816
-631
-3578
-4531
-3412
-2138
-2325
-4201
-4145
-1417
-1500
-3820
-2184
1299
1461
526
1000
1222
928
1086
1225
1133
1195
1253
1205
1229
1242
1164
1107
1090
1039
938
829
784
782
728
668
640
579
623
765
666
590
776
518
362
1270
719
-2565
-3776
-864
1193
471
116
615
483
242
378
341
268
455
591
669
905
913
438
44
86
187
164
190
229
228
303
365
324
374
438
312
340
503
309
363
735
142
-3
1422
-138
-5032
-5258
-710
732
-187
99
-1925
-5510
-4381
-254
1012
252
327
579
369
353
453
394
377
419
416
396
362
360
412
415
366
346
339
348
335
243
229
301
234
233
357
184
176
606
356
-104
310
-223
-2068
-3100
-4213
-5385
-3955
-2503
-3651
-3015
215
1150
184
417
828
523
575
816
718
699
823
823
847
953
933
960
1180
1113
943
1347
1347
676
1341
1746
-1559
-4466
-1837
1741
1473
574
1130
1063
690
1091
943
626
1436
738
-2627
-3701
-707
1360
743
411
809
706
598
787
758
660
776
863
815
911
1121
1123
1256
1627
1134
246
826
942
-1973
-3999
-1508
1318
1090
589
1062
847
642
1124
861
291
-300
-2962
-5254
-3196
-1360
-3471
-3476
562
2426
1431
1448
1990
1738
1701
1904
1733
1581
1605
1509
1423
1505
1473
1238
1250
1284
408
-616
-65
1148
1223
1022
1276
941
800
1478
-362
-5588
-8372
-5276
-613
387
-2365
-4264
-1905
1298
1435
1416
2288
-563
-5468
-6664
-6194
-5904
-2019
2012
-286
-3470
-927
2752
2933
1870
2033
2893
1668
-2676
-6097
-6333
-6009
-4694
-442
3082
2884
2103
2724
2706
2036
2642
2789
-214
-3436
-2711
-219
-368
-2619
-3195
-771
1997
2592
2045
2052
2183
1982
1953
2090
2083
2116
2347
2578
2662
2716
2866
2942
2690
2104
1360
868
918
930
527
592
999
-365
-4323
-8140
-7468
-2308
560
-2186
-3998
-1087
1249
576
181
605
430
277
486
484
518
757
824
809
925
971
873
792
757
731
708
671
609
538
532
569
507
451
509
451
398
522
359
254
671
345
-96
1139
391
-4122
-5092
-1264
-1061
-3610
-1853
1100
595
-185
472
538
242
427
471
366
477
524
415
431
603
725
866
1193
1201
526
97
348
350
263
585
21
-837
318
933
-1590
-2635
-646
-1211
-3432
-1554
1697
928
-1625
-1652
277
1063
398
724
1428
-272
-2166
-732
1437
1348
848
1129
1107
855
766
739
826
577
401
1120
447
-3289
-6737
-7443
-6494
-3600
785
2560
1060
998
2452
3
-4584
-3435
1476
1114
-3314
-3788
-382
1623
1563
1515
1753
1891
1931
1685
1323
1322
1497
1489
1484
1574
1557
1506
1563
1543
1444
1489
1476
1332
1469
1517
1096
1339
1871
-260
-4723
-6770
-4258
-244
1792
1778
1554
1475
1307
1802
1725
-939
-3740
-4024
-3887
-3621
-815
1908
1619
1667
2213
-1629
-6492
-4552
1130
2938
1846
1814
2262
1951
1709
1962
1860
1333
1686
2136
-286
-4832
-7313
-6727
-5683
-5991
-6486
-4528
-336
2728
2969
1559
96
-1016
-2147
-2048
431
2668
2503
1940
2236
2246
1962
1987
1971
1829
1829
1855
1841
1873
1876
1819
1792
1828
1850
1754
1626
1529
1105
351
255
1170
1690
1123
983
1406
683
363
1765
-37
-5619
-6493
-2618
-2599
-4274
-1668
-269
-3345
-3640
165
1695
1160
1751
829
-1983
-1786
1056
1952
1303
1488
1842
1813
1813
1429
881
961
1160
987
983
1041
842
962
1056
581
950
1452
-1414
-5951
-7433
-7214
-7388
-5354
-1952
-1449
-2502
-1238
849
-36
-2568
-1994
1361
2823
2013
1836
2215
1984
1729
1767
1695
1588
1571
1539
1518
1490
1384
1294
1288
1307
1324
1289
1168
1119
1170
1084
965
1028
908
666
1057
886
-2560
-7597
-8447
-5022
-2934
-1998
673
445
-4378
-5241
-191
2532
1377
1115
1709
1428
1218
1364
1267
1221
1324
1265
1157
1136
1064
1006
1153
1197
949
1077
1425
984
908
1860
495
-3260
-3522
206
2048
1215
978
1291
1111
886
854
1014
862
391
1112
1206
-3168
-7756
-5278
187
40
-3432
-3503
-2675
-5541
-6967
-2453
983
-1999
-5442
-4061
-418
1859
2238
1918
2069
2551
2473
1809
1360
1432
1554
1450
1367
1409
1415
1371
1339
1269
1213
1260
1255
1171
1194
1113
932
1121
1124
687
1262
1526
-1798
-5346
-3333
1049
1906
844
951
1193
882
813
829
685
695
781
749
672
607
591
608
566
521
545
543
492
485
516
510
436
409
537
580
480
626
586
-390
-1038
5
989
626
1014
1969
-524
-5449
-5505
142
1945
-3534
-5915
-1592
-1564
-6249
-4427
-93
-2356
-4501
-2422
-2296
-2323
1147
2934
1665
1557
2158
1793
1708
1999
1863
1764
1884
1781
1648
1805
1777
1366
1473
1930
808
-2161
-4711
-4877
-2428
857
2465
1967
1107
1663
2832
815
-4497
-7374
-6703
-6816
-6493
-3210
-1632
-3469
-2752
1281
3167
2551
2610
3053
2881
2879
2936
2446
2084
2258
2340
2177
2130
2065
1870
1912
2009
1703
1639
2037
1018
-2233
-4909
-3796
299
2692
1590
1552
3198
216
-4772
-2814
866
-2874
-7261
-4722
-913
-1222
-3238
-3192
-209
2765
3008
2252
2418
2536
2241
2275
2368
2206
2267
2492
2437
2565
2947
2629
2527
3703
2938
-1385
-3642
-424
2900
1322
-3118
-6407
-7402
-6598
-4707
-3016
-2522
-3130
-3766
-2560
472
2350
2007
1600
1810
1703
1528
1650
1705
1697
1807
1984
2076
1946
2005
2260
1829
1569
2389
1399
-1953
-2630
75
1692
705
-3207
-7680
-5502
303
-1662
-6325
-2511
1404
-2648
-4202
482
757
-4003
-4504
-296
2581
2713
2227
2270
2481
2060
1329
1428
2130
2301
1984
1888
1992
1897
1659
1622
1660
1510
1598
2005
1846
1142
791
662
654
1084
627
-1474
-3323
-4493
-5764
-4859
-1183
1269
1582
1704
-210
-5114
-8619
-7411
-2957
1159
2473
1940
1737
1928
1883
1694
1657
1906
1622
1045
1969
1785
-3223
-7308
-3875
1463
1930
624
1074
1340
663
1106
1667
-1312
-5700
-5257
-2151
-3058
-4810
-1751
1906
1790
982
1371
1358
1059
1222
1332
1263
1364
1559
1570
1232
761
690
979
927
672
933
917
267
907
1369
-2745
-7954
-6855
-1806
1122
1787
386
-2364
-2625
-1402
-2159
-2827
-2139
-1543
112
2264
2217
1389
1722
1876
1433
1348
1408
1290
1280
1344
1321
1286
1274
1242
1192
1141
1125
1165
1209
1199
1148
1110
1115
1137
1125
1078
1059
1065
1006
918
897
918
1054
1249
1166
1141
1278
497
-56
1449
1057
-3483
-4799
-886
-921
-5234
-4549
205
1697
783
1018
1409
1094
1006
1103
1028
1018
1084
1091
1046
997
1046
1068
938
949
965
664
639
685
-5
201
919
-2939
-9033
-7341
-597
-370
-3293
-982
415
-3421
-4219
-373
899
-410
-360
43
-342
-401
-268
-458
-538
-505
-599
-670
