# session 18
94
119
197
276
338
421
486
489
463
427
352
256
176
118
74
37
-1
-25
-15
21
74
151
240
328
476
744
1029
1232
1520
1963
2113
1567
664
18
-251
-368
-442
-479
-511
-553
-578
-582
-598
-638
-685
-735
-792
-845
-886
-909
-903
-857
-756
-598
-418
-240
-57
114
293
569
833
914
1089
1598
1861
1351
542
34
-221
-374
-408
-407
-447
-475
-478
-493
-525
-565
-600
-635
-680
-706
-678
-612
-525
-425
-326
-205
-59
31
17
-31
-49
-41
-20
10
26
17
11
31
77
126
122
46
-14
3
15
-33
-53
-4
49
88
110
93
94
115
73
69
203
324
406
514
362
-105
-342
-170
-29
-61
-67
-48
-63
-53
-27
-37
-38
6
34
14
7
50
101
129
156
196
236
261
276
293
281
224
174
149
83
-20
-65
-57
-78
-114
-109
-95
-109
-112
-86
-71
-67
-50
-36
-20
15
28
0
-15
-18
-46
-61
-30
-11
-29
-19
18
22
46
148
260
350
383
193
-152
-271
-103
25
3
-14
17
33
39
57
70
72
75
80
96
126
156
175
199
236
283
334
369
384
394
383
346
323
296
214
123
96
104
84
57
68
97
109
135
171
178
219
335
467
616
664
333
-232
-517
-487
-506
-641
-738
-779
-782
-760
-780
-828
-813
-755
-726
-720
-709
-691
-663
-619
-543
-428
-296
-171
-58
40
116
158
152
129
118
94
57
50
64
49
25
33
53
52
43
48
48
37
41
53
39
22
32
41
29
23
29
33
36
38
32
18
10
10
11
13
3
-27
-37
-11
-14
-55
-44
36
89
73
44
32
8
1
58
115
124
196
382
548
530
213
-315
-667
-626
-439
-313
-177
-45
-22
-48
-34
-18
-16
-1
6
-6
-3
17
30
37
51
76
118
168
230
316
397
451
499
542
540
492
422
334
242
171
127
90
40
-3
1
41
69
55
30
42
76
83
73
78
70
45
70
153
226
251
232
195
183
193
201
213
212
204
241
268
245
332
522
640
774
876
568
55
-27
227
311
237
233
290
332
335
295
214
105
59
141
226
198
162
213
258
249
287
373
363
206
-20
-264
-513
-743
-964
-1207
-1421
-1541
-1633
-1761
-1888
-2023
-2166
-2151
-1904
-1590
-1334
-1120
-942
-794
-650
-542
-473
-361
-189
-74
-87
-131
-113
-73
-38
23
77
109
176
214
200
315
526
660
897
1158
885
259
77
279
316
255
301
325
293
307
327
311
309
325
308
253
188
130
77
33
26
78
172
260
316
354
392
417
394
329
267
224
181
136
106
100
99
92
102
130
134
117
122
142
150
144
133
136
182
232
232
200
162
125
112
130
136
107
95
124
113
71
140
279
383
570
714
398
-155
-289
-92
-71
-198
-221
-187
-180
-159
-130
-128
-131
-119
-110
-106
-87
-57
-35
-24
-2
43
94
134
152
169
205
207
127
42
8
-45
-134
-185
-187
-174
-156
-144
-138
-121
-105
-106
-109
-104
-84
-43
-14
-29
-37
11
62
45
-3
-19
-23
-44
-58
-59
-54
-26
-9
-33
-8
93
185
301
387
157
-296
-495
-400
-357
-430
-521
-615
-638
-542
-429
-359
-296
-233
-183
-132
-82
-42
-4
40
99
165
216
258
288
307
328
317
205
50
-22
-30
-77
-161
-212
-225
-225
-198
-154
-128
-105
-64
-44
-51
-32
7
19
26
72
111
87
35
10
3
-12
-16
-6
-10
-9
8
-7
-10
80
178
259
397
373
3
-316
-256
-105
-105
-121
-97
-101
-107
-93
-86
-78
-64
-58
-49
-24
-1
13
31
58
88
124
174
235
280
299
306
296
248
174
105
48
8
-17
-39
-59
-64
-62
-66
-72
-82
-86
-71
-51
-54
-59
-26
31
57
28
-18
-34
-45
-64
-53
-40
-74
-78
-37
-60
-40
143
298
410
622
553
-8
-391
-235
-43
-63
-74
-40
-37
-45
-69
-78
-25
22
25
37
58
65
80
118
178
251
306
356
428
488
499
486
457
387
294
221
164
106
62
53
47
-18
-156
-293
-345
-318
-258
-171
-75
-5
87
251
444
649
857
967
1025
1250
1480
1225
527
-54
-314
-449
-526
-546
-598
-678
-720
-748
-792
-838
-872
-903
-1034
-1313
-1538
-1525
-1386
-1272
-1174
-1052
-897
-700
-496
-326
-178
-37
59
98
174
356
556
630
563
521
692
879
569
-180
-649
-584
-404
-314
-214
-160
-183
-134
-17
27
5
-6
-3
6
29
61
124
242
382
498
588
660
706
728
723
679
613
548
477
399
335
281
220
166
135
104
70
48
35
23
16
9
-2
-6
-6
-13
-18
-15
-19
-30
-28
-20
-21
-22
-13
-8
-16
-27
-29
-24
-17
-22
-38
-44
-40
-33
-22
-22
-46
-57
-40
-36
-53
-67
-76
-73
-60
-68
-94
-100
-91
-98
-118
-106
-50
0
7
-9
-32
-61
-71
-65
-85
-89
-47
-54
-74
48
219
344
541
571
106
-386
-357
-155
-185
-242
-180
-144
-160
-168
-172
-165
-143
-131
-130
-119
-98
-69
-39
-21
0
43
97
143
175
190
191
174
144
122
106
66
10
-31
-49
-53
-65
-92
-105
-85
-61
-53
-55
-50
-23
4
3
7
47
77
61
27
0
-19
-26
-24
-20
-12
6
3
-35
-17
103
222
336
449
301
-118
-328
-181
-55
-76
-74
-51
-64
-65
-46
-37
-27
-9
2
4
12
32
58
76
89
125
188
238
260
279
295
276
222
167
115
41
-25
-46
-61
-93
-101
-75
-57
-56
-23
46
101
187
394
605
698
852
1060
894
315
-147
-278
-309
-350
-365
-377
-391
-397
-417
-437
-441
-462
-504
-536
-564
-602
-625
-615
-584
-532
-445
-323
-189
-71
18
80
109
99
63
26
-1
-24
-46
-56
-50
-45
-49
-49
-46
-47
-37
-15
-6
-17
-32
-41
-41
-31
-31
-51
-60
-42
-26
-41
-76
-97
-81
-56
-66
-81
-32
42
58
31
12
-8
-28
-12
6
-18
-14
37
27
24
170
336
492
757
767
221
-268
-206
-24
-57
-93
-52
-48
-68
-65
-42
-11
0
-2
22
50
62
94
140
160
179
237
321
400
446
451
441
429
397
338
261
181
118
83
49
3
-19
-2
1
-30
-35
-3
16
36
94
172
271
405
530
660
834
958
1058
1332
1569
1287
611
60
-243
-417
-468
-453
-447
-415
-393
-449
-497
-473
-477
-532
-562
-577
-626
-677
-702
-724
-725
-650
-520
-421
-340
-194
-15
82
106
140
149
86
65
127
123
72
87
-59
-497
-724
-448
-220
-484
-940
-1196
-1181
-972
-741
-604
-497
-383
-325
-296
-215
-87
25
63
39
26
39
48
63
85
102
146
163
125
196
385
522
725
957
708
73
-164
42
115
39
80
134
95
81
117
130
127
132
135
146
168
177
179
198
243
299
347
386
420
440
450
459
435
351
243
160
99
46
2
-34
-58
-59
-54
-74
-100
-88
-56
-42
-41
-24
21
71
70
16
-27
-54
-92
-98
-76
-97
-105
-58
-75
-100
34
179
235
386
410
-23
-440
-369
-185
-202
-210
-149
-153
-171
-142
-124
-135
-129
-97
-71
-66
-56
-27
0
20
57
110
160
212
261
282
271
234
157
54
-24
-69
-114
-151
-156
-153
-163
-171
-163
-146
-139
-134
-100
-56
-49
-47
2
51
41
-5
-42
-48
-29
-24
-51
-54
-25
-43
-73
8
127
218
415
545
222
-260
-324
-143
-130
-171
-113
-93
-131
-123
-96
-100
-90
-49
-33
-47
-36
6
36
47
78
131
172
205
256
303
309
286
245
181
110
44
-16
-52
-61
-75
-85
-70
-63
-66
-43
2
59
142
199
251
445
687
746
766
897
804
335
-93
-230
-263
-310
-328
-328
-341
-353
-365
-389
-421
-447
-471
-500
-524
-548
-576
-585
-574
-544
-466
-339
-228
-149
-64
20
59
58
42
12
-20
-39
-48
-57
-64
-62
-55
-52
-53
-54
-60
-67
-66
-58
-49
-40
-38
-45
-46
-37
-36
-46
-39
-16
-8
-13
17
80
117
101
63
41
38
43
40
26
35
68
63
68
184
329
476
682
648
158
-257
-174
25
30
16
49
39
23
30
23
24
38
38
47
78
92
88
110
159
203
253
327
394
431
450
455
437
391
324
246
168
97
46
18
-5
-37
-51
-46
-61
-100
-109
-91
-95
-98
-40
47
90
91
112
179
278
426
611
731
832
1124
1462
1320
615
-94
-416
-483
-505
-531
-547
-545
-550
-570
-573
-588
-647
-688
-690
-709
-754
-817
-878
-892
-863
-812
-712
-578
-455
-322
-150
8
72
47
18
21
10
-34
-75
-80
-58
-42
-48
-51
-30
8
47
66
73
97
126
105
60
67
131
196
218
179
122
89
77
79
77
62
84
106
61
106
305
437
579
848
734
72
-331
-163
-32
-118
-116
-69
-113
-140
-119
-116
-104
-72
-71
-79
-48
-8
6
22
67
128
189
245
294
331
347
339
311
255
163
66
2
-30
-44
-66
-114
-146
-119
-84
-91
-94
-60
-37
-59
-98
-142
-212
-294
-345
-353
-343
-325
-282
-232
-213
-189
-134
-118
-101
17
141
265
506
540
76
-350
-273
-90
-113
-122
-59
-58
-70
-41
-27
-23
5
27
33
48
79
114
140
170
217
270
322
384
439
447
409
362
319
259
184
118
82
68
43
-2
-21
-12
0
118
391
652
901
1248
1367
910
242
-106
-190
-271
-342
-342
-333
-346
-347
-348
-380
-410
-415
-439
-495
-514
-475
-434
-410
-354
-243
-118
-15
63
115
144
147
129
120
106
44
-23
-33
-17
-21
-43
-60
-54
-77
-204
-345
-344
-249
-198
-187
-158
-125
-110
-106
-100
-94
-96
-108
-134
-186
-264
-339
-371
-347
-301
-259
-219
-177
-129
-63
-10
-24
-66
-54
-6
8
-1
24
74
96
73
68
145
265
404
517
387
-3
-234
-120
16
4
-7
13
5
0
9
6
3
11
26
42
51
65
100
137
160
177
192
213
252
288
293
274
255
234
200
159
109
50
6
-15
-30
-34
-11
2
-27
-54
-28
18
23
1
11
61
100
90
45
4
-20
-31
-31
-44
-67
-38
-2
-49
-45
105
230
346
536
423
-112
-421
-255
-125
-189
-182
-116
-112
-115
-105
-115
-116
-93
-67
-49
-41
-41
-30
4
53
113
178
236
280
311
337
348
307
201
81
3
-36
-74
-118
-146
-159
-174
-184
-173
-161
-169
-177
-162
-137
-114
-73
-15
-4
-54
-84
-73
-70
-69
-64
-71
-36
3
-43
-24
151
288
445
684
518
-114
-438
-257
-146
-221
-216
-175
-187
-184
-168
-175
-173
-163
-154
-123
-97
-111
-109
-41
57
138
192
246
319
368
345
301
273
183
29
-55
-64
-110
-176
-186
-168
-172
-188
-204
-211
-190
-160
-157
-158
-112
-32
11
-7
-47
-71
-89
-108
-113
-115
-121
-90
-51
-87
-77
93
235
337
561
540
2
-427
-323
-146
-173
-180
-136
-154
-167
-135
-117
-122
-113
-89
-70
-58
-40
-11
30
73
116
177
264
336
354
339
325
300
232
128
43
1
-12
-19
-33
-49
-35
19
88
158
288
551
859
1076
1322
1694
1782
1207
350
-192
-387
-474
-512
-515
-530
-543
-550
-586
-627
-640
-664
-725
-789
-820
-823
-805
-746
-632
-481
-322
-160
-10
103
175
205
195
175
161
139
113
101
96
92
99
99
81
75
86
77
57
63
75
67
60
59
44
41
61
64
49
56
74
63
38
28
23
25
47
52
25
61
183
247
230
289
419
441
261
-94
-481
-676
-619
-448
-277
-144
-78
-58
-40
-32
-43
-43
-32
-31
-27
-16
-5
16
53
95
143
207
292
394
483
530
546
535
481
397
315
238
165
114
70
13
-37
-72
-96
-103
-100
-108
-121
-133
-147
-147
-139
-157
-178
-188
-218
-230
-179
-137
-162
-171
-119
-85
-109
-134
-134
-144
-167
-163
-146
-150
-151
-137
-143
-122
-29
99
230
234
-70
-455
-501
-301
-208
-228
-228
-213
-202
-196
-200
-192
-167
-158
-158
-149
-141
-127
-96
-65
-40
4
64
112
143
174
195
190
173
151
106
36
-33
-67
-55
-32
-23
-6
20
27
31
69
122
161
182
198
238
297
320
288
250
229
213
212
216
197
205
249
233
211
338
501
604
793
853
430
-48
-13
244
296
269
293
289
275
301
316
311
321
317
250
170
182
265
290
250
257
318
338
229
-76
-495
-802
-961
-1117
-1231
-1172
-1018
-899
-826
-771
-717
-656
-611
-569
-502
-446
-420
-379
-328
-307
-271
-184
-125
-154
-205
-209
-205
-232
-240
-207
-157
-96
-69
-65
63
259
363
528
712
435
-153
-303
-35
60
-24
7
91
102
108
154
185
193
213
240
261
296
349
385
397
423
492
564
602
624
639
611
547
441
262
80
12
14
-9
-43
-58
-70
-74
-61
-44
-32
-17
12
44
61
92
154
140
-37
-218
-237
-189
-186
-163
-139
-186
-202
-163
-176
-120
64
161
297
621
565
-74
-486
-354
-244
-310
-290
-241
-257
-246
-210
-200
-188
-171
-164
-145
-119
-109
-93
-48
7
53
101
162
222
256
248
211
159
86
3
-65
-119
-168
-195
-202
-217
-232
-223
-202
-194
-181
-139
-109
-116
-111
-69
-37
-45
-67
-89
-115
-140
-144
-128
-121
-104
-78
-116
-129
12
145
240
516
659
219
-309
-318
-126
-114
-125
-89
-92
-75
-23
-12
-11
13
25
43
79
98
115
168
224
255
292
350
408
437
437
429
413
366
283
203
159
131
90
63
79
