# session 16
-18
-23
-27
-28
-28
-26
-15
-4
-7
-12
7
35
57
104
174
223
257
310
354
357
335
295
234
162
81
5
-40
-60
-81
-96
-98
-105
-114
-108
-99
-104
-99
-77
-66
-74
-74
-43
3
19
-7
-42
-61
-77
-85
-69
-63
-74
-54
-46
-84
-32
111
230
440
644
380
-192
-384
-213
-164
-221
-190
-158
-177
-169
-149
-171
-194
-170
-121
-96
-94
-61
21
100
152
215
296
357
385
394
393
380
340
270
195
133
93
70
43
10
-13
-25
-37
-47
-55
-71
-83
-65
-21
8
-1
-18
-6
26
34
2
-36
-53
-69
-90
-77
-35
-6
45
133
176
176
218
256
284
340
215
-159
-361
-204
-61
-101
-125
-97
-113
-136
-129
-129
-139
-136
-125
-115
-109
-108
-98
-71
-34
0
34
73
116
151
153
122
87
54
-3
-81
-143
-179
-210
-240
-251
-251
-261
-278
-286
-284
-282
-283
-283
-264
-225
-198
-188
-138
-54
-19
-47
-61
-40
-29
-21
19
52
55
83
110
85
117
257
379
469
507
283
-81
-164
-6
53
27
53
69
58
74
87
73
74
101
112
92
82
109
134
130
131
163
202
232
263
298
314
300
271
226
155
70
-4
-51
-72
-89
-114
-122
-111
-122
-161
-171
-151
-152
-167
-148
-118
-113
-92
-24
27
3
-49
-72
-82
-90
-72
-62
-97
-94
-56
-93
-77
108
253
365
602
546
-35
-446
-312
-143
-182
-204
-185
-185
-153
-139
-171
-156
-96
-71
-73
-68
-65
-44
17
79
102
123
186
265
314
326
311
264
190
115
56
-8
-88
-138
-133
-130
-153
-149
-127
-147
-163
-111
-72
-96
-106
-92
-98
-71
2
36
36
48
18
-63
-90
-37
-6
-37
-29
23
-9
-33
136
332
428
562
516
55
-314
-205
-37
-87
-128
-107
-123
-132
-119
-127
-133
-115
-97
-80
-63
-50
-26
16
55
86
130
193
258
301
298
261
230
188
110
29
-41
-114
-152
-150
-171
-218
-228
-197
-170
-169
-182
-173
-133
-108
-112
-104
-67
-19
30
55
24
-34
-56
-49
-48
-50
-60
-59
-15
-16
-70
2
170
294
530
749
421
-217
-386
-179
-130
-176
-129
-119
-157
-137
-101
-95
-80
-57
-55
-51
-29
-6
13
43
79
112
156
209
254
286
297
279
255
228
165
82
22
-4
-19
-40
-49
-43
-49
-44
0
8
-50
-73
-32
-23
-49
-42
-9
15
32
24
-17
-46
-50
-54
-49
-32
-40
-50
-44
-66
-60
38
127
225
423
411
-12
-354
-274
-131
-158
-170
-125
-124
-130
-108
-103
-114
-109
-89
-69
-53
-44
-36
-1
52
77
85
138
212
240
245
265
264
223
164
87
21
0
-23
-72
-84
-61
-74
-95
-80
-78
-99
-97
-83
-84
-86
-83
-70
-30
1
-8
-24
-36
-57
-73
-65
-47
-41
-48
-34
-18
-36
-8
110
207
269
302
111
-252
-379
-216
-114
-155
-177
-158
-154
-154
-143
-124
-105
-91
-74
-51
-34
-25
-14
5
38
86
135
176
210
239
256
258
243
204
133
49
-10
-40
-61
-82
-103
-114
-100
-76
-76
-92
-99
-89
-68
-46
-34
-21
17
66
93
86
64
43
19
4
12
11
-11
17
70
22
-18
142
316
410
665
787
278
-331
-336
-112
-139
-195
-139
-134
-163
-142
-130
-139
-120
-98
-100
-90
-66
-52
-31
1
35
91
172
224
241
277
327
325
261
190
123
32
-49
-66
-67
-101
-127
-130
-141
-142
-126
-128
-133
-112
-100
-118
-124
-94
-40
7
13
-8
-26
-58
-99
-91
-54
-73
-99
-43
-17
-78
-7
196
304
437
616
366
-221
-408
-185
-109
-178
-150
-120
-146
-135
-117
-140
-156
-146
-143
-132
-108
-97
-91
-61
-10
46
101
155
210
255
276
265
221
147
61
-18
-76
-103
-125
-152
-155
-144
-167
-192
-162
-122
-126
-122
-65
-28
-59
-82
-35
32
69
70
28
-24
-26
-2
0
-9
-15
9
43
2
-13
139
276
402
756
898
326
-287
-264
-64
-101
-129
-84
-102
-113
-79
-74
-79
-59
-44
-29
-11
-11
-2
47
89
97
124
183
232
263
287
293
279
236
153
69
27
-13
-73
-102
-98
-122
-149
-117
-70
-82
-126
-142
-136
-129
-117
-102
-87
-58
-20
-22
-59
-66
-57
-88
-118
-108
-104
-100
-85
-103
-87
18
104
243
524
547
72
-351
-327
-199
-217
-229
-198
-198
-193
-176
-189
-191
-164
-150
-133
-91
-64
-61
-43
-11
30
85
136
181
234
266
259
245
222
163
89
36
-1
-38
-63
-54
-45
-64
-70
-48
-49
-64
-41
-2
7
-3
0
44
132
215
259
327
457
562
611
729
911
903
593
190
-92
-222
-246
-244
-273
-292
-265
-253
-283
-306
-324
-361
-381
-379
-412
-460
-469
-460
-453
-412
-331
-236
-135
-45
28
94
133
129
113
101
75
46
34
29
29
32
27
33
51
44
18
10
13
7
3
5
7
4
-11
-20
-7
17
28
23
26
62
105
102
58
25
15
9
14
23
17
25
48
23
7
101
221
335
492
434
3
-335
-247
-76
-83
-112
-81
-73
-91
-101
-97
-83
-73
-64
-44
-30
-22
-9
-5
2
42
94
125
164
217
251
263
268
253
207
143
73
8
-48
-84
-86
-82
-109
-129
-112
-102
-126
-138
-121
-99
-84
-75
-65
-38
3
21
-13
-59
-73
-81
-93
-85
-90
-89
-36
-32
-73
49
250
349
510
603
200
-336
-349
-114
-104
-154
-110
-101
-115
-94
-92
-94
-70
-67
-76
-51
-24
-20
4
52
76
95
175
277
317
317
327
303
222
145
80
-14
-106
-146
-153
-168
-184
-187
-185
-181
-170
-162
-155
-129
-107
-116
-123
-85
-20
35
53
17
-30
-33
-24
-36
-37
-30
-21
-2
-24
-25
114
266
367
555
565
86
-377
-306
-80
-92
-139
-84
-64
-98
-112
-107
-93
-69
-53
-47
-38
-24
-11
5
33
69
91
113
173
248
279
264
234
181
99
23
-29
-77
-123
-150
-159
-160
-167
-172
-149
-119
-123
-121
-67
-41
-85
-93
-14
53
56
39
17
-23
-63
-76
-64
-67
-73
-31
-15
-84
-52
130
252
401
656
526
-76
-400
-235
-119
-170
-154
-123
-152
-150
-124
-118
-101
-78
-82
-76
-43
-18
-10
9
54
118
170
202
241
280
289
280
255
198
138
91
22
-51
-76
-69
-71
-82
-87
-79
-70
-71
-64
-47
-45
-42
-15
8
18
42
56
29
5
-4
-29
-39
-20
-20
-7
30
-2
-26
76
172
279
560
646
195
-248
-204
-47
-72
-94
-56
-49
-61
-62
-60
-106
-243
-349
-297
-183
-128
-107
-78
-35
21
61
94
164
235
237
194
179
186
139
30
-63
-93
-103
-124
-139
-139
-131
-126
-126
-109
-83
-97
-113
-65
-20
-45
-51
16
51
10
-27
-31
-42
-53
-37
-33
-56
-45
-12
-38
-42
75
197
251
274
130
-181
-311
-176
-82
-101
-77
-27
-33
-58
-59
-45
-32
-28
-29
-26
-12
13
29
42
79
124
155
195
247
267
251
232
208
156
84
9
-52
-90
-105
-112
-117
-110
-100
-109
-107
-87
-106
-111
-31
-35
-200
-227
-25
96
50
19
20
-8
-31
-26
-11
-3
3
21
14
-12
57
186
276
422
498
172
-287
-338
-138
-96
-137
-110
-91
-97
-84
-80
-101
-117
-113
-100
-86
-69
-49
-33
-7
39
81
114
173
248
280
268
275
305
285
190
94
48
18
-29
-72
-90
-80
-50
-27
-37
-56
-53
-50
-58
-46
-12
20
55
72
31
-23
-31
-44
-79
-71
-59
-85
-61
-31
-73
-12
175
270
364
494
257
-262
-409
-185
-95
-145
-116
-80
-110
-125
-100
-84
-85
-75
-50
-40
-44
-24
13
31
49
107
184
241
275
306
323
299
233
153
64
-30
-95
-122
-148
-186
-207
-203
-192
-188
-192
-211
-217
-180
-148
-171
-178
-105
-24
-12
-48
-85
-96
-100
-112
-100
-87
-113
-112
-84
-106
-56
134
267
363
502
336
-173
-416
-243
-114
-144
-142
-115
-115
-108
-91
-81
-71
-58
-42
-24
-11
8
36
57
80
132
205
268
316
356
377
370
336
264
158
74
41
7
-42
-61
-59
-82
-96
-67
-39
-36
-32
-14
5
15
16
37
89
126
120
92
53
6
-27
-27
-22
-36
-24
-1
-57
-75
86
237
354
674
822
299
-322
-354
-148
-148
-192
-168
-173
-187
-170
-162
-163
-143
-122
-125
-130
-105
-64
-42
-31
2
53
95
135
182
215
221
202
159
100
34
-38
-94
-111
-114
-124
-123
-113
-110
-120
-143
-157
-142
-132
-159
-177
-149
-98
-54
-40
-63
-92
-109
-122
-115
-92
-95
-98
-64
-61
-68
30
146
209
342
384
53
-319
-290
-96
-72
-107
-88
-83
-83
-59
-49
-48
-24
-11
-19
-4
28
34
29
58
120
177
220
268
319
348
338
302
260
201
123
54
5
-33
-58
-69
-89
-112
-111
-83
-70
-81
-81
-64
-58
-55
-38
-21
9
51
52
8
-21
-31
-46
-45
-41
-60
-58
-36
-61
-71
31
131
178
259
207
-120
-360
-255
-108
-110
-105
-66
-74
-74
-32
-18
-32
-28
-11
0
12
21
24
39
69
94
113
153
199
227
238
240
226
191
134
70
29
2
-32
-53
-52
-49
-50
-44
-45
-65
-84
-73
-35
-7
-18
-31
8
68
80
46
19
5
-13
-23
-15
-14
-8
16
0
-31
50
178
270
481
652
342
-201
-332
-153
-111
-163
-146
-132
-146
-137
-123
-122
-121
-110
-88
-75
-78
-63
-26
-5
-2
14
55
116
169
183
182
189
156
74
16
-29
-122
-159
-56
27
23
68
117
64
68
174
175
67
6
-42
-119
-133
-90
-76
-95
-119
-157
-218
-271
-263
-227
-243
-257
-221
-252
-289
-141
36
107
280
353
-77
-577
-566
-359
-360
-416
-393
-382
-394
-390
-388
-398
-405
-387
-340
-297
-266
-186
-27
125
200
259
346
416
453
468
456
439
439
415
337
243
170
132
141
170
161
121
112
139
151
140
134
150
177
180
139
125
196
272
263
199
132
88
75
78
69
46
45
68
51
49
191
358
446
584
577
146
-262
-188
7
-7
-39
-6
-11
-23
-4
1
-7
-10
-19
-24
-10
5
8
4
10
50
113
159
189
222
235
212
176
127
41
-54
-119
-160
-200
-239
-261
-267
-269
-263
-242
-228
-235
-234
-208
-183
-190
-220
-220
-148
-64
-60
-118
-166
-193
-214
-214
-210
-228
-212
-169
-199
-210
-60
91
235
588
751
243
-345
-358
-170
-184
-208
-169
-175
-176
-145
-145
-147
-118
-91
-74
-53
-39
-24
13
58
93
122
156
213
272
272
226
202
189
139
68
9
-44
-84
-88
-49
-20
-39
-59
-44
-45
-82
-98
-82
-78
-92
-86
-55
-19
17
43
26
-18
-43
-51
-59
-71
-101
-105
-64
-76
-108
-20
106
215
426
490
87
-344
-310
-112
-107
-142
-103
-71
-54
-38
-31
-13
6
9
21
43
59
87
126
147
161
197
243
279
310
335
344
331
284
212
144
85
23
-28
-48
-40
-20
-9
-21
-31
-2
31
13
-15
-1
5
-26
-35
-15
1
32
75
74
42
17
-11
-38
-28
-18
-45
-54
-36
-48
-39
53
148
223
285
139
-216
-360
-177
-49
-102
-113
-52
-47
-74
-66
-54
-72
-86
-72
-66
-92
-103
-62
-1
35
63
120
186
205
202
232
257
216
155
124
81
-1
-70
-93
-100
-111
-115
-112
-113
-111
-98
-89
-100
-115
-112
-91
-70
-60
-49
-21
3
2
-23
-59
-87
-84
-62
-58
-74
-73
-67
-103
-120
-40
60
158
275
182
-219
-501
-413
-271
-270
-276
-250
-245
-235
-213
-208
-208
-191
-180
-186
-172
-124
-85
-68
-40
3
55
116
166
198
242
280
264
209
152
88
24
-19
-48
-72
-82
-77
-65
-43
-22
-9
-1
8
29
61
74
56
58
122
200
224
199
181
188
182
163
185
222
215
213
224
192
249
443
575
738
1016
866
176
-185
65
259
179
155
252
319
300
237
183
129
106
163
185
76
-31
-54
-70
-81
-41
10
40
66
82
78
66
35
-45
-153
-247
-313
-351
-376
-415
-451
-450
-435
-439
-437
-420
-403
-379
-343
-324
-331
-336
-307
-248
-196
-171
-180
-221
-251
-252
-287
-344
-338
-279
-245
-273
-295
-186
-7
130
345
507
171
-409
-534
-316
-264
-314
-284
-299
-378
-398
-372
-364
-364
-343
-283
-197
-134
-84
6
123
230
336
438
512
557
589
602
574
498
416
362
310
235
149
65
2
-10
6
9
14
42
68
71
62
73
105
115
93
96
158
240
280
275
256
219
173
177
212
198
198
262
244
178
273
401
478
780
1008
524
-221
-387
-219
-217
-242
-186
-174
-162
-109
-99
-119
-121
-134
-152
-127
-73
-28
15
58
91
119
170
246
305
315
302
289
246
158
61
-19
-74
-102
-133
-177
-195
-186
-193
-204
-179
-151
-173
-217
-205
-147
-125
-160
-182
-139
-61
-26
-66
-126
-159
-191
-228
-236
-229
-216
-187
-193
-225
-164
-40
66
219
258
-82
-485
-502
-339
-322
-337
-299
-315
-345
-303
-252
-237
-209
-157
-113
-86
-75
-57
2
81
138
196
270
314
315
326
335
304
263
231
179
119
75
37
16
18
12
2
9
12
7
27
65
88
102
118
121
115
133
177
206
187
143
119
108
82
62
72
81
91
114
101
73
120
211
325
477
421
16
-311
-270
-165
-187
-194
-198
-253
-270
-245
-246
-246
-220
-205
-192
-168
-151
-145
-130
-101
-66
-34
