# session 267
65
13
-35
-64
-79
-84
-74
-77
-89
-41
55
89
47
14
14
14
7
-7
-30
-37
-30
-38
-43
-30
-39
-53
-36
-48
-81
-32
60
167
366
419
62
-324
-310
-152
-161
-206
-185
-184
-192
-158
-132
-156
-187
-165
-109
-89
-98
-70
-13
22
47
101
164
209
247
275
269
234
196
143
66
6
-6
-4
-18
-31
-24
-14
-19
-35
-37
-30
-38
-42
-6
59
142
237
330
467
676
843
941
1117
1283
1107
570
31
-251
-318
-323
-345
-369
-376
-383
-393
-401
-410
-418
-432
-463
-503
-548
-596
-625
-624
-601
-554
-490
-405
-272
-135
-61
-17
37
57
38
25
12
-9
-3
21
28
14
-9
-30
-36
-37
-40
-34
-32
-48
-60
-52
-46
-56
-64
-56
-45
-53
-61
-37
-1
3
5
65
143
152
112
94
97
91
91
94
83
88
99
65
68
172
262
367
581
571
133
-217
-146
-43
-114
-136
-89
-99
-111
-92
-97
-103
-85
-72
-57
-23
-1
15
63
115
145
187
250
298
329
361
369
335
284
231
166
96
41
4
-27
-53
-71
-86
-99
-104
-103
-110
-130
-139
-126
-120
-137
-134
-86
-44
-55
-95
-119
-129
-128
-105
-91
-97
-73
-49
-75
-50
56
180
442
733
533
-68
-323
-151
-80
-156
-156
-159
-202
-157
-123
-197
-160
-52
-227
-472
-314
-29
-23
-68
23
80
98
158
197
198
206
198
160
116
62
-2
-58
-100
-125
-128
-130
-142
-148
-140
-133
-137
-133
-98
-61
-47
12
164
344
536
770
961
1116
1419
1738
1604
937
208
-199
-319
-347
-376
-397
-405
-420
-441
-455
-469
-498
-542
-580
-596
-627
-696
-744
-739
-729
-717
-640
-507
-371
-225
-76
30
93
129
125
94
77
76
79
80
65
41
38
55
73
89
94
79
69
74
68
43
25
17
7
-6
-16
-12
-11
-28
-11
81
162
162
135
120
94
85
107
98
83
107
93
66
162
297
434
723
877
470
-87
-185
-42
-40
-89
-85
-88
-102
-111
-124
-122
-113
-117
-100
-53
-22
-9
14
40
61
94
142
190
224
236
221
179
128
84
33
-39
-103
-136
-163
-185
-186
-181
-187
-182
-173
-167
-146
-124
-118
-88
-23
30
43
33
11
-21
-48
-38
-17
-37
-50
-30
-53
-74
-5
71
204
500
580
149
-269
-249
-143
-194
-206
-162
-182
-196
-156
-119
-103
-94
-86
-68
-52
-49
-24
19
57
107
177
247
314
357
348
307
257
191
125
80
36
-14
-52
-73
-87
-99
-110
-114
-116
-135
-163
-170
-151
-138
-146
-140
-93
-46
-43
-66
-83
-92
-85
-56
-44
-57
-41
-14
-40
-47
27
121
341
714
768
289
-148
-173
-101
-120
-119
-115
-157
-173
-147
-133
-128
-109
-92
-90
-74
-43
-35
-39
-16
25
59
90
133
187
225
233
215
169
99
30
-22
-58
-79
-88
-94
-101
-106
-103
-97
-98
-97
-73
-37
-22
-22
10
68
88
57
26
12
-6
-9
3
-9
-20
7
-4
-46
-7
76
202
468
576
207
-229
-274
-172
-185
-196
-168
-165
-160
-151
-157
-143
-116
-109
-99
-66
-37
-24
2
53
111
167
224
277
308
312
296
262
204
122
37
-17
-38
-61
-91
-95
-84
-88
-101
-102
-107
-125
-123
-97
-97
-119
-104
-49
-13
-10
-17
-35
-64
-65
-36
-37
-64
-38
-4
-32
0
121
222
446
764
621
12
-301
-169
-105
-178
-185
-178
-188
-152
-126
-151
-162
-149
-139
-124
-95
-68
-44
-20
6
43
92
150
209
242
230
208
190
142
63
0
-49
-102
-131
-130
-130
-131
-117
-103
-101
-101
-96
-79
-67
-76
-67
13
143
247
308
413
615
809
954
1230
1600
1610
1029
263
-207
-359
-408
-439
-442
-455
-491
-495
-471
-493
-543
-551
-543
-579
-642
-687
-718
-748
-755
-722
-666
-584
-448
-279
-151
-61
42
110
83
41
58
71
49
38
49
66
90
108
104
93
93
106
110
92
74
71
64
40
29
52
77
65
58
117
198
211
163
144
162
154
126
130
156
180
176
127
142
262
338
467
809
903
387
-123
-113
25
-24
-64
-35
-57
-94
-82
-64
-73
-87
-77
-52
-39
-40
-38
-24
20
76
87
81
130
174
144
113
136
143
94
31
-25
-76
-122
-163
-190
-193
-186
-187
-194
-199
-210
-223
-210
-176
-170
-179
-131
-44
-16
-46
-63
-61
-69
-73
-60
-57
-52
-32
-42
-66
-26
42
144
391
541
245
-182
-250
-128
-128
-163
-146
-148
-160
-144
-122
-101
-85
-82
-71
-40
-9
14
43
83
128
164
184
209
256
299
305
281
245
186
100
29
2
-14
-38
-48
-48
-58
-67
-65
-74
-101
-122
-121
-108
-112
-126
-107
-58
-35
-61
-97
-112
-125
-134
-113
-91
-89
-62
-42
-69
-34
84
197
442
754
614
50
-237
-113
-41
-111
-122
-73
-70
-109
-95
-62
-114
-114
-34
-136
-167
109
-106
-908
-898
9
384
162
198
338
272
243
268
199
128
105
71
38
22
7
8
10
-14
-29
-14
-14
-42
-54
-42
-49
-77
-68
-2
61
69
39
17
9
6
17
38
41
39
43
12
7
130
279
364
442
345
-56
-348
-239
-75
-102
-143
-125
-130
-134
-121
-125
-125
-102
-81
-61
-45
-51
-46
-1
50
89
145
208
250
284
311
309
278
232
160
72
1
-44
-73
-83
-81
-85
-90
-80
-72
-88
-113
-117
-104
-112
-147
-153
-97
-31
-15
-41
-64
-66
-70
-78
-78
-76
-61
-33
-46
-62
20
128
237
483
618
278
-174
-237
-126
-147
-174
-130
-124
-155
-160
-136
-109
-104
-116
-119
-108
-88
-56
-26
-9
24
75
103
112
153
199
181
124
98
87
45
-18
-69
-106
-139
-154
-143
-124
-116
-115
-122
-136
-134
-104
-77
-76
-59
10
88
104
73
58
52
21
0
20
22
1
12
11
-22
8
90
194
420
585
329
-112
-233
-123
-101
-130
-121
-121
-115
-94
-93
-93
-70
-46
-31
-29
-29
-7
31
74
122
156
181
236
298
321
322
314
273
201
133
86
51
23
5
-1
-10
-26
-42
-53
-62
-71
-88
-112
-117
-95
-90
-111
-98
-42
-15
-39
-66
-80
-99
-113
-102
-92
-101
-77
-39
-74
-92
15
131
291
603
672
210
-235
-220
-90
-137
-196
-176
-160
-165
-172
-184
-181
-154
-138
-142
-135
-107
-77
-55
-38
-18
16
57
92
124
153
159
138
107
67
12
-42
-81
-107
-120
-120
-118
-117
-110
-102
-95
-94
-98
-83
-44
-22
-21
8
59
80
65
45
29
16
7
2
-3
-8
13
27
-20
-27
79
198
395
689
629
94
-264
-169
-70
-129
-133
-88
-100
-128
-125
-102
-79
-63
-47
-37
-43
-39
-7
27
62
116
175
220
252
279
292
279
244
207
168
102
38
17
1
-39
-53
-43
-66
-94
-83
-68
-88
-120
-128
-115
-117
-138
-123
-52
15
19
-39
-90
-82
-63
-78
-86
-69
-48
-11
-15
-73
-27
121
256
479
631
276
-292
-384
-154
-118
-201
-190
-165
-172
-150
-117
-110
-112
-106
-92
-75
-65
-67
-52
-3
49
74
101
159
219
238
224
199
161
98
25
-42
-90
-113
-120
-125
-127
-119
-109
-98
-84
-78
-91
-101
-77
-55
-77
-87
-25
48
53
18
3
4
-18
-49
-40
-21
-30
-15
-8
-66
-45
95
192
313
488
342
-104
-293
-159
-90
-119
-101
-83
-95
-84
-61
-51
-42
-26
-11
10
38
62
80
111
159
200
233
277
318
322
306
299
280
223
153
99
47
-10
-46
-51
-56
-73
-84
-86
-90
-96
-106
-120
-117
-109
-129
-131
-64
5
0
-30
-38
-47
-63
-56
-36
-44
-60
-34
-18
-65
-72
1
104
364
713
640
100
-243
-179
-123
-191
-201
-168
-155
-128
-104
-114
-138
-151
-139
-110
-103
-114
-104
-71
-35
-5
16
39
72
96
96
82
61
26
-22
-68
-100
-113
-112
-103
-97
-93
-77
-54
-37
-33
-40
-51
-53
-37
-23
-35
-42
-3
48
55
31
15
-3
-30
-37
-22
-16
-20
-9
-10
-48
-51
18
103
245
432
364
-7
-227
-127
-26
-42
-39
-18
-17
9
45
50
50
58
49
35
38
45
52
74
98
115
148
192
219
229
237
227
185
123
59
-1
-55
-103
-144
-164
-159
-153
-163
-163
-145
-134
-138
-135
-123
-107
-92
-89
-76
-20
42
54
28
10
-4
-32
-45
-23
-13
-31
-5
21
-28
-40
34
112
356
760
747
197
-180
-122
-61
-127
-148
-134
-134
-135
-147
-144
-104
-79
-90
-91
-73
-63
-61
-43
-14
15
45
76
104
130
150
152
145
134
103
57
26
16
7
-5
-18
-35
-54
-67
-74
-86
-105
-118
-113
-104
-116
-130
-106
-55
-16
-9
-45
-93
-97
-75
-84
-93
-73
-61
-55
-43
-49
-34
20
90
273
497
389
-2
-157
-21
37
-12
-11
3
-15
-19
-10
-13
-18
-20
-23
-22
-15
-8
2
21
48
77
104
131
155
168
165
154
133
94
41
-9
-46
-73
-88
-89
-83
-75
-70
-69
-72
-76
-78
-84
-88
-76
-63
-82
-99
-62
-8
-2
-27
-48
-67
-88
-96
-78
-68
-83
-65
-32
-72
-102
-38
84
376
757
662
64
-277
-168
-96
-155
-148
-126
-142
-134
-118
-122
-118
-109
-103
-82
-52
-35
-20
10
51
93
145
200
237
259
279
287
273
236
177
110
58
27
5
-16
-35
-49
-59
-71
-90
-105
-109
-105
-102
-121
-170
-192
-118
-7
23
-32
-77
-70
-57
-72
-73
-44
-42
-67
-47
-15
-30
6
146
295
417
407
106
-239
-242
-65
-35
-78
-67
-55
-47
-18
-20
-49
-37
-4
-7
-26
-18
-5
-2
32
91
130
167
232
289
305
294
271
224
158
90
26
-31
-70
-90
-107
-116
-107
-103
-120
-132
-122
-122
-132
-125
-124
-146
-130
-55
-6
-15
-48
-105
-157
-148
-104
-78
-72
-87
-93
-74
-79
-67
13
126
376
708
606
27
-304
-194
-137
-217
-213
-190
-211
-193
-165
-174
-170
-141
-120
-102
-71
-31
12
49
85
135
188
234
279
305
303
285
256
209
142
67
11
-22
-57
-89
-89
-87
-104
-103
-78
-74
-101
-131
-136
-114
-101
-113
-91
-18
23
-8
-37
-14
10
-9
-24
-1
18
31
65
68
57
116
188
312
632
816
446
-64
-149
-32
-47
-82
-64
-74
-87
-78
-84
-97
-95
-94
-98
-91
-71
-60
-62
-49
-12
25
53
80
102
117
122
106
75
42
5
-38
-71
-88
-97
-99
-100
-111
-126
-127
-114
-107
-123
-151
-159
-143
-130
-127
-114
-71
-16
11
3
-8
-13
-29
-55
-55
-34
-39
-51
-33
-45
-83
-58
18
185
516
665
277
-212
-280
-161
-175
-204
-168
-154
-151
-121
-96
-82
-57
-28
-10
8
35
61
83
115
154
184
208
237
258
263
260
246
209
156
98
45
-1
-34
-45
-52
-75
-87
-74
-70
-79
-73
-67
-84
-78
-25
18
14
27
91
144
147
127
113
114
129
145
156
151
130
126
132
97
78
136
239
463
761
707
216
-149
-132
-48
-78
-120
-95
-74
-143
-131
-44
-200
-211
170
-550
-2690
-3355
-1411
293
281
79
302
323
253
332
359
333
315
252
224
191
86
116
140
-223
-532
-255
86
24
-67
-3
-1
-43
-42
-53
-63
-31
-7
-7
28
102
132
84
39
57
84
72
72
99
103
99
110
76
31
80
178
306
472
411
16
-264
-181
-63
-88
-97
-63
-66
-68
-46
-36
-36
-22
-15
-21
-13
12
24
23
51
113
158
168
186
221
239
230
198
145
97
51
-30
-111
-126
-109
-124
-150
-149
-135
-135
-130
-117
-127
-148
-131
-82
-56
-55
-23
46
85
71
58
74
90
88
86
92
77
52
66
77
32
15
69
190
480
746
519
-32
-258
-150
-119
-171
-158
-139
-148
-139
-129
-136
-129
-103
-85
-80
-58
-23
-16
-18
23
72
82
100
151
171
158
160
151
105
55
6
-45
-76
-87
-97
-108
-124
-140
-135
-121
-115
-111
-120
-145
-155
-142
-123
-109
-100
-78
-25
15
-1
-48
-89
-113
-121
-119
-112
-114
-116
-93
-84
-111
-91
-7
133
422
660
425
-73
-233
-100
-74
-123
-97
-80
-100
-92
-76
-82
-87
-77
-60
-53
-65
-66
-40
-13
16
66
112
130
147
169
173
159
126
73
32
-2
-63
-113
-105
-87
-91
-78
-59
-67
-71
-53
-33
-15
8
31
48
53
47
62
102
127
112
73
32
12
3
-17
-29
-23
-39
-51
-31
-49
-82
-25
86
271
553
565
117
-250
-188
-65
-95
-101
-62
-58
-50
-36
-44
-40
-23
-16
3
32
44
57
87
106
132
195
251
267
277
291
287
276
258
199
119
69
32
-19
-54
-58
-73
-98
-100
-79
-61
-44
-34
-50
-88
-111
-109
-113
-130
-119
-72
-47
-67
-94
-105
-97
-80
-66
-49
-32
-34
-23
-8
-47
-59
30
146
362
665
587
33
-328
-233
-142
-210
-209
-152
-171
-211
-193
-154
-149
-154
-134
-115
-127
-130
-89
-35
2
36
85
139
181
207
237
265
253
195
133
77
15
-28
-42
-49
-57
-61
-69
-69
-60
-59
-69
-80
-105
-138
-145
-139
-164
-177
-122
-65
-73
-111
-133
-139
-135
-136
-138
-124
-118
-114
-80
-78
-99
-11
142
265
416
399
-13
-381
-295
-122
-156
-174
-113
-115
-134
-122
-124
-105
-54
-39
-56
-60
-47
1
76
114
131
195
288
347
372
388
394
367
298
210
137
77
19
-18
-31
-38
-38
-23
-11
-8
6
28
38
34
42
71
