# session 104
-5
24
18
-11
-17
-14
-38
-52
-35
-36
-32
32
126
216
338
477
568
610
642
641
568
470
412
377
321
277
269
254
218
193
185
182
177
167
167
166
143
128
137
129
108
113
131
136
134
121
96
77
70
69
72
64
38
26
39
39
24
26
20
-11
-7
16
-17
-64
-56
-27
-10
-15
-28
8
77
79
13
-30
-31
-30
-50
-61
-32
-13
-37
-46
-65
-109
-50
82
162
286
361
85
-302
-352
-236
-230
-217
-170
-200
-231
-199
-178
-179
-172
-172
-178
-176
-159
-117
-78
-67
-38
27
83
128
186
234
266
300
309
270
200
133
87
35
-33
-68
-77
-111
-128
-99
-106
-155
-152
-123
-145
-166
-149
-162
-197
-185
-162
-183
-204
-184
-149
-132
-132
-108
-45
-18
-65
-123
-147
-154
-155
-160
-164
-153
-156
-168
-144
-141
-192
-186
-102
13
200
272
-33
-417
-443
-285
-254
-279
-240
-195
-201
-221
-195
-155
-163
-168
-127
-110
-125
-107
-79
-51
41
160
210
228
283
342
354
330
298
249
164
83
49
30
-2
-11
4
8
12
28
31
17
12
33
61
99
170
246
340
570
869
1032
1172
1391
1279
643
24
-180
-186
-204
-175
-98
-75
-106
-127
-131
-137
-135
-138
-160
-170
-153
-142
-151
-150
-114
-48
30
110
191
271
344
404
421
376
318
290
276
264
263
262
262
274
287
292
300
309
314
321
327
330
345
356
348
362
401
395
360
364
382
375
384
402
386
370
371
344
314
286
166
1
-43
-36
-175
-447
-727
-982
-1231
-1470
-1695
-1904
-2083
-2219
-2345
-2452
-2386
-2080
-1731
-1481
-1231
-943
-741
-652
-578
-482
-396
-327
-260
-218
-221
-194
-88
-26
-16
130
339
485
807
1138
843
170
-40
151
215
185
214
226
227
252
267
282
310
318
323
350
373
383
413
477
536
556
584
667
746
763
773
814
837
804
741
694
648
544
422
375
378
350
299
263
243
214
177
172
180
135
96
126
116
46
33
20
-59
-42
74
67
-8
65
184
179
117
69
14
-9
2
2
4
-18
-85
-99
-82
-140
-132
-19
48
287
689
537
-169
-484
-316
-284
-346
-271
-244
-300
-295
-270
-272
-268
-262
-255
-252
-258
-221
-152
-132
-127
-56
36
92
147
217
253
239
186
97
-11
-131
-306
-559
-815
-922
-821
-662
-614
-612
-535
-445
-430
-431
-354
-208
-71
53
288
669
1075
1526
2037
2231
1763
870
38
-443
-572
-582
-629
-633
-586
-592
-606
-572
-559
-580
-584
-578
-579
-589
-615
-628
-589
-515
-422
-292
-135
-1
103
201
269
272
229
186
177
169
109
44
51
77
56
31
28
28
53
97
147
211
245
292
460
599
615
845
1298
1308
654
-52
-373
-412
-340
-242
-187
-184
-210
-239
-230
-192
-169
-175
-192
-204
-188
-145
-116
-111
-58
83
218
271
312
377
404
403
408
365
259
161
87
16
-51
-98
-110
-117
-156
-184
-164
-153
-167
-148
-111
-104
-91
-56
-44
-40
4
50
47
25
31
60
77
78
84
92
89
74
59
43
29
27
41
65
82
69
39
35
53
60
58
61
60
52
37
24
26
31
30
37
53
52
42
42
33
8
6
28
21
0
45
135
153
87
44
58
64
30
7
22
34
-6
-142
-360
-517
-505
-372
-165
-25
-212
-584
-657
-442
-317
-311
-267
-226
-224
-202
-175
-172
-160
-134
-123
-119
-101
-71
-34
3
32
75
147
211
249
301
364
393
398
393
365
328
289
220
147
114
95
66
48
41
34
26
3
-19
-7
10
-3
-19
-33
-60
-60
-15
0
-29
-8
63
74
25
-7
-33
-72
-86
-80
-77
-80
-107
-132
-119
-136
-170
-102
28
166
324
257
-154
-436
-321
-177
-198
-211
-185
-180
-169
-153
-153
-151
-155
-157
-133
-113
-111
-89
-35
18
66
134
223
306
372
423
436
393
323
241
138
39
-16
-45
-71
-81
-76
-86
-101
-88
-66
-67
-72
-52
0
92
203
329
555
887
1184
1458
1786
1882
1406
575
-85
-381
-466
-483
-475
-471
-483
-497
-502
-502
-502
-506
-518
-538
-561
-578
-581
-577
-564
-522
-433
-316
-199
-84
33
117
138
121
101
79
42
3
-22
-40
-59
-69
-61
-52
-60
-66
-58
-53
-57
-49
-34
-34
-33
-12
2
-6
-13
-7
-1
4
2
-5
-2
9
8
-2
-4
0
4
12
17
16
17
17
-1
-22
-15
-3
-19
-19
47
126
150
128
93
62
50
58
68
67
44
43
78
57
12
88
233
372
559
575
193
-201
-217
-113
-140
-161
-127
-131
-138
-109
-105
-130
-131
-115
-113
-111
-92
-66
-41
-12
20
57
111
171
210
239
276
304
299
269
235
195
131
61
18
-5
-26
-39
-44
-51
-50
-52
-71
-82
-73
-82
-100
-92
-86
-110
-129
-133
-137
-117
-85
-84
-74
-4
41
1
-47
-60
-72
-86
-83
-70
-63
-79
-94
-76
-76
-110
-85
18
147
263
185
-162
-406
-313
-183
-195
-192
-157
-162
-148
-103
-87
-89
-89
-97
-94
-76
-68
-66
-44
1
52
102
162
237
303
337
345
331
281
198
111
46
-2
-40
-63
-71
-74
-77
-72
-56
-42
-43
-49
-42
-29
-27
-35
-41
-42
-38
-39
-39
-19
7
39
110
212
349
601
901
1132
1404
1675
1500
798
124
-172
-255
-290
-296
-309
-340
-357
-358
-362
-369
-367
-355
-352
-370
-385
-383
-381
-379
-356
-309
-244
-158
-56
44
124
167
172
153
123
82
26
-22
-40
-49
-67
-74
-76
-96
-107
-89
-70
-78
-103
-112
-92
-77
-80
-68
-51
-70
-97
-94
-87
-101
-122
-137
-149
-156
-155
-151
-145
-144
-146
-143
-133
-126
-129
-134
-143
-151
-142
-127
-124
-93
-21
27
24
10
-1
-12
-13
-12
-18
-20
0
37
35
10
110
316
467
572
549
164
-296
-310
-63
-6
-59
-33
-14
-38
-38
-32
-55
-71
-54
-27
-19
-16
2
16
37
116
231
318
399
512
614
671
707
717
665
556
420
283
170
81
10
-33
-54
-78
-98
-90
-79
-88
-88
-71
-70
-73
-64
-70
-86
-82
-68
-75
-106
-125
-87
-18
6
-24
-75
-125
-147
-152
-173
-192
-190
-211
-234
-221
-238
-275
-213
-61
150
356
226
-293
-598
-424
-252
-302
-323
-271
-272
-294
-278
-254
-255
-265
-251
-209
-174
-148
-104
-62
-32
22
111
202
289
377
453
494
493
454
386
295
196
118
64
18
-13
-29
-53
-77
-72
-59
-78
-96
-70
-36
-13
58
165
268
459
735
918
1077
1334
1315
739
86
-172
-213
-286
-350
-378
-406
-419
-419
-432
-434
-431
-476
-532
-544
-560
-602
-625
-637
-643
-594
-490
-361
-195
-12
144
264
328
318
278
247
224
204
190
180
185
199
201
192
182
163
140
120
98
73
50
26
12
19
31
31
27
32
44
47
31
20
26
29
19
16
22
22
19
20
23
16
-2
-6
18
28
0
-34
-52
-53
-37
-31
-44
-27
23
39
2
-51
-83
-79
-67
-81
-91
-89
-91
-83
-93
-118
-41
98
190
341
447
148
-333
-438
-272
-222
-231
-179
-161
-187
-189
-191
-208
-202
-187
-187
-174
-137
-115
-102
-57
6
58
116
194
273
340
397
430
437
418
369
280
173
93
36
-30
-76
-86
-107
-130
-113
-103
-111
-75
-35
-45
-23
88
273
519
755
905
963
852
612
511
491
179
-269
-411
-352
-386
-443
-433
-431
-436
-419
-412
-419
-407
-381
-364
-357
-335
-290
-250
-228
-188
-116
-58
-32
13
81
115
108
106
105
83
65
68
66
53
53
67
90
113
110
79
71
91
101
101
107
97
82
88
84
66
72
70
32
17
32
14
-22
-35
-48
-68
-68
-72
-93
-92
-70
-72
-87
-87
-99
-134
-145
-136
-156
-169
-116
-37
-15
-49
-87
-104
-117
-138
-141
-124
-129
-136
-115
-61
121
427
616
734
1038
1128
500
-277
-461
-327
-336
-381
-352
-345
-355
-342
-334
-331
-317
-313
-316
-301
-268
-239
-220
-195
-148
-75
-2
62
149
254
320
344
375
407
391
324
251
198
155
124
104
77
34
1
4
15
16
59
135
206
391
701
946
1232
1669
1688
913
25
-330
-358
-367
-367
-387
-439
-458
-458
-477
-492
-502
-531
-560
-573
-589
-611
-620
-601
-552
-477
-365
-213
-48
98
206
272
292
272
229
182
136
94
75
76
61
35
44
76
88
88
87
79
76
70
33
2
3
-2
-16
-14
-20
-43
-46
-43
-66
-87
-85
-68
-44
-35
-44
-35
-16
-34
-53
-26
4
-3
-15
-16
-23
-22
4
30
27
23
51
84
87
69
45
15
1
7
12
13
10
10
21
10
4
83
195
279
415
452
127
-271
-299
-134
-111
-147
-129
-139
-172
-173
-171
-180
-181
-178
-167
-134
-115
-113
-88
-42
-8
44
128
204
268
345
409
433
443
440
395
328
266
196
125
63
-2
-59
-89
-112
-146
-170
-178
-187
-190
-177
-171
-179
-178
-162
-144
-118
-92
-90
-78
-20
20
-6
-44
-56
-71
-88
-102
-122
-133
-138
-153
-146
-141
-166
-101
58
175
365
603
407
-166
-396
-201
-102
-150
-125
-85
-99
-102
-93
-94
-86
-65
-44
-32
-22
7
44
63
91
155
221
284
380
482
527
538
545
498
377
232
109
21
-42
-88
-115
-124
-128
-139
-148
-144
-130
-122
-125
-125
-127
-140
-147
-142
-136
-135
-123
-83
-29
-4
-14
-37
-75
-113
-117
-113
-123
-117
-114
-122
-79
-48
-79
4
188
287
465
703
464
-151
-366
-164
-90
-150
-130
-101
-112
-107
-98
-100
-102
-106
-101
-86
-80
-71
-45
-12
23
70
139
236
333
396
448
496
491
419
318
203
82
-9
-73
-130
-172
-186
-194
-219
-258
-280
-269
-257
-269
-282
-277
-276
-275
-254
-223
-205
-192
-168
-114
-46
-20
-40
-59
-67
-73
-79
-92
-95
-92
-117
-135
-118
-150
-164
-33
110
268
635
810
319
-269
-291
-92
-83
-97
-47
-45
-50
-18
-16
-40
-26
7
20
26
34
38
61
103
138
183
260
332
381
438
499
519
491
431
338
225
129
57
-1
-43
-67
-74
-72
-82
-91
-82
-80
-85
-75
-72
-86
-82
-73
-90
-96
-70
-56
-53
11
125
210
321
531
716
847
1101
1335
1140
564
47
-227
-350
-389
-390
-402
-419
-425
-428
-439
-464
-503
-537
-560
-590
-632
-668
-687
-706
-714
-687
-628
-552
-435
-271
-107
37
171
261
281
270
249
208
172
155
128
92
78
81
79
73
67
60
54
46
37
33
31
14
-22
-63
-94
-115
-120
-105
-97
-110
-111
-89
-78
-78
-66
-47
-27
0
26
40
49
54
48
42
44
44
34
19
5
-4
0
13
28
49
91
145
176
169
146
130
124
114
107
114
108
85
94
99
64
109
242
352
549
775
583
38
-222
-110
-40
-66
-50
-47
-70
-72
-80
-97
-92
-93
-101
-75
-49
-54
-44
-9
13
35
90
164
231
292
349
390
408
411
396
335
228
115
28
-28
-72
-119
-156
-166
-170
-180
-182
-177
-181
-187
-184
-181
-168
-147
-148
-170
-177
-168
-161
-152
-143
-149
-159
-160
-162
-155
-141
-147
-159
-127
-62
-24
-26
-44
-65
-82
-96
-118
-124
-104
-112
-135
-96
-80
-143
-70
152
267
399
636
468
-154
-456
-258
-129
-193
-199
-164
-170
-171
-169
-178
-169
-155
-156
-147
-126
-117
-99
-57
-26
9
94
202
290
382
486
564
598
588
522
405
271
154
71
10
-38
-71
-97
-127
-142
-137
-136
-139
-127
-109
-100
-97
-90
-75
-59
-52
-47
-40
-50
-68
-71
-57
-43
-46
-66
-56
8
65
67
44
19
-5
-12
-11
-11
3
1
-30
-29
-26
-58
8
158
256
502
853
660
-54
-395
-210
-119
-211
-212
-167
-165
-166
-177
-199
-185
-161
-163
-167
-152
-138
-133
-116
-83
-40
22
111
203
288
374
435
440
412
357
248
115
21
-38
-88
-123
-134
-130
-130
-148
-166
-160
-147
-129
-101
-85
-50
60
171
269
505
798
976
1270
1713
1668
899
82
-317
-474
-525
-480
-466
-494
-452
-381
-359
-355
-376
-437
-469
-482
-535
-579
-588
-630
-677
-653
-593
-527
-414
-266
-134
-20
68
96
82
59
26
-6
-13
-9
-13
-8
11
27
34
42
52
56
53
47
50
64
73
68
66
79
93
106
119
121
116
120
129
133
132
129
126
119
110
110
111
104
101
101
88
78
84
87
77
66
60
66
77
71
58
52
43
45
63
55
22
24
47
36
10
-1
-8
-8
-2
-8
14
71
72
5
-19
8
-3
-37
-33
-35
-71
-71
-46
-80
-91
15
122
232
462
509
86
-345
-337
-181
-168
-178
-155
-160
-167
-158
-156
-154
-145
-132
-111
-95
-86
-68
-50
-36
-8
35
76
123
188
265
327
356
363
362
345
300
240
175
100
33
-1
-13
-39
-66
-67
-60
-62
-57
-41
-31
-18
3
5
-17
-33
-24
-13
-29
-48
-41
-45
-73
-95
-111
-108
-71
-63
-121
-172
-194
-229
-248
-229
-224
-237
-231
-224
-210
-187
-182
-137
-5
141
296
398
190
-236
-383
-204
-94
-122
-116
-92
-104
-108
-97
-94
-90
-77
-66
-55
-36
-15
2
21
49
86
126
168
229
314
393
442
464
466
443
373
257
149
89
37
-27
-65
-64
-60
-60
-60
-71
-79
-59
-51
-80
-86
-35
4
-17
-49
-49
-36
-29
-16
-13
-25
-4
59
88
62
43
33
-2
-22
5
26
10
-11
-14
