# session 282
0
26
32
22
-13
-82
-164
-238
-299
-342
-366
-383
-392
-384
-364
-344
-320
-304
-307
-305
-285
-275
-274
-253
-230
-217
-175
-120
-110
-130
-135
-131
-133
-129
-123
-127
-124
-102
-98
-130
-134
-83
-58
-105
-156
-169
-170
-159
-135
-127
-123
-96
-83
-75
-35
-37
-83
-18
137
291
507
579
231
-156
-134
17
-9
-46
-21
-39
-60
-42
-44
-50
-19
9
5
-1
9
22
40
66
89
105
128
164
204
232
247
272
302
307
302
302
269
191
124
86
42
-8
-29
-19
-12
-31
-56
-49
-10
12
0
-12
-5
0
-2
-7
-20
-32
-29
-24
-26
-14
8
8
-9
-15
-24
-54
-79
-86
-86
-75
-60
-59
-37
36
87
53
-2
-15
-13
-14
-10
-17
-30
-26
-17
1
27
-13
-69
8
133
237
454
558
200
-226
-223
-63
-73
-103
-76
-84
-97
-79
-72
-72
-62
-51
-40
-41
-62
-77
-60
-27
-1
16
40
72
104
136
174
212
241
260
264
250
213
146
72
13
-35
-77
-104
-120
-135
-143
-143
-146
-151
-147
-137
-132
-130
-125
-119
-116
-117
-117
-109
-98
-92
-85
-72
-56
-43
-50
-82
-112
-124
-127
-111
-74
-58
-63
-24
47
62
10
-32
-42
-51
-50
-24
-9
-19
-30
-44
-38
0
-13
-52
35
173
273
461
543
188
-236
-246
-98
-115
-146
-103
-92
-103
-89
-78
-73
-58
-44
-33
-15
1
8
17
38
65
88
114
147
184
219
254
291
321
333
329
313
272
208
144
84
23
-24
-45
-57
-76
-88
-86
-86
-89
-78
-71
-80
-83
-83
-102
-114
-92
-71
-72
-77
-74
-70
-66
-71
-76
-61
-38
-28
-24
-29
-51
-61
-41
-37
-57
-33
35
49
-1
-34
-39
-49
-51
-44
-52
-53
-41
-52
-41
21
23
-6
93
225
320
537
650
286
-166
-194
-59
-78
-114
-107
-148
-182
-170
-165
-168
-161
-156
-146
-124
-110
-100
-75
-49
-36
-18
21
66
101
132
165
198
231
259
267
260
255
237
175
87
29
12
-3
-37
-58
-50
-54
-85
-106
-106
-114
-132
-141
-147
-153
-148
-133
-121
-107
-86
-77
-96
-117
-102
-57
-43
-65
-44
25
44
-6
-40
-39
-43
-46
-32
-22
-19
-16
-33
-31
2
-23
-62
16
120
224
459
547
180
-194
-154
-26
-73
-109
-75
-81
-99
-91
-85
-80
-69
-63
-56
-39
-28
-21
-2
27
52
72
97
130
174
222
264
294
315
328
325
294
236
160
82
21
-20
-55
-85
-101
-106
-109
-107
-101
-100
-97
-84
-74
-74
-79
-85
-89
-86
-75
-70
-70
-68
-65
-63
-62
-59
-55
-60
-73
-72
-57
-58
-64
-22
52
69
23
-13
-22
-32
-34
-28
-30
-31
-39
-66
-61
-46
-95
-85
65
186
318
576
560
82
-261
-170
-65
-117
-128
-92
-90
-90
-85
-85
-63
-36
-33
-28
-7
9
18
32
51
72
98
121
138
157
189
233
270
280
270
256
235
201
145
64
-22
-83
-119
-144
-160
-167
-175
-184
-185
-185
-192
-201
-204
-193
-171
-159
-160
-155
-150
-160
-153
-106
-79
-107
-94
-10
21
-37
-66
-45
-46
-62
-63
-78
-100
-88
-79
-103
-91
-62
-86
-51
101
226
365
542
415
-4
-173
-28
24
-39
-33
-7
-15
-12
-17
-37
-35
-20
-15
-3
15
12
-6
6
50
86
103
130
160
178
216
290
358
385
381
354
299
221
142
75
20
-35
-78
-88
-78
-79
-87
-86
-86
-99
-113
-132
-155
-155
-130
-120
-123
-112
-99
-102
-99
-84
-83
-91
-92
-91
-87
-76
-63
-39
8
52
61
42
12
-9
-1
22
28
19
12
-3
-12
15
12
-64
-66
59
160
261
394
275
-99
-254
-110
-33
-87
-104
-96
-100
-82
-80
-113
-108
-56
-31
-34
-20
3
10
8
9
15
32
62
104
161
213
232
230
241
265
262
216
161
114
54
-20
-74
-93
-100
-116
-133
-140
-142
-137
-128
-132
-140
-131
-122
-123
-112
-105
-123
-134
-120
-105
-100
-101
-103
-85
-66
-76
-53
31
64
7
-39
-51
-69
-72
-56
-64
-79
-67
-64
-68
-22
19
-9
13
121
214
391
614
454
-39
-251
-124
-64
-87
-61
-63
-87
-65
-40
-35
-33
-40
-26
25
57
56
75
111
110
82
94
144
169
174
211
261
286
304
323
311
261
188
93
-3
-66
-103
-127
-130
-127
-142
-154
-139
-122
-124
-119
-100
-96
-108
-102
-84
-82
-94
-92
-74
-60
-60
-65
-68
-70
-72
-68
-71
-90
-89
-38
10
14
39
113
137
69
-7
-45
-76
-98
-88
-76
-84
-83
-79
-92
-83
-71
-117
-113
5
103
215
372
262
-126
-288
-144
-80
-129
-115
-84
-90
-83
-74
-79
-69
-47
-31
-18
-5
8
23
42
59
73
94
138
194
233
264
303
335
351
360
362
343
296
229
160
114
83
46
9
-7
-6
-8
-21
-36
-44
-44
-43
-41
-40
-46
-57
-64
-65
-72
-94
-126
-148
-150
-146
-145
-136
-127
-137
-140
-108
-85
-89
-60
5
21
-23
-60
-77
-94
-101
-97
-101
-104
-91
-89
-96
-71
-70
-119
-80
51
150
290
410
188
-207
-268
-95
-68
-117
-91
-71
-82
-77
-73
-76
-69
-61
-56
-47
-37
-31
-19
0
20
43
73
110
148
183
214
243
278
313
330
323
294
239
167
101
48
8
-10
-23
-52
-83
-92
-89
-95
-108
-116
-116
-117
-121
-117
-108
-104
-92
-67
-56
-58
-53
-46
-48
-55
-65
-75
-72
-50
-21
-19
-47
-36
32
60
6
-45
-48
-43
-39
-23
-18
-17
-8
-12
-14
12
11
9
114
267
383
471
357
-21
-252
-132
-9
-49
-79
-63
-73
-90
-97
-107
-103
-80
-56
-49
-50
-25
8
0
-36
-44
-16
27
86
153
202
228
253
285
311
320
301
252
189
121
48
-20
-67
-98
-126
-143
-140
-136
-137
-128
-110
-100
-89
-61
-38
-40
-43
-35
-46
-75
-97
-108
-112
-109
-111
-116
-112
-114
-119
-70
6
14
-33
-42
-30
-43
-32
13
13
-29
-51
-63
-61
-28
-39
-65
22
148
261
446
451
48
-306
-238
-88
-105
-122
-99
-103
-87
-62
-77
-93
-82
-77
-72
-50
-25
-4
17
35
51
71
97
127
161
199
232
259
286
305
302
280
239
177
111
56
13
-18
-35
-47
-54
-50
-40
-28
-17
-20
-34
-41
-39
-40
-41
-42
-55
-75
-87
-92
-93
-91
-93
-100
-105
-109
-120
-123
-100
-75
-76
-66
-3
60
44
-16
-48
-56
-64
-60
-50
-59
-71
-83
-100
-77
-41
-73
-74
42
143
285
559
544
53
-283
-157
-22
-69
-84
-63
-83
-89
-72
-68
-62
-48
-45
-51
-56
-52
-36
-15
0
8
13
28
60
97
121
136
155
177
193
204
202
169
113
67
38
14
-2
-13
-29
-43
-48
-47
-41
-30
-23
-17
-12
-27
-54
-73
-79
-88
-96
-95
-88
-82
-75
-66
-68
-81
-84
-57
-27
-33
-43
7
76
72
15
-16
-25
-45
-59
-62
-68
-62
-51
-66
-59
-13
-24
-32
82
198
311
564
626
199
-202
-156
-27
-70
-93
-65
-83
-103
-94
-93
-94
-82
-72
-69
-62
-50
-33
-19
-5
16
50
89
123
145
167
200
228
239
246
243
215
172
133
84
21
-30
-58
-74
-87
-100
-111
-123
-134
-137
-136
-140
-135
-113
-100
-104
-104
-93
-88
-91
-82
-66
-61
-64
-60
-51
-51
-50
-37
-28
-40
-46
-22
-6
-23
-8
58
76
17
-30
-42
-56
-59
-42
-42
-48
-34
-36
-53
-28
-21
-69
-26
104
184
351
573
393
-109
-287
-131
-85
-132
-99
-82
-117
-112
-82
-66
-50
-32
-24
-14
5
26
49
67
82
101
127
150
166
184
212
244
270
288
296
288
262
223
160
75
-4
-57
-93
-120
-135
-141
-145
-146
-145
-147
-143
-127
-112
-104
-100
-95
-85
-71
-58
-38
-18
-11
-8
6
6
-20
-43
-52
-68
-87
-92
-79
-65
-70
-80
-46
21
33
-22
-59
-61
-72
-76
-52
-46
-68
-79
-88
-83
-54
-70
-82
33
174
295
497
514
99
-267
-201
-65
-108
-127
-83
-90
-102
-68
-36
-20
-6
4
8
1
-19
-29
-10
24
44
53
73
108
152
194
223
246
281
318
334
330
312
267
194
124
73
37
11
-6
-24
-47
-65
-72
-75
-83
-89
-100
-132
-175
-195
-184
-164
-152
-138
-126
-136
-160
-158
-135
-130
-138
-132
-122
-125
-134
-140
-128
-102
-93
-105
-71
29
102
80
24
-3
-18
-31
-33
-33
-23
-4
-9
-15
12
-3
-39
46
175
264
460
577
240
-202
-218
-53
-65
-109
-77
-68
-72
-48
-41
-45
-33
-18
-11
-5
-2
4
23
43
59
77
100
128
163
193
216
247
280
296
292
274
241
186
113
40
-19
-61
-89
-106
-115
-126
-137
-152
-166
-170
-162
-150
-142
-138
-133
-126
-116
-107
-97
-82
-69
-64
-60
-47
-33
-23
-18
-18
-16
-9
-3
-9
-13
17
89
145
132
70
6
-52
-100
-128
-140
-133
-117
-124
-126
-89
-95
-121
-15
126
193
390
592
335
-139
-226
-71
-74
-138
-114
-85
-78
-67
-68
-69
-57
-56
-69
-78
-74
-60
-37
-5
30
64
104
154
196
223
246
271
298
325
330
296
245
194
127
46
-13
-39
-62
-101
-138
-147
-134
-123
-128
-135
-134
-132
-132
-121
-96
-82
-86
-88
-78
-69
-66
-59
-54
-54
-46
-38
-61
-76
-17
64
58
-1
-21
-26
-49
-50
-32
-34
-29
-17
-43
-43
-4
-36
-68
52
199
348
616
669
222
-202
-181
-71
-114
-125
-82
-88
-97
-79
-70
-65
-63
-71
-70
-57
-49
-35
-17
-7
7
31
54
79
111
139
157
181
214
229
217
197
160
85
15
-15
-43
-89
-110
-103
-106
-115
-112
-108
-115
-112
-95
-89
-97
-101
-95
-89
-86
-82
-75
-72
-74
-80
-93
-105
-83
-39
-34
-45
8
74
52
-14
-43
-57
-78
-80
-75
-81
-73
-54
-44
-4
49
16
-16
82
200
340
588
598
150
-208
-131
-14
-66
-85
-56
-76
-87
-61
-52
-55
-54
-59
-60
-49
-40
-40
-33
-16
2
24
54
85
102
104
114
145
182
204
210
198
159
102
41
-15
-51
-74
-98
-109
-93
-80
-89
-93
-82
-80
-84
-76
-65
-65
-65
-55
-46
-42
-40
-42
-44
-40
-35
-33
-33
-31
-9
24
24
12
65
138
130
64
21
-2
-20
-12
4
10
23
25
-1
13
52
16
-7
96
223
385
595
488
6
-260
-133
-47
-114
-131
-121
-147
-155
-149
-156
-153
-142
-137
-123
-103
-95
-92
-77
-54
-24
10
39
68
112
161
199
228
250
257
244
211
161
103
47
4
-22
-39
-61
-79
-81
-81
-93
-104
-102
-98
-100
-101
-93
-83
-79
-80
-78
-72
-68
-66
-68
-70
-68
-65
-63
-60
-57
-64
-74
-71
-54
-55
-65
-25
50
67
16
-24
-38
-49
-43
-27
-31
-33
-22
-29
-29
0
-23
-55
34
157
279
524
600
186
-245
-220
-73
-107
-138
-98
-98
-110
-97
-91
-90
-78
-68
-64
-58
-49
-36
-21
-10
-1
23
58
86
111
144
179
209
232
246
249
236
202
154
105
56
9
-20
-25
-28
-41
-42
-31
-30
-41
-44
-43
-44
-41
-33
-28
-26
-19
-10
-7
-13
-25
-34
-35
-31
-25
-23
-32
-43
-43
-44
-48
-51
-71
-87
-38
33
25
-37
-67
-70
-76
-71
-58
-63
-64
-51
-58
-56
-21
-41
-80
9
140
252
486
585
198
-239
-223
-64
-78
-100
-65
-67
-66
-43
-41
-46
-52
-69
-66
-49
-49
-35
8
41
50
61
88
129
164
183
211
261
297
301
296
282
245
187
121
57
-6
-75
-135
-165
-170
-173
-172
-163
-154
-147
-136
-125
-118
-109
-100
-91
-83
-81
-83
-77
-70
-80
-93
-93
-91
-93
-91
-87
-80
-64
-48
-46
-50
-59
-76
-78
-55
-52
-69
-33
35
34
-23
-58
-73
-81
-62
-49
-67
-58
-21
-29
-44
2
17
-15
42
155
266
477
556
185
-246
-258
-113
-119
-129
-70
-48
-46
-28
-25
-25
-6
13
30
47
51
53
70
78
56
39
56
88
113
141
174
204
235
267
277
260
232
189
124
53
-2
-41
-72
-90
-93
-94
-98
-84
-54
-42
-42
-28
-18
-30
-32
-10
5
1
-5
-7
-6
-3
-3
-7
-14
-20
-16
-7
-7
-15
-15
-9
-5
-5
-4
-8
-13
-2
21
34
50
96
125
86
24
-2
-13
-22
-17
-12
-15
-6
-6
-27
-13
10
-32
-28
95
206
342
525
398
-63
-287
-144
-56
-106
-103
-72
-76
-77
-82
-111
-139
-153
-152
-139
-126
-116
-103
-89
-72
-45
-19
-6
10
42
81
117
146
168
189
204
200
162
98
26
-42
-99
-136
-152
-166
-186
-200
-209
-222
-230
-221
-207
-208
-219
-214
-198
-193
-194
-182
-168
-166
-167
-160
-150
-145
-149
-148
-137
-128
-128
-122
-114
-114
-125
-132
-117
-85
-74
-77
-32
34
32
-19
-42
-42
-41
-27
-9
-2
20
54
54
46
73
83
89
196
348
465
578
518
165
-91
14
152
127
118
156
158
156
171
179
189
189
174
185
203
176
137
135
144
139
137
156
194
242
281
312
353
403
437
440
414
359
284
206
132
62
9
-17
-27
-35
-50
-62
-63
-64
-76
-85
-80
-73
-76
-80
-80
-79
-77
-75
-80
-95
-102
-97
-96
-103
-105
-105
-110
-119
-135
-157
-181
-192
-187
-194
-212
-196
-144
-134
-188
-245
-265
-270
-291
-324
-350
-362
-370
-385
-396
-394
-421
-471
-420
-275
-208
-181
-48
