# session 49
-19
-13
-24
-39
-31
-15
-20
-28
-15
-3
-4
-1
3
-3
-2
11
20
28
37
39
37
29
10
-1
13
28
21
16
51
109
142
138
109
71
41
27
32
37
28
37
46
1
16
179
340
534
835
774
142
-332
-239
-82
-130
-153
-125
-144
-149
-126
-125
-123
-109
-98
-69
-41
-53
-65
-26
25
53
87
137
198
264
307
308
304
303
264
202
145
73
-5
-50
-78
-105
-112
-105
-113
-123
-113
-97
-101
-112
-101
-83
-85
-87
-63
-34
-29
-51
-88
-111
-109
-118
-131
-119
-126
-151
-126
-100
-111
-44
94
215
334
292
-57
-360
-302
-146
-131
-145
-132
-136
-133
-119
-123
-126
-109
-85
-68
-70
-82
-72
-28
25
69
105
148
206
259
281
277
268
245
184
92
3
-62
-104
-129
-138
-129
-113
-102
-99
-92
-72
-58
-65
-55
-5
32
17
12
65
111
91
46
25
16
0
-4
15
14
-5
11
17
-32
-8
127
240
353
433
206
-218
-351
-195
-119
-148
-135
-121
-137
-135
-122
-116
-104
-90
-85
-85
-81
-69
-49
-29
4
54
105
149
199
249
283
295
283
247
181
96
22
-23
-54
-84
-100
-102
-98
-94
-93
-99
-102
-94
-84
-75
-67
-63
-54
-17
33
49
15
-28
-50
-70
-85
-64
-50
-71
-60
-53
-108
-59
141
277
406
586
384
-208
-465
-257
-132
-176
-159
-131
-150
-143
-132
-140
-128
-108
-90
-57
-42
-59
-47
-2
28
67
153
234
276
312
351
370
353
291
197
106
35
-19
-56
-83
-103
-107
-103
-89
-27
68
171
377
707
989
1223
1565
1758
1358
558
-51
-312
-429
-484
-484
-492
-519
-520
-503
-509
-545
-579
-601
-637
-693
-738
-765
-778
-749
-668
-574
-464
-302
-119
24
131
198
192
157
143
122
97
101
101
77
61
47
35
50
66
44
29
60
73
27
1
28
38
32
51
52
22
12
22
15
-2
-5
4
4
-11
-13
-2
-12
-22
3
25
15
24
77
124
122
99
89
74
46
44
66
58
48
68
54
32
113
237
355
543
570
176
-252
-283
-149
-134
-141
-122
-141
-152
-135
-133
-139
-136
-132
-124
-102
-68
-45
-37
-8
38
63
100
179
240
252
260
280
275
223
153
105
71
20
-37
-69
-80
-95
-106
-99
-86
-82
-76
-62
-62
-70
-52
-23
-34
-58
-38
-4
-7
-40
-75
-99
-106
-110
-105
-90
-92
-83
-46
-59
-82
19
160
266
428
434
44
-331
-287
-119
-110
-114
-72
-74
-86
-65
-54
-59
-55
-46
-39
-18
15
29
19
36
91
137
169
216
268
306
330
333
292
213
121
37
-33
-86
-114
-124
-139
-158
-156
-152
-168
-170
-150
-154
-168
-139
-104
-120
-124
-62
0
0
-30
-55
-74
-76
-64
-49
-46
-49
-20
4
-44
-17
172
312
432
704
695
120
-328
-219
-65
-128
-144
-97
-110
-119
-95
-91
-94
-89
-87
-80
-74
-76
-65
-27
18
59
105
145
182
246
324
351
318
281
225
102
-24
-79
-108
-157
-182
-171
-168
-181
-189
-189
-182
-169
-157
-135
-118
-136
-144
-89
-17
16
21
-7
-58
-76
-57
-44
-42
-55
-63
-32
-49
-113
-23
166
282
508
744
433
-217
-406
-188
-112
-158
-125
-94
-96
-72
-52
-56
-50
-32
-20
-18
-12
15
50
73
98
133
170
224
301
348
345
335
325
267
169
91
41
-16
-77
-118
-131
-122
-118
-140
-155
-141
-141
-169
-171
-135
-108
-106
-106
-84
-40
-4
-6
-39
-71
-91
-102
-89
-64
-76
-89
-60
-68
-94
-8
114
189
360
471
164
-269
-311
-140
-114
-142
-111
-98
-103
-84
-76
-84
-71
-49
-36
-29
-23
-14
6
29
56
101
146
173
208
252
271
269
253
192
109
60
14
-58
-99
-98
-115
-146
-139
-104
-83
-83
-77
-67
-77
-83
-41
16
39
76
210
421
621
760
859
921
852
642
488
453
324
42
-184
-263
-291
-307
-306
-311
-322
-327
-342
-367
-385
-403
-432
-464
-498
-534
-562
-577
-575
-553
-513
-439
-326
-211
-124
-46
31
76
88
86
77
71
73
67
54
55
63
65
64
68
76
89
101
101
90
87
88
77
68
82
85
45
3
5
25
14
-14
-5
48
98
110
77
40
46
69
60
55
63
42
44
79
44
39
205
355
451
674
680
153
-305
-221
-41
-81
-114
-67
-68
-96
-92
-70
-56
-66
-76
-55
-41
-56
-53
-18
11
34
83
155
230
292
331
346
346
335
293
204
104
31
-37
-116
-163
-173
-192
-220
-228
-237
-261
-271
-253
-220
-192
-200
-227
-210
-139
-81
-83
-121
-153
-172
-190
-186
-155
-157
-183
-141
-74
-67
38
276
397
482
692
587
3
-354
-202
-63
-121
-139
-107
-111
-111
-105
-121
-137
-136
-123
-102
-90
-83
-61
-23
19
65
126
204
276
322
358
388
373
303
226
158
74
-2
-33
-47
-67
-79
-80
-81
-78
-78
-79
-65
-53
-72
-87
-69
-54
-75
-106
-98
-37
24
30
4
-26
-63
-93
-97
-78
-63
-74
-63
-24
-43
-60
43
165
345
711
817
283
-273
-279
-119
-140
-158
-112
-117
-126
-103
-100
-104
-88
-80
-78
-57
-29
-10
11
43
81
119
159
204
254
296
304
283
263
231
152
59
1
-48
-99
-113
-104
-119
-139
-137
-141
-154
-148
-135
-145
-173
-183
-161
-136
-140
-142
-101
-67
-80
-98
-100
-113
-125
-115
-93
-74
-73
-66
-34
-44
-68
25
154
218
357
445
128
-315
-346
-133
-85
-125
-102
-81
-73
-37
-20
-30
-7
41
52
32
19
23
38
55
69
98
144
185
222
267
303
309
285
237
172
105
45
0
-27
-41
-55
-72
-80
-76
-66
-52
-35
-34
-49
-49
-24
-7
-13
1
50
79
65
35
-10
-52
-56
-43
-50
-65
-79
-69
-45
-83
-114
-11
120
219
404
435
32
-376
-342
-161
-153
-170
-128
-121
-124
-85
-61
-77
-82
-60
-51
-62
-60
-36
-10
15
50
98
162
228
281
334
383
394
362
308
217
98
2
-46
-71
-90
-103
-107
-108
-116
-122
-116
-110
-112
-120
-121
-102
-88
-97
-90
-42
6
18
-6
-49
-77
-89
-114
-119
-88
-101
-125
-81
-79
-129
-16
187
283
445
587
248
-322
-437
-215
-135
-176
-177
-164
-152
-136
-130
-110
-92
-101
-93
-48
-26
-32
2
74
119
141
193
270
339
386
407
393
344
266
175
76
-32
-109
-132
-140
-164
-178
-175
-168
-158
-149
-134
-112
-112
-124
-90
-42
-55
-89
-57
22
73
77
53
20
-3
-20
-32
-16
10
-6
-29
-30
-66
-53
115
290
440
676
639
76
-386
-311
-147
-172
-175
-135
-148
-147
-117
-104
-96
-105
-125
-107
-65
-50
-44
-17
14
43
84
137
200
269
319
325
304
274
215
121
28
-38
-76
-93
-109
-133
-145
-134
-126
-125
-110
-91
-86
-80
-69
-66
-53
-28
-33
-53
-20
49
72
47
22
1
-21
-25
-5
6
-28
-60
-23
-2
-56
-21
128
222
375
615
463
-114
-410
-254
-141
-181
-165
-125
-127
-118
-119
-145
-124
-73
-74
-103
-93
-67
-61
-45
5
60
88
108
169
263
315
308
305
291
205
96
38
2
-52
-100
-119
-127
-141
-153
-152
-143
-135
-129
-124
-127
-129
-114
-96
-89
-75
-57
-41
-9
28
35
10
-24
-36
-20
-13
-10
-4
-17
-18
14
-1
-16
89
222
373
615
610
132
-284
-240
-93
-107
-126
-97
-86
-85
-96
-115
-97
-71
-84
-87
-56
-44
-49
-17
29
43
67
138
215
266
296
309
309
297
247
161
90
45
-1
-40
-46
-46
-61
-68
-52
-42
-50
-53
-46
-54
-73
-75
-61
-53
-53
-53
-44
-20
-4
-26
-69
-96
-96
-98
-108
-94
-76
-92
-91
-68
-95
-102
6
125
238
385
284
-157
-447
-346
-195
-172
-165
-162
-175
-167
-159
-158
-137
-120
-116
-92
-63
-48
-18
25
50
67
106
163
223
286
336
351
343
319
262
173
84
25
-7
-34
-66
-77
-62
-58
-72
-74
-66
-66
-64
-64
-84
-108
-101
-76
-73
-88
-74
-17
30
35
14
-9
-18
-16
-19
-15
8
13
12
45
39
13
120
283
422
745
1000
582
-138
-317
-119
-90
-136
-100
-103
-132
-116
-109
-130
-145
-149
-134
-110
-105
-97
-72
-60
-43
15
76
122
198
281
305
291
283
249
164
55
-39
-107
-148
-160
-162
-183
-206
-209
-201
-196
-189
-175
-153
-143
-158
-163
-130
-108
-140
-170
-138
-67
-22
-17
-35
-59
-75
-79
-86
-83
-77
-86
-67
-26
-65
-79
88
255
371
641
708
168
-372
-331
-143
-178
-206
-165
-181
-184
-130
-117
-150
-142
-99
-87
-103
-88
-55
-44
-27
30
92
138
201
284
349
380
374
320
235
149
73
10
-27
-49
-72
-83
-79
-90
-104
-83
-44
-15
15
69
200
448
701
888
1213
1712
1858
1278
429
-78
-237
-312
-369
-392
-401
-402
-399
-413
-431
-431
-432
-454
-488
-522
-554
-583
-603
-600
-559
-488
-387
-253
-105
28
115
145
148
144
111
63
39
24
-5
-22
-23
-30
-33
-21
-22
-45
-47
-17
1
-6
-21
-40
-54
-38
-10
-8
-30
-50
-59
-53
-41
-43
-40
-13
5
-11
-29
-26
-19
-21
-25
-20
-16
-29
-44
-35
-15
-16
-36
-33
22
93
112
64
19
25
37
26
28
29
18
42
50
-1
34
182
330
578
811
531
-112
-361
-192
-124
-174
-144
-128
-172
-174
-142
-141
-148
-132
-101
-73
-58
-46
-24
-4
11
59
132
177
212
270
305
300
307
299
236
180
155
99
22
-10
-16
-41
-63
-61
-63
-81
-84
-48
0
21
38
92
173
319
549
724
825
1035
1202
943
382
-34
-209
-286
-315
-315
-314
-320
-346
-368
-353
-346
-389
-437
-461
-490
-523
-543
-562
-578
-560
-501
-410
-292
-173
-75
15
101
132
94
55
48
25
-19
-39
-53
-70
-55
-30
-40
-47
-44
-59
-57
-22
-16
-46
-57
-46
-37
-25
-9
-9
-10
28
78
80
83
184
304
242
-61
-425
-617
-587
-451
-306
-177
-68
36
127
163
153
158
202
242
230
189
166
161
156
164
197
247
313
393
477
555
615
639
624
573
480
370
279
200
107
17
-42
-83
-122
-151
-169
-192
-211
-206
-202
-221
-232
-211
-190
-185
-177
-163
-144
-120
-113
-127
-118
-85
-90
-125
-121
-88
-83
-96
-89
-78
-83
-84
-69
-58
-60
-52
-31
-23
-25
-23
-23
-28
-27
-26
-38
-60
-77
-74
-64
-76
-93
-61
3
37
21
-12
-29
-29
-25
-2
14
-13
-12
23
0
23
201
387
627
964
864
158
-333
-218
-52
-102
-134
-98
-81
-85
-102
-114
-108
-104
-98
-92
-101
-97
-72
-65
-55
-5
40
60
109
184
226
237
243
235
202
149
74
5
-40
-82
-129
-160
-179
-190
-176
-155
-153
-152
-152
-158
-149
-130
-127
-122
-120
-148
-153
-93
-29
-6
-5
-29
-65
-77
-87
-107
-74
-24
-54
-84
-51
-57
-36
138
312
461
678
581
-8
-400
-249
-91
-152
-153
-93
-107
-123
-99
-92
-95
-91
-101
-108
-88
-70
-54
-4
49
64
95
186
289
348
376
405
415
355
254
162
61
-42
-88
-102
-146
-180
-170
-158
-159
-147
-125
-106
-94
-91
-86
-76
-77
-78
-64
-67
-77
-21
89
164
197
240
326
481
645
741
932
1367
1675
1362
598
-15
-255
-319
-338
-325
-321
-334
-330
-331
-357
-368
-369
-405
-439
-438
-463
-524
-550
-543
-558
-573
-544
-486
-409
-302
-171
-36
68
114
116
89
29
-26
-23
3
-5
-30
-30
-12
1
-3
-30
-50
-18
23
11
-23
-24
-18
-29
-32
-32
-44
-45
-36
-27
2
19
-16
-26
44
100
87
58
41
25
12
4
11
28
25
24
34
12
26
147
270
405
589
493
5
-315
-202
-64
-85
-81
-54
-80
-97
-83
-78
-81
-87
-90
-69
-43
-38
-32
-3
28
55
97
152
202
238
269
313
356
359
305
230
157
87
32
5
-25
-72
-97
-84
-65
-65
-68
-60
-49
-40
-32
-32
-39
-31
-1
19
17
41
108
164
190
207
234
314
438
511
583
801
1002
850
388
-23
-216
-270
-279
-281
-282
-279
-283
-295
-299
-297
-304
-313
-328
-359
-391
-412
-434
-457
-470
-464
-435
-384
-303
-184
-61
30
100
160
181
163
132
97
56
25
8
-4
-16
-25
-22
-14
-18
-31
-22
5
9
-14
-22
-15
-24
-41
-46
-51
-60
-59
-59
-66
-65
-36
12
55
70
51
22
7
-1
-11
-2
12
5
14
34
-6
0
162
316
464
759
796
223
-322
-281
-80
-103
-158
-136
-127
-127
-113
-111
-121
-126
-113
-100
-108
-114
-99
-76
-46
-5
36
80
132
190
258
313
320
285
222
127
33
-32
-97
-165
-200
-220
-247
-250
-233
-231
-231
-223
-217
-203
-188
-182
-174
-177
-178
-117
-29
-13
-51
-78
-95
-102
-93
-94
-96
-85
-87
-89
-88
-107
-49
126
282
443
589
359
-185
-397
-192
-68
-107
-88
-39
-34
-25
-4
3
12
37
64
79
91
109
132
167
217
263
309
371
429
484
546
567
516
442
369
279
189
125
69
14
-17
-16
-11
-22
-31
-16
8
25
41
52
27
-11
3
49
35
-21
-9
67
114
113
85
40
13
17
12
-1
-6
-17
-11
0
-47
-46
80
170
296
602
616
49
-418
-348
-211
-263
-277
-239
-267
-298
-289
-289
-293
-291
-295
-300
-295
-289
-289
-287
-273
-251
-217
-165
-112
-83
-71
-59
-60
-98
-165
