# session 158
14
-1
-44
-105
-182
-275
-364
-454
-564
-661
-710
-735
-742
-684
-541
-367
-219
-103
1
95
165
215
249
275
324
393
425
422
453
516
557
565
553
555
603
654
700
787
864
946
1207
1488
1293
598
-57
-364
-474
-552
-617
-678
-735
-776
-804
-844
-905
-975
-1031
-1077
-1116
-1131
-1131
-1166
-1217
-1210
-1132
-1012
-866
-684
-456
-209
-14
99
168
207
228
278
337
340
322
359
425
462
478
505
538
574
632
687
699
709
764
808
859
1057
1371
1626
1812
1932
1851
1629
1502
1426
1209
915
725
649
546
309
27
-166
-341
-595
-854
-1059
-1196
-1175
-996
-810
-708
-687
-706
-686
-613
-552
-487
-379
-279
-195
-70
63
131
138
122
115
145
208
271
320
363
403
421
402
372
363
351
282
179
105
54
-7
-54
-70
-101
-159
-190
-187
-204
-240
-256
-261
-282
-309
-320
-299
-271
-288
-326
-303
-237
-217
-244
-235
-173
-113
-103
-141
-205
-267
-309
-317
-306
-319
-344
-272
-110
-46
-84
-21
108
207
435
615
267
-323
-459
-261
-213
-272
-266
-260
-285
-306
-327
-339
-342
-367
-406
-437
-466
-492
-496
-485
-475
-455
-409
-346
-293
-267
-263
-264
-247
-239
-295
-394
-445
-461
-517
-592
-629
-627
-606
-570
-511
-413
-298
-208
-132
-57
-11
10
48
119
205
283
334
354
341
301
259
231
211
198
217
278
345
397
442
442
403
447
582
699
843
960
765
364
244
431
571
610
670
721
739
765
785
755
677
566
445
333
233
149
89
57
46
43
57
105
158
156
118
106
106
62
-16
-86
-126
-141
-148
-133
-48
72
171
300
474
597
658
709
716
654
591
569
571
572
574
633
755
825
766
639
534
460
380
298
267
288
272
187
99
21
-79
-127
-77
-28
33
141
25
-402
-685
-603
-491
-524
-561
-549
-521
-495
-506
-541
-559
-581
-624
-653
-658
-660
-653
-630
-599
-554
-494
-446
-414
-360
-294
-269
-286
-327
-401
-482
-524
-535
-545
-536
-496
-453
-419
-376
-325
-255
-139
-32
69
302
596
759
967
1292
1188
430
-342
-677
-794
-899
-971
-1024
-1069
-1084
-1108
-1158
-1195
-1217
-1255
-1307
-1358
-1408
-1451
-1467
-1441
-1358
-1226
-1069
-901
-730
-570
-449
-416
-455
-429
-246
-14
121
176
252
370
482
565
648
754
849
874
854
853
878
903
939
978
1010
1060
1126
1176
1215
1259
1270
1221
1170
1161
1156
1125
1084
1043
999
972
964
941
886
816
727
619
552
544
515
456
448
483
497
516
551
515
381
220
86
7
-34
-83
-115
-119
-169
-193
-76
52
195
472
482
-65
-547
-500
-351
-390
-418
-392
-389
-346
-266
-230
-224
-200
-152
-102
-60
-8
64
140
209
274
334
387
433
463
472
461
422
354
274
182
80
4
-33
-80
-146
-180
-184
-213
-243
-211
-161
-189
-283
-370
-457
-577
-703
-811
-912
-984
-1008
-1025
-1061
-1103
-1140
-1152
-1125
-1083
-1055
-1020
-983
-964
-931
-884
-889
-874
-754
-630
-507
-329
-375
-776
-1049
-932
-784
-778
-740
-668
-634
-578
-490
-419
-347
-246
-139
-57
-8
49
153
278
388
498
624
751
862
947
993
1006
1006
985
936
905
930
952
925
919
989
1059
1066
1048
1032
1010
1006
1022
1002
932
873
838
797
763
740
707
690
736
787
735
600
480
387
290
212
150
73
40
129
224
166
56
52
81
143
312
294
-135
-532
-526
-413
-448
-506
-508
-506
-515
-475
-274
13
146
121
125
162
196
274
320
242
137
91
74
89
151
205
217
194
142
84
51
19
-53
-157
-275
-412
-554
-670
-761
-842
-911
-963
-1010
-1062
-1110
-1153
-1179
-1190
-1216
-1262
-1278
-1259
-1265
-1299
-1331
-1360
-1347
-1238
-1109
-1063
-1059
-1038
-1002
-928
-848
-812
-709
-501
-314
-131
-33
-322
-771
-789
-469
-277
-202
-79
45
141
221
256
284
351
421
470
515
558
598
651
722
801
884
962
1032
1100
1156
1173
1145
1083
990
874
777
714
658
606
584
573
549
550
576
591
642
767
904
1083
1376
1661
1905
2280
2534
2129
1247
607
383
273
176
137
109
79
73
72
62
51
35
22
6
-51
-138
-189
-179
-136
-80
11
147
282
394
501
559
528
461
422
410
404
412
448
481
487
486
458
377
316
310
258
104
-91
-265
-354
-346
-363
-491
-648
-766
-884
-1020
-1132
-1202
-1243
-1286
-1347
-1401
-1429
-1449
-1479
-1514
-1542
-1555
-1567
-1597
-1628
-1630
-1615
-1605
-1581
-1484
-1299
-1107
-999
-971
-945
-888
-833
-816
-810
-769
-708
-648
-572
-469
-276
42
325
520
750
803
461
167
297
522
577
602
646
643
626
603
562
526
492
444
403
377
361
360
360
361
396
448
465
458
455
423
350
285
228
141
32
-77
-181
-260
-299
-328
-344
-315
-263
-218
-133
18
152
209
228
277
397
577
755
927
1155
1379
1472
1422
1277
1163
1268
1397
1135
661
466
506
511
509
537
509
461
471
508
519
515
521
518
493
505
572
630
682
760
802
785
799
835
795
693
600
499
357
187
11
-150
-278
-382
-478
-561
-626
-680
-724
-764
-807
-850
-895
-950
-1002
-1042
-1079
-1114
-1136
-1158
-1185
-1202
-1208
-1214
-1217
-1221
-1240
-1262
-1248
-1211
-1208
-1224
-1190
-1128
-1102
-1095
-1087
-1098
-1095
-1040
-989
-971
-942
-891
-811
-681
-563
-461
-256
40
358
692
800
500
222
342
559
621
666
717
712
744
828
881
924
986
1022
1027
1031
1040
1068
1121
1172
1208
1252
1312
1366
1422
1484
1516
1502
1475
1410
1242
1014
821
660
492
345
240
143
41
-40
-93
-149
-222
-282
-317
-366
-424
-444
-456
-512
-561
-552
-537
-568
-627
-683
-735
-783
-800
-772
-729
-704
-677
-629
-601
-590
-502
-344
-187
94
471
505
129
-103
15
175
274
369
372
274
183
103
1
-91
-160
-213
-246
-269
-285
-282
-260
-237
-216
-193
-171
-156
-166
-204
-259
-327
-417
-517
-603
-669
-723
-760
-780
-800
-813
-805
-791
-753
-674
-587
-430
-144
101
258
528
721
434
-96
-352
-344
-297
-229
-144
-81
-7
73
126
170
214
247
280
295
278
277
313
346
384
475
603
734
861
963
1008
1008
970
874
751
666
610
545
481
426
371
321
254
149
59
17
-16
-58
-90
-109
-123
-141
-165
-171
-153
-150
-172
-197
-223
-247
-253
-249
-251
-242
-224
-225
-240
-234
-196
-149
-105
-57
-12
10
20
60
127
186
266
395
496
513
508
532
560
570
584
620
657
672
691
714
716
783
921
992
1086
1231
953
182
-331
-316
-289
-418
-487
-519
-585
-621
-636
-663
-672
-666
-667
-663
-649
-644
-638
-610
-570
-529
-472
-405
-355
-317
-277
-258
-269
-296
-334
-381
-425
-475
-531
-563
-562
-552
-550
-536
-507
-485
-469
-435
-402
-404
-409
-382
-352
-340
-318
-272
-205
-141
-128
-158
-169
-144
-117
-105
-101
-95
-82
-55
-21
-24
-36
31
151
303
559
685
353
-114
-182
-18
10
-13
42
74
60
66
82
85
90
95
107
140
174
199
247
319
373
414
476
549
603
621
607
579
536
459
366
303
260
205
167
177
190
175
173
197
215
227
246
247
210
157
127
144
166
153
150
177
180
145
122
122
134
145
155
191
245
278
322
393
418
431
536
675
837
1101
1168
741
237
135
214
168
88
49
-12
-71
-96
-125
-159
-176
-186
-201
-215
-221
-217
-211
-213
-206
-181
-162
-163
-159
-153
-173
-221
-293
-396
-488
-525
-541
-566
-586
-607
-616
-583
-564
-573
-530
-481
-426
-178
179
399
639
937
798
160
-382
-593
-710
-831
-947
-1087
-1213
-1292
-1380
-1487
-1569
-1633
-1701
-1741
-1708
-1616
-1522
-1459
-1397
-1276
-1058
-743
-348
75
447
735
970
1136
1150
1026
923
916
932
920
858
748
714
804
832
774
853
1035
1038
877
834
929
897
646
353
140
-28
-172
-269
-320
-346
-352
-328
-262
-179
-137
-141
-141
-144
-196
-223
-115
58
159
191
207
222
274
397
540
657
751
808
810
761
675
619
654
729
816
931
987
1012
1180
1412
1644
2016
2185
1693
1073
1004
1159
1110
1006
858
508
111
-171
-412
-639
-788
-878
-974
-1074
-1143
-1178
-1205
-1225
-1223
-1209
-1194
-1165
-1133
-1128
-1134
-1117
-1094
-1087
-1070
-1042
-1028
-997
-904
-790
-710
-646
-561
-461
-372
-301
-246
-188
-96
11
57
39
43
106
191
274
347
388
392
379
380
397
410
428
475
515
510
493
478
467
506
573
642
788
866
606
256
252
427
458
438
456
397
290
252
232
147
40
-50
-159
-278
-359
-410
-459
-494
-523
-554
-559
-533
-509
-507
-533
-601
-710
-821
-911
-1016
-1151
-1249
-1277
-1271
-1216
-1094
-979
-911
-853
-822
-853
-882
-843
-736
-582
-422
-305
-201
-44
173
380
517
585
622
646
647
651
706
771
766
744
764
747
700
736
839
969
1066
857
339
16
80
181
176
191
207
183
183
230
310
398
468
543
624
645
597
508
350
123
-70
-112
2
163
271
339
411
455
442
395
344
295
255
231
218
209
209
218
230
268
331
407
572
827
1020
1220
1558
1675
1218
553
158
-7
-116
-170
-181
-195
-225
-264
-283
-271
-281
-360
-470
-560
-641
-724
-774
-782
-760
-693
-586
-474
-348
-204
-107
-94
-148
-269
-443
-599
-698
-754
-761
-715
-659
-640
-659
-690
-725
-751
-749
-742
-772
-816
-836
-835
-821
-786
-740
-716
-719
-701
-634
-568
-546
-506
-405
-297
-215
-154
-136
-147
-141
-146
-205
-278
-311
-302
-276
-260
-243
-181
-72
19
44
44
83
130
135
167
301
449
525
604
692
726
831
1066
1276
1508
1782
1661
1097
787
942
1067
1033
1082
1186
1226
1274
1378
1470
1511
1542
1602
1638
1542
1322
1093
903
724
571
473
393
310
237
160
67
-22
-118
-237
-353
-458
-566
-658
-715
-762
-814
-848
-859
-866
-880
-886
-876
-873
-884
-878
-843
-823
-839
-829
-760
-704
-705
-708
-701
-719
-729
-705
-677
-644
-621
-643
-634
-557
-546
-589
-508
-341
-189
-44
-107
-488
-753
-628
-463
-478
-486
-435
-426
-427
-404
-390
-378
-343
-305
-273
-236
-194
-153
-104
-48
2
57
132
205
258
294
309
293
258
210
155
117
103
91
93
136
195
233
272
342
420
481
534
568
566
571
617
659
703
839
1024
1079
974
852
785
779
846
924
977
1129
1363
1339
893
325
-47
-224
-309
-347
-376
-405
-421
-434
-452
-460
-470
-493
-519
-537
-516
-432
-323
-236
-151
-28
118
228
269
278
297
317
313
291
259
212
156
101
55
24
2
-18
-33
-45
-56
-62
-67
-77
-90
-102
-112
-124
-141
-159
-173
-188
-213
-238
-241
-227
-225
-228
-202
-162
-153
-174
-194
-209
-217
-216
-208
-194
-190
-212
-214
-182
-192
-201
-99
27
142
343
361
-54
-439
-376
-201
-207
-221
-175
-171
-182
-179
-190
-184
-147
-127
-127
-113
-83
-55
-32
4
66
136
204
277
344
382
394
378
323
257
191
97
-11
-79
-112
-143
-166
-172
-175
-173
-162
-153
-146
-138
-131
-123
-111
-109
-121
-118
-69
-9
-2
-34
-52
-59
-75
-89
-91
-76
-62
-79
-89
-62
-74
-92
6
137
285
559
619
135
-362
-346
-168
-175
-202
-166
-157
-155
-137
-122
-91
-32
47
133
202
268
355
417
414
405
435
479
518
553
557
518
462
390
288
185
113
56
2
-27
-29
-32
-39
-30
-9
-4
-15
-24
-37
-65
-82
-77
-85
-120
-133
-90
-41
-34
-52
-82
-115
-119
-107
-124
-143
-129
-114
-103
-105
-142
-109
23
126
315
630
559
-23
-402
-292
-166
-196
-194
-158
-148
-135
-125
-132
-137
-132
-118
-107
-100
-81
-57
-40
-8
55
129
191
249
313
361
350
295
239
171
79
3
-42
-89
-126
-132
-141
-157
-150
-128
-85
-8
65
183
424
653
809
1108
1426
1255
614
44
-245
-391
-463
-496
-526
-544
-550
-558
-562
-575
-606
-633
-655
-688
-723
-744
-737
-700
-645
-554
-411
-264
-163
-78
-5
14
-4
-17
-35
-67
-93
-102
-97
-99
-117
-120
-100
-90
-82
-48
-7
66
269
557
762
916
1116
1155
880
598
548
470
147
-222
-397
-401
-372
-381
-400
-397
-389
-400
-411
-410
-419
-447
-465
-455
-446
-468
-484
-439
-361
-302
-255
-194
-123
-50
22
78
113
138
164
189
199
199
208
214
212
225
248
276
337
402
454
554
645
642
723
931
902
531
208
99
38
-7
6
15
3
-1
-8
-10
2
-7
-45
-81
-102
-109
-94
-73
-55
10
138
273
385
493
590
648
657
624
566
497
427
387
388
385
354
327
332
350
345
326
345
390
390
341
296
271
256
244
225
203
192
191
182
148
122
130
109
55
89
204
318
452
455
108
-297
-334
-184
-180
-232
-212
-212
-265
-295
-294
-294
-306
-345
-393
-407
-400
-408
-414
-399
-378
-362
-350
-340
-343
-380
-435
-484
-556
-661
-759
-838
-915
-972
-1004
-1045
-1088
-1112
-1126
-1150
-1176
-1190
-1194
-1200
-1219
-1232
-1214
-1167
-1121
-1104
-1074
-983
-901
-874
-777
-632
-713
-1082
-1487
-1758
-1898
-1942
-1962
-2005
-2021
-1955
-1766
-1426
-1002
-607
-269
29
296
544
758
916
1070
1271
1509
1770
2035
2281
2511
2722
2886
3011
3110
3165
3187
3224
3278
3321
3354
3414
3506
3585
3647
3706
3639
3288
2735
2198
1750
1354
1014
729
466
221
1
-208
-402
-547
-648
-750
-857
-921
-942
-979
-1048
-1123
-1184
-1226
-1259
-1303
-1333
-1321
-1324
-1352
-1338
-1333
-1360
-1279
-1126
-994
-683
-356
-632
-1304
-1525
-1305
-1226
-1283
-1230
-1147
-1135
-1121
-1057
-996
-970
-943
-891
-838
-782
-716
-661
-607
-511
-402
-326
-253
-143
-48
-18
