# session 269
-7
-20
-36
-31
-9
-18
-27
1
-7
-40
30
141
238
457
582
237
-226
-268
-107
-114
-171
-144
-125
-138
-145
-142
-132
-120
-119
-102
-49
1
19
35
72
116
161
218
270
297
302
302
297
263
185
98
41
5
-25
-44
-58
-65
-56
-48
-49
-49
-53
-79
-107
-110
-98
-99
-107
-97
-58
-19
-24
-71
-109
-113
-109
-115
-113
-105
-103
-81
-60
-84
-75
10
128
379
693
590
48
-262
-152
-78
-123
-95
-112
-166
-22
127
-17
-194
-152
-87
-110
-105
-72
-55
-23
20
62
113
148
169
206
230
208
173
137
80
21
-24
-70
-100
-101
-100
-114
-124
-118
-109
-109
-119
-126
-112
-82
-65
-65
-43
10
50
50
25
-4
-17
-15
-17
-17
-15
-31
-32
-8
-21
-24
50
128
264
513
500
57
-278
-210
-114
-163
-177
-154
-177
-189
-155
-124
-124
-131
-108
-63
-29
0
37
69
95
128
168
217
269
289
276
270
261
212
145
90
37
-7
-35
-57
-75
-80
-81
-85
-87
-91
-107
-131
-152
-151
-129
-126
-140
-114
-56
-40
-70
-92
-98
-108
-113
-95
-74
-82
-78
-35
-31
-57
3
108
281
649
853
441
-129
-215
-59
-67
-126
-122
-135
-158
-152
-147
-154
-150
-135
-129
-133
-120
-77
-23
18
44
74
121
170
200
219
237
244
219
154
80
29
-14
-60
-90
-100
-97
-84
-78
-89
-96
-70
-4
112
274
421
541
765
1144
1480
1543
1234
631
49
-244
-332
-371
-369
-359
-387
-402
-393
-412
-446
-469
-502
-532
-540
-574
-663
-725
-689
-618
-572
-494
-352
-199
-76
14
70
100
104
86
73
71
43
-8
-29
-3
29
36
36
48
62
67
76
89
82
64
68
90
95
75
51
44
44
32
17
15
16
7
-15
-41
-46
-35
-55
-90
-61
25
82
70
21
-14
-9
4
4
8
13
29
55
35
16
103
236
421
714
760
287
-207
-238
-89
-146
-241
-109
-43
-372
-618
-323
-8
-90
-169
-62
-27
-42
11
37
29
81
157
197
225
252
269
267
237
185
135
96
58
5
-55
-86
-93
-101
-109
-101
-83
-70
-72
-76
-58
-32
-21
-5
35
92
165
240
300
401
581
726
837
1081
1319
1161
621
97
-203
-335
-376
-378
-401
-438
-439
-423
-436
-462
-474
-486
-493
-489
-512
-546
-539
-513
-505
-476
-392
-286
-176
-57
54
122
143
149
155
132
76
41
44
41
13
-2
13
28
34
36
26
5
-4
4
8
-4
-17
-25
-37
-56
-71
-73
-66
-58
-38
9
54
57
29
7
-2
-8
-8
3
12
15
32
48
37
52
130
253
452
631
480
45
-195
-120
-54
-93
-105
-85
-82
-79
-79
-95
-96
-74
-53
-35
-15
-3
4
20
53
91
125
159
198
228
237
233
214
169
115
67
16
-38
-74
-87
-96
-100
-90
-76
-66
-60
-63
-71
-58
-36
-44
-57
-23
26
33
5
-26
-43
-47
-47
-43
-34
-46
-57
-35
-45
-77
-5
135
261
408
384
7
-329
-277
-142
-176
-195
-138
-134
-160
-144
-115
-94
-65
-36
-19
-5
20
54
87
115
153
217
283
318
331
343
339
297
228
153
78
10
-40
-73
-84
-77
-81
-101
-110
-104
-100
-108
-122
-127
-116
-116
-122
-81
-3
29
-3
-42
-54
-59
-72
-67
-51
-59
-55
-10
-22
-66
16
159
279
472
520
136
-292
-317
-154
-127
-208
-211
-126
-196
-271
-29
-127
-946
-1179
-310
242
26
-39
117
100
118
255
305
321
378
391
365
341
277
181
104
39
-26
-67
-87
-102
-103
-94
-94
-89
-73
-67
-71
-54
-35
-56
-81
-39
35
56
38
26
8
-22
-39
-27
-15
-42
-58
-17
-17
-66
5
143
204
324
449
224
-187
-287
-151
-108
-124
-115
-126
-126
-87
-59
-59
-65
-65
-45
-14
13
36
54
83
148
226
271
306
366
395
355
305
283
232
128
30
-17
-32
-50
-79
-107
-122
-125
-122
-123
-134
-146
-141
-133
-145
-151
-113
-54
-22
-31
-69
-94
-85
-75
-77
-67
-59
-45
-5
-10
-46
3
112
289
619
747
318
-184
-227
-118
-172
-201
-147
-154
-180
-157
-148
-166
-160
-123
-96
-98
-98
-67
-36
-13
33
89
114
130
162
183
166
129
94
64
24
-24
-65
-87
-95
-97
-94
-85
-75
-58
-42
-43
-57
-58
-33
-7
-11
-14
29
80
75
41
14
-11
-28
-26
-11
-10
-25
-7
18
-19
-42
27
123
300
523
416
-49
-318
-224
-139
-171
-166
-149
-171
-164
-119
-105
-116
-103
-75
-61
-49
-24
-6
7
33
79
135
193
238
270
289
286
260
215
156
92
38
-7
-41
-60
-73
-88
-101
-104
-105
-109
-120
-131
-123
-106
-108
-112
-78
-27
-15
-34
-51
-59
-63
-56
-39
-29
-42
-36
-2
-22
-67
-14
111
330
696
813
346
-190
-267
-177
-226
-254
-212
-215
-224
-203
-205
-205
-176
-165
-163
-127
-87
-71
-54
-14
45
96
120
142
186
218
219
207
172
104
39
-8
-48
-61
-52
-60
-74
-64
-43
-33
-35
-40
-17
70
226
385
493
701
1144
1578
1713
1558
1116
429
-140
-338
-354
-377
-388
-385
-405
-428
-432
-448
-493
-524
-543
-603
-675
-686
-680
-707
-709
-639
-537
-421
-285
-151
-37
57
109
108
90
73
47
25
26
35
28
21
40
68
76
71
73
81
84
81
77
78
69
41
21
30
35
13
-5
4
6
-21
-44
-34
-20
-36
-55
-13
76
126
108
78
69
74
78
77
73
71
85
93
51
49
163
287
461
768
798
284
-212
-248
-134
-139
-181
-198
-186
-171
-189
-192
-152
-133
-143
-133
-111
-89
-49
-19
-21
-8
44
93
124
161
182
172
161
143
91
31
-2
-33
-79
-109
-116
-118
-120
-116
-111
-104
-95
-92
-87
-68
-52
-50
-30
17
51
41
2
-26
-31
-38
-44
-27
-27
-49
-35
-27
-66
-48
52
176
338
369
51
-318
-332
-167
-127
-150
-129
-102
-86
-64
-32
-8
-17
-29
-2
21
1
-3
46
97
123
172
246
291
312
348
355
294
224
180
113
26
-30
-59
-87
-103
-107
-119
-132
-127
-121
-136
-152
-139
-105
-85
-69
-4
114
208
284
433
609
730
929
1256
1382
1040
439
-43
-261
-308
-314
-325
-332
-348
-368
-368
-369
-404
-444
-456
-473
-520
-561
-579
-595
-612
-599
-543
-456
-355
-243
-133
-46
20
69
78
54
38
41
34
10
-8
-3
6
-2
-13
-3
5
-5
-15
-12
-8
-8
-4
5
8
-4
-15
-3
20
18
11
44
96
119
106
80
59
51
48
53
65
60
52
72
67
43
109
226
337
506
527
151
-249
-240
-82
-93
-129
-98
-94
-99
-78
-74
-77
-50
-16
3
19
35
54
83
120
164
214
257
301
354
391
391
371
332
263
178
102
38
-13
-46
-70
-89
-94
-97
-114
-134
-140
-136
-129
-129
-143
-137
-89
-36
-25
-49
-79
-95
-96
-95
-88
-80
-89
-79
-40
-51
-68
25
166
339
582
548
45
-347
-252
-110
-181
-216
-162
-150
-157
-153
-159
-152
-137
-140
-129
-91
-69
-53
-14
24
75
148
187
250
411
485
334
172
139
92
-21
-104
-144
-172
-180
-181
-188
-180
-158
-143
-135
-128
-116
-90
-83
-110
-105
-32
31
25
-13
-37
-46
-62
-71
-49
-37
-53
-38
-26
-63
-17
127
211
280
340
125
-256
-341
-174
-112
-148
-143
-134
-142
-125
-85
-53
-52
-59
-32
9
32
50
79
113
146
190
259
341
395
408
404
389
350
279
182
86
28
0
-28
-47
-47
-55
-74
-83
-84
-97
-114
-111
-102
-122
-138
-97
-28
-7
-34
-69
-93
-102
-97
-86
-84
-97
-83
-54
-78
-83
4
87
259
630
733
249
-214
-208
-118
-171
-169
-123
-148
-169
-147
-136
-128
-107
-92
-90
-83
-62
-34
-1
48
97
123
149
191
216
214
210
197
154
88
21
-34
-69
-90
-113
-139
-149
-146
-146
-147
-138
-129
-139
-140
-109
-79
-71
-49
6
57
63
35
12
11
-3
-22
1
23
-4
-7
20
0
-5
61
159
372
607
439
-68
-308
-190
-126
-182
-192
-176
-174
-153
-137
-132
-111
-88
-75
-50
-19
1
31
79
109
124
166
237
292
315
322
322
298
243
170
101
49
18
-6
-36
-57
-58
-54
-67
-91
-107
-114
-121
-121
-112
-115
-111
-75
-40
-51
-85
-99
-99
-102
-102
-84
-68
-68
-53
-36
-58
-57
16
137
399
704
587
54
-256
-166
-88
-137
-146
-133
-156
-156
-136
-145
-144
-109
-123
-189
-173
-70
-14
-10
26
81
115
145
179
204
216
208
177
128
67
4
-46
-78
-97
-110
-114
-110
-105
-96
-75
-60
-74
-89
-71
-46
-50
-49
6
70
79
53
41
36
18
0
10
29
10
-5
17
1
-23
63
208
364
528
412
-79
-397
-262
-113
-176
-211
-167
-167
-176
-146
-118
-98
-73
-55
-43
-29
-6
33
76
110
153
205
242
276
326
350
319
270
224
163
97
46
-6
-51
-63
-60
-70
-84
-87
-89
-104
-130
-141
-124
-110
-126
-145
-119
-53
-4
-14
-43
-45
-46
-70
-73
-46
-38
-41
-18
-14
-25
41
165
308
488
476
80
-305
-296
-148
-143
-176
-170
-172
-167
-152
-149
-140
-119
-110
-101
-79
-55
-23
14
48
94
157
210
251
293
311
286
239
177
96
12
-51
-90
-119
-135
-131
-116
-107
-100
-85
-70
-71
-77
-66
-48
-54
-70
-42
26
61
38
0
-9
-7
-23
-38
-35
-48
-56
-20
-26
-76
-14
108
192
364
472
170
-241
-266
-104
-106
-166
-144
-103
-84
-75
-70
-56
-34
-17
-7
1
9
25
56
94
131
190
261
301
300
288
270
244
212
164
101
54
24
-16
-54
-69
-79
-89
-90
-101
-127
-140
-139
-137
-129
-124
-131
-110
-50
-18
-41
-72
-73
-67
-83
-99
-82
-71
-73
-37
-22
-72
-67
14
136
433
721
498
-64
-293
-177
-132
-174
-166
-171
-209
-207
-171
-161
-182
-186
-155
-134
-136
-111
-50
5
39
78
133
186
219
235
241
230
204
169
118
58
25
23
14
-9
-15
-2
2
-5
-7
-4
-12
-25
-18
12
20
6
31
88
99
62
27
1
-18
-24
-13
-4
-17
-22
-1
-20
-55
-14
72
236
530
594
160
-278
-292
-193
-233
-246
-202
-210
-226
-205
-197
-198
-172
-148
-153
-153
-119
-84
-71
-43
12
61
103
163
225
261
273
270
244
191
126
72
39
16
-5
-22
-32
-47
-66
-78
-80
-88
-95
-91
-94
-109
-104
-60
-11
6
-9
-38
-58
-57
-47
-30
-4
-4
-16
15
26
-5
43
153
297
602
802
440
-121
-241
-104
-103
-144
-134
-145
-147
-134
-150
-159
-136
-119
-107
-88
-74
-57
-28
3
37
78
117
167
228
253
227
191
164
118
50
-18
-69
-99
-107
-103
-108
-119
-109
-89
-93
-102
-99
-103
-101
-79
-82
-101
-60
21
58
39
0
-28
-34
-38
-43
-34
-37
-45
-22
-27
-57
16
162
268
363
320
-27
-342
-287
-126
-122
-144
-120
-114
-108
-100
-103
-80
-45
-45
-49
-20
5
21
64
103
112
150
241
309
328
343
353
330
289
233
148
71
36
13
-11
-25
-37
-46
-44
-47
-62
-79
-100
-112
-102
-98
-113
-105
-58
-24
-33
-67
-96
-102
-100
-100
-93
-92
-96
-72
-64
-100
-73
20
130
404
701
508
-49
-287
-188
-160
-171
-139
-157
-132
-109
-221
-110
311
346
-77
-220
-51
-30
-67
11
46
33
77
124
139
157
158
132
100
54
-13
-69
-101
-124
-139
-141
-141
-146
-146
-139
-125
-113
-110
-109
-98
-76
-59
-46
-12
43
76
63
20
-18
-29
-26
-30
-41
-51
-50
-29
-39
-78
-45
44
147
364
526
281
-147
-255
-133
-101
-122
-101
-94
-101
-90
-75
-61
-42
-25
-11
-1
14
53
96
117
142
199
251
277
303
326
318
286
254
215
155
92
48
12
-25
-50
-60
-69
-82
-92
-101
-113
-129
-137
-123
-104
-112
-117
-75
-19
-12
-44
-67
-67
-61
-64
-59
-41
-39
-32
-6
-24
-53
-1
94
297
670
778
298
-209
-239
-121
-161
-194
-159
-157
-160
-140
-142
-152
-145
-134
-125
-107
-96
-90
-68
-31
14
60
104
149
196
218
201
167
132
83
25
-26
-63
-79
-83
-90
-91
-81
-79
-82
-71
-71
-96
-107
-86
-74
-91
-88
-23
57
74
25
-19
-21
-15
-25
-20
-11
-29
-31
-20
-56
-47
82
205
338
508
375
-103
-345
-194
-103
-172
-174
-135
-135
-123
-99
-84
-73
-89
-109
-74
-31
-31
-19
33
79
124
193
264
321
360
365
336
289
225
147
69
-1
-56
-87
-99
-106
-113
-114
-110
-106
-104
-109
-119
-116
-103
-111
-118
-70
9
40
13
-25
-43
-49
-53
-42
-29
-45
-54
-18
-18
-56
-10
95
216
463
629
317
-178
-273
-113
-98
-149
-121
-108
-126
-113
-104
-114
-99
-74
-88
-107
-90
-63
-42
0
60
95
110
131
153
162
158
138
102
63
22
-18
-39
-43
-47
-49
-35
-19
-17
-13
2
4
-19
-40
-35
-24
-33
-36
6
69
92
64
21
2
2
-12
-23
-8
-7
-23
-14
-22
-54
-18
64
178
401
491
166
-225
-249
-113
-108
-148
-149
-144
-129
-110
-103
-87
-74
-78
-57
-1
43
74
120
160
180
198
226
247
250
239
217
183
134
79
26
-23
-58
-75
-80
-88
-98
-100
-103
-112
-119
-122
-139
-158
-150
-127
-124
-128
-89
-28
-6
-27
-48
-59
-68
-71
