# session 94
-28
-92
-161
-223
-255
-255
-257
-282
-300
-283
-252
-237
-221
-158
-35
100
213
349
540
716
864
1104
1388
1356
809
82
-370
-500
-528
-548
-557
-570
-580
-573
-579
-600
-608
-635
-694
-730
-734
-753
-782
-776
-730
-646
-514
-342
-162
-6
103
159
183
182
144
97
82
81
73
82
98
95
105
148
171
151
143
159
159
125
79
60
87
102
56
39
117
189
176
147
155
152
118
111
140
142
130
146
116
88
224
401
528
829
1034
579
-86
-175
33
20
-38
11
11
-22
-3
13
8
19
32
43
53
58
75
109
138
180
247
296
321
352
360
314
256
196
108
25
-28
-77
-109
-112
-134
-168
-162
-146
-157
-152
-122
-113
-111
-71
-41
-89
-158
-166
-146
-151
-160
-160
-150
-116
-119
-157
-86
43
118
314
537
291
-254
-411
-227
-177
-228
-208
-197
-210
-185
-173
-186
-167
-140
-146
-138
-96
-64
-45
-1
69
135
190
240
273
269
226
150
53
-40
-109
-158
-190
-202
-214
-237
-243
-228
-218
-201
-168
-151
-140
-87
-26
-11
-22
-32
-44
-58
-66
-63
-66
-75
-60
-54
-83
-27
116
217
382
588
397
-129
-337
-169
-91
-133
-107
-83
-102
-91
-69
-71
-62
-39
-27
-22
-7
26
63
88
130
213
289
323
350
375
357
305
251
189
115
50
14
14
15
-16
-44
-34
-15
-6
10
22
19
42
87
95
63
37
20
-2
-3
5
-12
-20
14
11
-36
-3
93
182
328
390
103
-276
-312
-158
-137
-173
-145
-128
-146
-148
-139
-139
-141
-141
-134
-117
-98
-79
-52
-23
6
57
127
174
193
202
183
124
53
-17
-89
-143
-161
-165
-171
-174
-183
-192
-179
-153
-147
-150
-110
-16
80
149
208
296
456
639
745
878
1200
1435
1135
442
-108
-333
-411
-451
-462
-458
-447
-452
-492
-534
-548
-571
-626
-680
-723
-779
-826
-826
-799
-757
-642
-449
-248
-41
190
425
710
1008
1201
1484
2012
2198
1516
463
-217
-443
-456
-421
-429
-460
-453
-442
-467
-501
-531
-564
-602
-631
-619
-546
-448
-355
-245
-112
-5
60
113
152
139
100
92
97
89
95
116
120
107
101
118
141
131
104
106
125
127
117
113
120
136
152
170
277
541
787
850
909
1057
1052
882
771
608
249
-69
-189
-237
-279
-307
-340
-352
-340
-359
-401
-424
-445
-481
-526
-561
-555
-526
-530
-515
-410
-276
-181
-109
-69
-66
-47
-4
14
9
3
2
6
20
43
61
85
160
294
460
676
889
946
851
757
718
777
887
698
123
-319
-358
-319
-374
-397
-387
-405
-420
-433
-475
-537
-595
-633
-657
-695
-727
-713
-675
-627
-539
-420
-312
-208
-105
-39
-30
-36
-16
16
23
4
-6
29
99
141
113
56
33
49
62
57
66
95
102
112
159
160
111
181
311
352
493
690
459
-68
-225
-48
-3
-59
-31
-9
-28
-13
11
6
10
34
46
50
78
124
164
207
273
340
385
419
431
397
329
255
172
83
14
-32
-55
-65
-87
-113
-96
-49
-38
-59
-44
8
26
-1
-7
26
60
91
151
258
383
461
544
781
1070
1045
611
94
-231
-357
-385
-389
-386
-381
-403
-437
-436
-429
-458
-496
-527
-558
-582
-592
-587
-558
-502
-423
-316
-197
-90
-8
36
46
43
26
-15
-61
-84
-87
-90
-93
-87
-73
-65
-77
-93
-69
-23
-10
-17
3
34
48
44
19
-10
-7
5
0
-2
5
17
23
-1
14
121
220
326
491
418
-18
-320
-212
-55
-68
-93
-63
-48
-63
-74
-66
-48
-36
-25
-10
9
35
67
104
153
210
270
338
394
413
403
368
285
173
89
36
-17
-70
-92
-84
-92
-127
-124
-64
-24
-4
93
246
372
533
751
897
1045
1377
1639
1390
714
84
-253
-361
-382
-402
-427
-439
-452
-478
-513
-563
-610
-628
-655
-731
-816
-848
-823
-767
-691
-587
-448
-281
-107
32
103
117
104
86
63
30
9
14
18
2
-5
6
22
39
42
28
30
42
24
-9
-11
11
17
-5
-17
23
90
115
83
43
27
17
14
23
17
24
50
13
3
168
332
436
675
736
231
-287
-268
-104
-140
-163
-111
-118
-142
-121
-96
-84
-80
-90
-79
-43
-19
1
46
101
165
244
307
337
359
363
317
244
175
96
7
-61
-96
-115
-137
-170
-177
-144
-111
-96
-69
-34
0
38
52
12
-44
-80
-104
-106
-93
-100
-95
-68
-107
-144
-33
110
236
470
510
53
-385
-344
-194
-232
-245
-171
-155
-169
-142
-120
-123
-115
-94
-78
-57
-29
-8
21
88
171
230
272
320
355
343
279
189
104
27
-42
-78
-80
-88
-110
-115
-96
-62
-23
-14
-35
-20
34
43
7
-8
-11
-37
-52
-41
-46
-57
-28
-11
-47
-8
119
211
366
574
415
-92
-331
-193
-119
-170
-157
-128
-145
-134
-101
-107
-121
-99
-65
-53
-42
-15
13
48
105
160
203
247
271
258
228
184
115
41
-16
-58
-77
-60
-38
-44
-57
-55
-49
-42
-36
-40
-35
-3
15
-17
-57
-72
-86
-98
-86
-83
-99
-85
-66
-83
-48
54
126
190
207
-10
-312
-332
-159
-98
-119
-102
-91
-103
-103
-105
-113
-103
-80
-67
-65
-51
-16
22
56
102
156
207
252
281
287
271
221
134
41
-29
-76
-104
-120
-141
-164
-172
-166
-164
-174
-180
-159
-109
-68
-67
-93
-122
-153
-171
-146
-108
-107
-91
-42
-55
-59
76
226
361
585
574
96
-285
-176
2
-28
-55
-19
-17
-15
4
-12
-28
-8
1
-7
15
50
58
76
143
233
298
343
393
434
427
361
265
175
101
32
-28
-59
-56
-47
-68
-90
-63
-38
-71
-74
25
113
103
76
105
158
199
236
331
521
690
778
989
1376
1517
1084
349
-205
-418
-442
-440
-461
-494
-512
-505
-519
-575
-613
-622
-657
-720
-773
-813
-849
-875
-887
-839
-709
-560
-430
-295
-164
-78
-29
-8
-26
-65
-79
-68
-73
-100
-98
-59
-39
-58
-61
-27
0
-6
-14
23
108
172
158
104
78
73
61
67
77
70
91
105
63
110
262
340
507
845
763
125
-256
-114
-4
-71
-72
-40
-58
-63
-51
-43
-26
-16
-17
-9
9
37
77
115
159
221
292
363
416
426
398
340
239
137
75
11
-54
-72
-70
-92
-111
-98
-63
-35
-33
-12
65
127
133
150
200
247
331
487
645
789
1056
1444
1576
1130
364
-196
-403
-459
-494
-502
-495
-504
-525
-530
-538
-571
-604
-629
-672
-715
-739
-751
-741
-706
-646
-525
-358
-220
-110
-6
57
69
60
42
21
2
-8
2
11
-3
-16
-10
-2
5
8
-15
-53
-46
-5
13
23
62
94
85
59
33
23
39
44
20
33
72
25
-36
37
133
201
450
693
433
-105
-276
-118
-50
-82
-65
-41
-46
-37
-10
5
8
17
36
61
80
90
115
167
214
251
299
339
349
347
337
304
241
158
80
28
-7
-30
-40
-66
-95
-73
-32
-37
-49
-2
85
160
202
241
343
480
572
677
848
887
631
234
-86
-270
-342
-357
-364
-374
-386
-394
-403
-433
-477
-510
-548
-602
-647
-671
-681
-676
-652
-581
-441
-282
-148
-28
75
128
131
105
69
32
0
-19
-23
-33
-54
-60
-49
-55
-79
-87
-83
-93
-118
-122
-91
-69
-80
-69
-5
51
36
-18
-43
-41
-44
-37
-35
-57
-43
-17
-49
-10
144
254
478
872
780
35
-442
-284
-129
-205
-219
-174
-190
-206
-205
-220
-216
-186
-169
-171
-162
-118
-78
-71
14
154
146
228
788
1376
1368
1054
887
733
504
352
249
135
81
62
-6
-71
-49
-8
-35
-57
19
127
185
231
288
369
530
696
796
996
1250
1111
513
-33
-273
-395
-500
-516
-472
-470
-506
-485
-409
-389
-451
-518
-564
-618
-680
-725
-746
-758
-756
-706
-586
-420
-255
-119
-17
43
57
50
42
20
-17
-34
-22
-13
-16
-6
16
28
33
37
23
5
20
42
29
21
77
169
225
219
180
147
131
125
123
108
104
148
146
68
118
280
373
612
979
791
59
-309
-151
-55
-113
-105
-84
-102
-104
-99
-98
-93
-94
-84
-58
-54
-62
-35
13
51
94
153
196
207
206
195
155
78
-15
-99
-164
-220
-268
-305
-343
-376
-371
-349
-354
-368
-347
-299
-266
-279
-338
-392
-410
-414
-416
-422
-448
-460
-449
-445
-394
-314
-253
15
436
339
-352
-796
-722
-634
-691
-703
-676
-672
-666
-663
-660
-630
-585
-558
-556
-551
-512
-451
-389
-325
-251
-116
137
471
831
1317
2066
2933
3484
3468
3095
2691
2335
1991
1675
1404
1166
969
804
647
519
443
381
283
163
62
-18
-97
-162
-198
-239
-278
-288
-330
-385
-328
-219
-144
-34
-56
-417
-765
-740
-596
-583
-581
-550
-560
-563
-531
-512
-505
-485
-469
-448
-403
-365
-360
-342
-279
-209
-152
-93
-43
-19
-22
-53
-108
-175
-249
-309
-325
-316
-320
-331
-325
-303
-268
-231
-223
-231
-208
-158
-143
-178
-213
-222
-227
-229
-216
-207
-191
-150
-148
-176
-103
27
115
266
372
106
-306
-369
-201
-152
-167
-135
-123
-126
-103
-91
-96
-82
-58
-42
-37
-28
5
56
101
153
209
258
342
482
591
594
528
454
381
298
210
143
104
74
47
32
31
37
41
40
45
63
80
81
60
20
-24
-46
-34
-25
-48
-38
6
-28
-48
105
243
277
428
477
66
-351
-296
-124
-140
-139
-73
-75
-105
-102
-86
-61
-40
-36
-20
2
12
44
112
173
214
267
345
419
450
427
356
247
141
69
-3
-85
-126
-129
-139
-151
-145
-134
-139
-160
-159
-89
11
60
50
37
77
164
248
360
538
698
852
1151
1429
1250
604
-27
-345
-452
-496
-497
-483
-499
-527
-524
-506
-511
-542
-582
-624
-669
-711
-741
-766
-773
-734
-658
-565
-435
-272
-131
-31
40
67
47
16
3
-3
-3
10
19
19
26
42
48
46
49
60
69
73
86
132
185
190
162
149
131
92
80
77
46
61
115
85
63
171
279
453
829
909
325
-241
-235
-83
-117
-139
-103
-118
-138
-128
-115
-82
-46
-44
-50
-37
-16
9
42
82
132
183
221
252
271
262
235
197
132
62
10
-29
-59
-75
-82
-80
-76
-70
-42
-18
-19
13
97
160
181
199
244
352
510
636
768
1000
1191
1045
557
32
-294
-428
-464
-467
-477
-498
-516
-533
-558
-589
-611
-616
-629
-672
-724
-751
-740
-703
-645
-547
-403
-241
-97
7
68
103
114
87
44
16
4
11
41
70
80
80
86
96
94
77
79
107
129
143
152
152
169
209
217
182
154
139
119
118
131
118
102
118
115
85
129
223
304
447
527
263
-140
-222
-63
6
-14
-17
-22
-26
-18
-22
-32
-29
-15
7
22
24
33
52
74
122
192
232
245
279
307
274
216
172
106
16
-47
-80
-113
-146
-164
-166
-169
-174
-161
-140
-123
-46
94
201
304
487
654
794
1084
1369
1195
553
-94
-460
-608
-656
-676
-711
-752
-774
-793
-820
-843
-863
-879
-870
-860
-894
-948
-970
-951
-897
-794
-645
-476
-253
65
364
494
518
539
501
402
358
358
338
329
337
332
352
408
430
401
358
311
271
236
192
163
160
151
160
214
253
219
152
105
74
47
25
-10
-30
9
17
-54
-10
170
267
382
587
426
-138
-405
-230
-133
-197
-176
-138
-179
-190
-158
-159
-166
-143
-123
-112
-81
-41
-3
48
116
189
267
348
393
383
340
284
208
114
13
-73
-118
-136
-159
-186
-200
-202
-182
-152
-143
-136
-80
1
46
46
55
107
178
270
416
568
669
856
1253
1584
1400
718
37
-302
-400
-439
-447
-428
-426
-438
-441
-441
-451
-482
-529
-560
-572
-605
-659
-701
-710
-666
-571
-460
-343
-218
-101
-2
47
33
23
50
44
2
-8
1
-9
-11
8
11
-20
-60
-65
-37
-34
-66
-70
-8
72
99
68
31
21
21
23
32
31
38
59
35
27
140
243
322
576
704
276
-240
-253
-73
-76
-107
-81
-92
-96
-76
-90
-101
-75
-63
-64
-49
-30
-12
23
66
118
180
224
255
291
294
248
193
127
29
-58
-109
-146
-164
-161
-158
-146
-115
-93
-71
-26
14
52
136
228
286
389
559
686
804
1036
1245
1135
667
117
-251
-391
-417
-428
-431
-413
-392
-380
-386
-404
-398
-376
-393
-442
-461
-439
-419
-395
-316
-185
-53
72
196
292
350
368
353
329
314
306
305
290
254
244
230
105
-93
-215
-242
-241
-233
-225
-230
-219
-178
-152
-154
-132
-71
-38
-64
-93
-100
-109
-106
-80
-85
-101
-73
-74
-123
-77
33
103
270
442
209
-268
-409
-253
-201
-234
-204
-184
-205
-201
-187
-192
-179
-153
-158
-161
-112
-61
-39
2
69
121
178
254
307
323
324
291
215
128
52
-10
-47
-62
-76
-90
-98
-103
-89
-52
-15
36
138
272
394
536
714
858
998
1259
1499
1316
666
14
-289
-359
-411
-461
-453
-417
-425
-467
-492
-517
-573
-627
-648
-662
-707
-770
-802
-767
-665
-525
-363
-190
-39
73
152
194
190
165
131
98
92
92
75
91
143
159
143
154
188
207
196
175
165
159
152
160
147
117
155
237
251
211
176
137
107
115
122
101
88
100
84
57
141
281
383
647
971
731
14
-317
-145
-44
-117
-139
-113
-106
-118
-131
-112
-90
-103
-104
-87
-81
-59
-35
-39
3
89
127
144
190
192
135
92
44
-42
-109
-149
-215
