# session 157
-168
-159
-151
-163
-198
-258
-346
-451
-545
-608
-630
-628
-631
-630
-601
-555
-507
-441
-363
-288
-133
167
458
654
1016
1538
1553
729
-231
-643
-679
-716
-768
-771
-743
-685
-617
-579
-570
-562
-535
-507
-496
-474
-421
-361
-274
-118
74
247
403
536
607
622
607
560
520
562
675
795
924
1049
1082
980
802
610
428
288
218
196
190
189
188
180
173
176
169
148
139
154
165
151
128
121
124
113
104
125
155
158
149
153
144
115
124
203
291
333
335
308
286
305
313
275
251
270
305
304
236
227
354
471
638
963
968
383
-81
13
165
96
55
89
79
48
24
-33
-157
-344
-515
-606
-631
-569
-380
-164
-29
113
340
480
371
120
-86
-227
-372
-539
-700
-840
-968
-1093
-1196
-1256
-1292
-1340
-1386
-1411
-1435
-1462
-1468
-1440
-1380
-1283
-1152
-1020
-917
-813
-683
-596
-599
-621
-608
-605
-615
-574
-496
-461
-463
-436
-370
-264
-125
-68
-146
-205
-286
-608
-921
-793
-426
-248
-195
-79
37
111
206
319
391
426
474
541
595
643
712
793
873
961
1059
1157
1245
1300
1318
1323
1311
1262
1197
1145
1103
1067
1053
1052
1053
1064
1087
1096
1098
1105
1087
1029
979
957
900
781
651
553
491
454
414
362
342
365
389
417
454
447
407
388
351
298
305
360
512
850
1127
1090
948
860
707
626
814
1056
1144
1175
1210
1224
1240
1165
860
440
109
-133
-348
-516
-645
-768
-867
-928
-989
-1069
-1152
-1235
-1339
-1470
-1610
-1737
-1841
-1917
-1977
-2032
-2084
-2125
-2156
-2183
-2199
-2203
-2214
-2242
-2257
-2244
-2227
-2228
-2238
-2254
-2226
-2048
-1690
-1258
-933
-900
-1149
-1374
-1329
-1116
-875
-589
-343
-234
-72
238
496
688
863
767
442
378
597
716
741
834
909
928
972
1020
1040
1067
1096
1093
1085
1106
1128
1140
1180
1242
1279
1307
1361
1394
1374
1346
1296
1178
1042
947
854
749
676
630
586
562
553
510
443
422
425
398
394
446
516
674
935
1121
1303
1719
2037
1681
785
-21
-440
-592
-661
-727
-778
-820
-867
-888
-883
-907
-963
-1014
-1057
-1095
-1134
-1156
-1141
-1118
-1080
-980
-840
-680
-527
-574
-843
-958
-760
-560
-493
-398
-265
-178
-97
2
84
151
215
260
291
327
363
384
380
351
312
280
262
257
259
257
244
235
244
255
247
228
210
177
114
59
63
110
146
177
237
306
329
309
293
307
340
388
460
520
538
545
529
453
412
416
309
241
420
416
-84
-482
-409
-363
-604
-806
-839
-830
-818
-802
-774
-689
-581
-514
-473
-424
-360
-269
-140
-2
90
129
208
387
549
565
485
418
379
329
249
145
56
42
122
261
403
511
592
698
832
915
922
901
873
839
792
693
594
633
806
956
967
836
653
490
313
97
-92
-231
-368
-495
-592
-708
-809
-828
-827
-755
-507
-444
-914
-1418
-1413
-1209
-1196
-1245
-1246
-1291
-1360
-1383
-1390
-1420
-1447
-1399
-1273
-1156
-1071
-985
-933
-895
-744
-502
-311
-188
-90
-7
74
73
-86
-321
-596
-860
-769
-274
14
-176
-352
-280
-197
-152
-72
-20
26
144
261
309
319
306
294
344
456
551
561
518
504
531
558
586
653
760
837
849
848
818
737
708
738
802
1047
1299
1083
631
579
803
837
737
697
673
643
635
627
595
535
466
437
441
442
467
529
590
663
760
814
798
752
688
602
521
442
346
246
163
103
65
34
-11
-57
-106
-188
-282
-353
-449
-566
-566
-422
-289
-228
-173
-120
-97
-57
21
67
31
-53
-142
-224
-295
-363
-456
-578
-714
-838
-902
-945
-1014
-976
-750
-459
-117
149
-85
-699
-1014
-982
-1043
-1176
-1180
-1144
-1123
-1067
-1024
-1020
-1014
-990
-955
-922
-890
-838
-779
-729
-642
-493
-331
-200
-98
-7
84
154
184
190
196
211
254
320
388
477
582
647
692
772
834
846
914
1061
1165
1262
1477
1682
1803
2021
2185
1858
1155
570
211
-33
-133
-135
-148
-146
-107
-94
-101
-93
-98
-126
-142
-154
-185
-203
-189
-157
-83
59
228
372
502
615
676
693
702
701
702
746
816
860
879
882
840
739
605
469
329
160
-33
-224
-412
-589
-729
-846
-960
-1053
-1122
-1198
-1274
-1319
-1324
-1302
-1261
-1188
-1080
-995
-971
-947
-875
-798
-744
-709
-711
-734
-743
-760
-805
-836
-815
-735
-597
-462
-406
-385
-325
-261
-234
-202
-143
-88
-49
-7
33
54
84
116
91
73
177
319
451
648
689
351
11
46
204
211
182
190
181
172
186
190
189
195
193
186
191
206
221
239
267
303
344
390
436
470
492
521
529
468
363
257
145
61
62
109
140
180
239
285
335
402
447
481
536
580
592
606
621
654
762
891
997
1204
1485
1646
1771
1960
1877
1294
526
-73
-450
-669
-820
-952
-1036
-1075
-1096
-1082
-1068
-1109
-1157
-1164
-1191
-1244
-1241
-1187
-1163
-1132
-975
-691
-390
-126
111
308
426
471
488
510
542
569
573
572
599
638
645
622
603
613
648
662
606
519
466
423
350
283
255
241
228
205
157
99
33
-18
21
105
71
-28
-5
76
70
30
-45
-281
-597
-769
-784
-814
-923
-1025
-1062
-1078
-1126
-1188
-1223
-1231
-1217
-1179
-1197
-1286
-1177
-768
-365
-26
363
364
-234
-661
-493
-301
-352
-335
-227
-155
-37
64
-56
-353
-661
-905
-1014
-995
-1008
-1088
-1076
-953
-850
-793
-716
-600
-485
-404
-338
-224
-64
72
152
218
303
381
450
544
624
604
558
648
864
1074
1241
1404
1614
1890
2150
2386
2705
2924
2644
1937
1322
1062
1012
982
930
919
948
934
896
895
847
678
470
314
195
75
-41
-121
-170
-205
-175
-40
118
224
294
336
352
383
419
429
448
502
545
556
531
454
359
300
248
192
200
256
234
86
-109
-274
-430
-630
-832
-950
-1010
-1085
-1163
-1227
-1329
-1476
-1605
-1682
-1723
-1728
-1695
-1633
-1546
-1449
-1378
-1332
-1273
-1196
-1117
-1030
-927
-824
-762
-778
-854
-948
-1042
-1119
-1158
-1174
-1207
-1272
-1333
-1360
-1408
-1458
-1351
-1087
-760
-331
-2
-142
-492
-489
-232
-82
20
169
260
300
371
464
557
631
663
721
852
956
975
983
1000
978
938
946
1000
1059
1083
1065
1030
992
936
857
767
676
602
553
549
628
774
898
969
1040
1131
1209
1254
1280
1317
1363
1392
1424
1488
1541
1539
1507
1493
1517
1568
1601
1620
1685
1794
1923
2080
2165
2049
1849
1740
1665
1616
1687
1632
1102
275
-386
-745
-957
-1136
-1295
-1419
-1509
-1596
-1694
-1777
-1804
-1784
-1774
-1798
-1808
-1789
-1783
-1796
-1788
-1748
-1683
-1568
-1395
-1223
-1124
-1070
-1006
-961
-979
-1029
-1079
-1141
-1216
-1257
-1232
-1179
-1153
-1127
-1066
-1006
-974
-942
-910
-891
-867
-841
-838
-840
-828
-824
-845
-857
-821
-749
-679
-614
-551
-496
-444
-403
-393
-385
-350
-303
-221
-132
-139
-132
46
214
307
548
688
369
82
280
534
534
537
604
625
677
775
822
841
886
928
954
980
999
999
1000
1038
1076
1067
1040
1022
980
902
824
757
711
705
701
654
604
601
621
627
618
598
568
550
552
545
512
466
426
386
346
355
414
421
348
301
305
282
243
218
170
107
70
44
22
7
-21
-39
-64
-154
-182
-63
35
164
434
383
-204
-631
-538
-410
-443
-414
-353
-360
-357
-323
-294
-247
-197
-179
-159
-110
-64
-34
2
41
81
150
247
330
384
391
322
204
78
-78
-251
-379
-464
-518
-498
-436
-440
-519
-594
-625
-630
-650
-697
-736
-746
-732
-692
-649
-626
-554
-378
-213
-150
-126
-108
-109
-77
17
116
198
252
237
169
90
56
162
308
322
399
610
464
-88
-359
-215
-165
-285
-332
-327
-353
-378
-383
-351
-297
-262
-225
-166
-130
-123
-107
-97
-123
-123
-33
86
131
109
94
99
83
34
-38
-120
-203
-276
-339
-383
-388
-361
-313
-250
-200
-196
-217
-221
-203
-169
-109
-38
10
44
92
146
165
132
65
-5
-58
-101
-144
-170
-152
-131
-184
-251
-227
-176
-113
73
313
548
924
1209
979
560
520
701
770
791
815
804
813
831
813
816
849
856
851
864
862
829
780
731
696
665
624
578
530
473
412
345
254
145
62
29
24
22
10
-21
-71
-143
-214
-244
-245
-262
-259
-215
-178
-77
137
268
314
547
745
387
-323
-770
-894
-967
-1042
-1078
-1093
-1093
-1078
-1049
-1024
-1044
-1096
-1126
-1137
-1155
-1165
-1155
-1132
-1083
-991
-865
-726
-580
-451
-373
-344
-351
-390
-433
-447
-448
-456
-447
-419
-404
-389
-343
-286
-244
-196
-138
-97
-79
-65
-43
-32
-47
-48
-3
46
71
102
137
158
195
271
367
456
526
614
744
835
837
836
879
909
903
873
823
793
799
800
777
762
782
833
873
845
753
686
705
756
761
742
741
748
789
838
812
815
964
1134
1297
1462
1275
682
310
389
480
431
412
409
378
359
332
283
218
115
2
-88
-187
-274
-314
-387
-539
-678
-749
-802
-868
-931
-1000
-1097
-1207
-1307
-1403
-1500
-1561
-1559
-1512
-1449
-1390
-1324
-1229
-1120
-1020
-915
-809
-758
-751
-722
-686
-661
-589
-480
-433
-439
-404
-347
-348
-388
-381
-322
-282
-231
-59
139
201
343
800
1172
915
215
-348
-589
-652
-642
-614
-610
-605
-585
-578
-578
-553
-517
-481
-428
-377
-345
-294
-201
-104
-17
104
272
446
608
776
931
1028
1074
1099
1086
1043
1027
1048
1065
1082
1109
1132
1141
1144
1164
1204
1245
1280
1298
1281
1268
1293
1284
1185
1050
896
678
441
257
82
-114
-243
-269
-286
-339
-370
-355
-336
-326
-314
-287
-237
-198
-182
-148
-115
-103
-52
23
150
447
649
358
-107
-190
-28
31
35
65
51
13
1
-30
-98
-148
-175
-218
-264
-283
-299
-323
-316
-277
-246
-214
-157
-103
-80
-83
-114
-189
-276
-294
-232
-164
-156
-211
-289
-363
-434
-494
-554
-658
-771
-798
-756
-728
-731
-744
-763
-776
-781
-782
-774
-751
-717
-684
-683
-727
-769
-772
-756
-734
-696
-659
-649
-634
-598
-596
-593
-482
-313
-144
103
230
-43
-369
-311
-107
-50
-9
78
111
119
147
153
142
147
163
175
183
205
261
323
367
415
481
544
595
638
668
687
680
627
552
493
447
407
374
344
323
316
291
257
264
302
332
363
413
467
524
582
626
687
789
883
934
1008
1141
1242
1237
1181
1142
1114
1076
1056
1090
1149
1173
1164
1125
1022
910
836
740
705
845
844
440
43
18
93
26
-65
-116
-191
-283
-361
-424
-489
-574
-663
-719
-750
-780
-798
-791
-774
-756
-723
-676
-629
-590
-567
-574
-605
-649
-705
-773
-835
-872
-887
-896
-904
-898
-884
-884
-897
-895
-876
-854
-831
-808
-801
-806
-794
-759
-713
-673
-653
-622
-551
-494
-471
-416
-349
-340
-332
-274
-246
-268
-265
-234
-194
-159
-170
-164
-54
79
220
366
231
-207
-426
-284
-191
-233
-210
-150
-112
-65
-67
-133
-160
-136
-130
-138
-135
-132
-128
-108
-67
2
84
148
207
305
421
476
440
349
245
172
148
137
132
164
203
215
266
359
459
690
1066
1341
1619
2215
2661
2200
1167
493
346
323
276
262
267
255
227
178
112
55
20
14
55
120
155
174
238
358
505
667
831
994
1155
1279
1319
1291
1248
1226
1221
1203
1167
1137
1109
1066
1014
904
706
513
374
228
100
65
52
-28
-120
-173
-235
-318
-388
-451
-537
-636
-733
-832
-929
-1026
-1127
-1215
-1283
-1348
-1404
-1436
-1460
-1495
-1517
-1506
-1475
-1445
-1416
-1383
-1357
-1348
-1338
-1313
-1307
-1329
-1324
-1269
-1206
-1158
-1113
-1059
-976
-864
-761
-668
-581
-521
-448
-347
-307
-295
-158
48
238
463
514
165
-182
-103
107
137
153
248
302
323
363
378
385
424
448
424
394
379
366
370
404
448
476
493
512
524
511
488
474
456
418
379
364
357
339
315
309
326
359
406
460
497
520
552
583
601
622
636
615
588
608
645
638
624
659
700
691
645
590
525
463
418
393
379
361
337
327
306
273
303
383
470
658
848
697
319
209
371
458
448
476
492
414
240
20
-157
-246
-316
-409
-441
-376
-331
-366
-389
-351
-301
-262
-231
-215
-216
-235
-285
-359
-449
-550
-640
-702
-744
-768
-780
-798
-821
-832
-844
-870
-900
-926
-946
-958
-975
-1002
-1004
-965
-925
-904
-847
-726
-600
-520
-462
-389
-317
-262
-197
-120
-69
-57
-43
9
35
-7
15
156
266
382
547
413
-68
-320
-185
-101
-178
-211
-201
-212
-200
-171
-161
-154
-127
-94
-88
-105
-90
-40
-6
20
85
167
226
291
372
424
457
505
529
528
572
637
665
689
713
681
622
594
571
532
511
523
553
589
627
659
684
723
770
774
755
803
892
908
850
816
819
798
743
707
714
714
687
690
702
629
575
684
811
906
1100
1079
538
14
0
108
-35
-251
-412
-580
-745
-892
-1037
-1166
-1267
-1343
-1388
-1416
-1446
-1470
-1476
-1459
-1425
-1382
-1334
-1284
-1240
-1214
-1218
-1239
-1244
-1222
-1197
-1169
-1108
-1025
-952
-878
-764
-619
-466
-307
-136
42
206
401
694
1004
1284
1647
1944
1730
1056
514
359
356
332
302
270
229
208
214
221
222
228
220
177
128
115
124
142
185
265
364
466
562
643
696
703
671
626
578
525
481
435
356
243
143
77
27
-15
-48
-81
-114
-148
-196
-237
-239
-236
-251
-248
-243
-293
-373
-436
-498
-577
-645
-690
-729
-781
-832
-851
-822
-770
-727
-675
-581
-462
-351
-266
-214
-170
-101
-24
18
44
110
206
263
277
293
313
328
353
382
407
427
437
470
517
496
437
421
445
564
727
570
76
-206
-99
21
26
61
106
105
115
144
153
