# session 117
62
112
136
145
149
134
109
97
88
66
61
91
116
92
57
66
96
90
62
59
78
85
77
76
77
64
61
78
83
96
157
235
300
374
472
599
746
830
825
801
698
451
229
105
-106
-364
-424
-352
-350
-376
-370
-401
-469
-515
-538
-538
-540
-576
-595
-554
-518
-522
-512
-460
-378
-286
-210
-136
-32
48
63
78
125
135
100
92
118
112
79
85
116
124
146
208
272
360
460
486
545
747
801
465
38
-174
-248
-295
-318
-334
-339
-331
-342
-369
-385
-408
-442
-469
-489
-507
-517
-507
-452
-345
-222
-100
18
116
194
237
223
199
212
222
197
167
138
103
90
98
85
55
38
21
-7
-7
0
-30
-15
82
151
188
227
94
-190
-279
-124
-16
-18
-6
11
7
15
22
11
13
31
48
64
89
124
172
226
285
350
401
425
428
408
355
284
213
143
78
38
22
7
-10
-9
5
5
-1
20
61
78
54
9
-21
-30
-35
-42
-56
-68
-56
-53
-97
-96
-9
88
239
377
173
-270
-416
-253
-180
-213
-187
-174
-211
-216
-195
-187
-174
-160
-157
-141
-98
-54
-22
19
81
146
200
243
246
203
153
100
12
-87
-152
-185
-204
-211
-203
-184
-177
-187
-175
-149
-144
-128
-65
-8
-6
-37
-63
-79
-100
-105
-72
-53
-59
-47
-55
-48
92
243
270
314
284
-64
-382
-276
-72
-84
-118
-81
-85
-95
-62
-66
-104
-91
-35
-20
-39
-3
81
126
159
262
365
385
378
386
355
259
141
56
19
-8
-46
-67
-71
-74
-72
-74
-85
-73
-53
-66
-55
38
102
41
-45
-60
-51
-44
-34
-62
-84
-24
1
-58
11
199
295
371
407
111
-300
-328
-136
-98
-123
-82
-55
-55
-55
-63
-54
-28
-10
12
32
39
69
129
187
248
320
362
376
390
360
254
139
71
10
-63
-112
-127
-135
-138
-142
-165
-169
-128
-104
-113
-82
-12
22
3
-37
-73
-102
-112
-100
-107
-135
-119
-108
-155
-105
38
100
284
658
596
-30
-406
-280
-193
-265
-254
-204
-206
-197
-173
-164
-155
-145
-134
-106
-80
-63
-26
31
82
136
194
239
259
251
218
169
96
20
-19
-44
-82
-91
-61
-55
-83
-93
-72
-49
-56
-64
-14
56
52
-5
-36
-49
-71
-73
-83
-107
-82
-77
-146
-100
53
112
282
626
534
-63
-385
-263
-199
-249
-220
-191
-207
-188
-157
-148
-134
-121
-116
-91
-48
-12
20
62
118
188
254
302
334
340
304
240
166
94
42
20
14
15
9
-21
-45
-27
6
11
3
22
61
80
70
44
5
-26
-21
-12
-39
-48
2
7
-61
-49
59
158
330
511
334
-113
-304
-202
-151
-173
-149
-132
-143
-135
-117
-105
-95
-90
-73
-33
-4
5
39
99
148
192
243
277
284
278
258
218
165
109
64
41
34
30
15
-9
-20
-8
12
12
-6
0
29
37
14
-12
-30
-26
25
91
157
266
383
448
592
904
1087
819
248
-232
-442
-466
-450
-463
-482
-488
-497
-512
-527
-551
-588
-627
-657
-686
-726
-763
-773
-748
-678
-570
-442
-297
-141
-16
60
107
114
80
48
52
56
38
32
57
73
65
73
106
116
97
102
149
199
220
203
156
111
92
95
101
76
50
95
135
87
116
271
402
608
828
565
-52
-260
-51
37
-9
13
35
20
10
-10
-10
33
56
54
71
94
103
124
181
259
334
394
430
438
424
378
286
171
81
12
-60
-113
-119
-127
-168
-194
-194
-195
-154
-65
8
76
154
242
445
715
847
981
1192
955
182
-354
-369
-337
-407
-409
-390
-409
-412
-412
-436
-459
-483
-516
-547
-577
-600
-603
-596
-574
-502
-395
-296
-203
-115
-60
-32
-17
-35
-59
-43
-29
-48
-51
-22
-6
-7
-3
8
17
24
26
19
-3
-17
-1
15
-2
-15
13
69
105
96
67
46
25
7
7
6
12
30
-4
-30
65
156
221
443
536
119
-336
-303
-117
-132
-168
-130
-123
-123
-86
-67
-71
-56
-31
-14
2
24
58
108
160
203
251
314
361
376
377
358
292
216
174
125
48
9
17
7
-24
-30
-20
-12
-1
12
29
63
95
85
49
23
6
-7
-2
2
17
75
122
145
251
423
542
637
628
307
-115
-233
-152
-155
-191
-177
-171
-170
-151
-160
-181
-175
-177
-195
-199
-201
-210
-198
-175
-157
-119
-64
-26
2
26
12
-30
-57
-73
-103
-125
-122
-119
-125
-121
-113
-101
-69
-36
-26
-3
42
52
15
-24
-47
-67
-69
-49
-53
-78
-66
-51
-66
-13
106
225
417
521
191
-304
-389
-196
-151
-205
-198
-182
-178
-167
-163
-160
-150
-141
-122
-91
-57
-13
33
81
150
229
305
385
419
378
322
262
147
27
-31
-62
-95
-104
-107
-137
-156
-127
-90
-94
-95
-41
20
29
12
-7
-40
-71
-68
-49
-55
-53
-13
-22
-51
62
228
306
437
493
143
-277
-275
-113
-119
-129
-66
-59
-96
-102
-76
-47
-43
-45
-18
8
20
57
120
180
243
315
372
394
391
369
309
194
67
-1
-26
-76
-136
-147
-132
-143
-151
-119
-97
-116
-104
-26
39
35
1
-28
-63
-92
-88
-80
-91
-77
-67
-115
-89
69
184
306
532
466
-41
-367
-240
-119
-186
-203
-144
-131
-154
-175
-189
-182
-174
-180
-170
-138
-118
-97
-36
50
124
183
233
262
256
217
155
84
6
-64
-103
-117
-121
-119
-125
-133
-107
-63
-50
-49
-9
63
128
156
162
194
271
396
554
670
758
997
1346
1378
883
206
-242
-418
-463
-465
-465
-472
-471
-475
-501
-527
-537
-552
-585
-625
-660
-686
-706
-692
-610
-497
-391
-261
-111
6
99
186
207
144
80
68
81
84
66
46
53
74
76
56
29
11
24
55
57
32
40
95
136
119
84
73
71
67
69
59
45
62
60
35
93
189
248
386
486
224
-185
-259
-107
-67
-88
-56
-35
-44
-38
-20
-10
-17
-25
6
49
50
44
84
133
168
225
288
319
335
342
315
266
219
164
97
42
14
11
14
5
3
32
59
49
36
73
126
124
69
23
7
-6
-23
-44
-70
-71
-65
-104
-123
-56
19
117
281
242
-123
-379
-293
-173
-182
-194
-194
-208
-201
-196
-211
-208
-194
-193
-182
-148
-117
-93
-52
12
81
148
204
233
232
204
149
72
-7
-65
-102
-128
-145
-155
-173
-190
-180
-158
-156
-161
-136
-77
-31
-46
-100
-131
-135
-138
-138
-148
-153
-118
-118
-169
-90
87
167
294
465
228
-295
-423
-196
-117
-165
-150
-141
-135
-78
-51
-85
-94
-59
-23
-2
10
29
82
170
248
294
342
411
454
434
372
281
170
75
17
-21
-42
-42
-45
-65
-74
-53
-35
-35
-9
55
116
145
147
155
212
292
362
482
663
794
932
1254
1548
1356
693
52
-273
-377
-403
-394
-393
-416
-427
-432
-462
-495
-518
-557
-613
-662
-706
-748
-777
-786
-757
-673
-542
-391
-244
-115
8
105
118
70
57
73
45
9
26
57
54
36
15
3
14
21
4
1
46
105
142
146
105
50
33
46
50
30
13
39
46
-10
24
162
231
406
758
697
92
-278
-170
-99
-152
-108
-55
-70
-59
-46
-78
-92
-73
-74
-87
-71
-39
-16
22
90
158
209
264
313
323
299
256
191
121
64
9
-26
-23
-20
-37
-35
-16
-12
-17
-18
-8
32
88
120
130
148
211
332
465
589
756
965
1055
825
314
-172
-413
-475
-497
-509
-505
-504
-516
-527
-523
-525
-561
-608
-628
-631
-651
-679
-671
-612
-527
-417
-268
-117
-9
66
104
103
105
115
78
33
44
54
23
18
33
22
30
58
43
12
35
80
86
70
89
144
170
150
129
119
109
106
106
83
62
78
71
36
83
189
251
330
359
116
-209
-234
-69
-14
-32
-14
1
6
15
13
13
30
35
32
53
80
96
121
159
207
267
314
335
347
344
313
268
217
151
84
30
-9
-34
-47
-63
-80
-63
-18
2
25
124
258
380
550
731
857
1058
1342
1346
870
223
-230
-428
-486
-509
-538
-554
-552
-563
-585
-601
-625
-663
-700
-739
-782
-803
-801
-782
-720
-603
-463
-329
-205
-85
7
27
-13
-35
-32
-46
-63
-61
-74
-93
-69
-30
-40
-67
-49
-16
-17
-33
-38
-40
-40
-30
-28
-38
-28
29
101
122
85
49
45
43
32
24
31
71
84
20
44
227
352
459
686
620
75
-278
-132
-3
-72
-60
3
-41
-79
-24
7
-23
-22
15
26
39
74
98
132
211
299
377
437
440
411
391
340
234
131
65
-1
-80
-119
-104
-102
-135
-136
-92
-54
-28
38
161
292
386
490
643
784
935
1209
1439
1260
684
101
-249
-403
-450
-451
-457
-475
-483
-491
-518
-550
-579
-631
-687
-700
-719
-788
-820
-777
-731
-664
-502
-300
-157
-60
28
88
90
53
23
14
4
-2
4
2
-7
4
23
24
15
17
23
7
-26
-26
4
-10
-46
3
105
133
103
96
93
69
61
68
47
34
70
78
52
97
175
298
624
845
472
-114
-249
-110
-93
-108
-67
-75
-111
-103
-82
-82
-93
-106
-109
-97
-83
-65
-26
37
101
157
214
260
287
299
287
242
178
110
49
6
-18
-36
-50
-51
-35
-3
33
42
35
65
120
123
67
16
-5
-25
-41
-44
-47
-36
-13
-24
23
254
504
640
804
824
359
-232
-393
-294
-296
-335
-321
-319
-321
-302
-306
-337
-355
-344
-323
-323
-332
-322
-303
-289
-268
-237
-189
-116
-53
-18
25
59
40
7
-2
-13
-25
-12
-1
-15
-17
24
61
49
32
73
126
114
72
63
65
46
43
61
56
45
61
53
25
74
173
250
339
309
5
-282
-241
-85
-62
-79
-62
-67
-78
-59
-47
-48
-34
-12
-2
16
45
61
83
142
208
251
296
347
379
375
336
272
195
114
43
-5
-30
-38
-48
-81
-106
-82
-44
-57
-78
-30
41
32
-32
-59
-60
-86
-102
-83
-90
-111
-89
-92
-115
-16
140
259
476
595
226
-276
-327
-143
-126
-167
-136
-127
-147
-141
-123
-111
-112
-115
-93
-58
-36
-9
31
74
123
180
230
249
234
207
151
43
-60
-112
-154
-202
-219
-218
-230
-235
-210
-182
-188
-214
-196
-113
-34
-26
-72
-116
-139
-139
-106
-83
-112
-121
-76
-78
-81
52
187
259
417
427
14
-363
-285
-99
-100
-130
-111
-106
-101
-91
-93
-85
-71
-53
-26
-9
1
34
85
142
209
278
338
375
365
326
279
198
88
12
-21
-52
-82
-89
-87
-100
-113
-83
-28
-13
5
131
311
453
609
805
994
1248
1543
1574
1173
548
-1
-322
-434
-471
-494
-484
-476
-502
-519
-532
-585
-643
-666
-685
-719
-738
-738
-723
-663
-537
-381
-241
-116
8
80
79
65
64
33
-9
-15
-12
-27
-33
-29
-31
-25
-9
-2
-3
-5
-8
-6
-7
-9
3
11
9
35
82
105
106
99
77
63
64
59
56
64
76
76
46
48
130
215
340
576
596
168
-230
-209
-74
-81
-95
-66
-68
-82
-76
-59
-43
-39
-30
3
28
32
53
100
142
193
256
286
284
312
350
322
250
200
151
76
22
14
5
-24
-44
-34
8
48
40
19
49
91
77
25
-21
-61
-93
-97
-91
-106
-112
-97
-119
-141
-74
17
98
225
211
-100
-359
-286
-145
-150
-166
-133
-128
-143
-136
-127
-131
-130
-122
-120
-113
-88
-58
-28
18
75
125
171
209
218
199
158
91
8
-66
-118
-145
-148
-146
-163
-187
-192
-177
-156
-142
-124
-81
-31
-24
-59
-85
-96
-119
-128
-103
-98
-101
-76
-99
-126
10
186
271
437
521
151
-308
-311
-123
-108
-121
-80
-93
-113
-80
-65
-80
-64
-26
-3
10
35
70
103
154
237
326
385
413
414
380
321
248
151
50
-14
-40
-61
-78
-85
-98
-107
-93
-88
-113
-102
-34
23
28
-6
-54
-87
-97
-95
-89
-100
-100
-65
-75
-100
13
167
260
436
489
90
-338
-303
-125
-136
-153
-106
-113
-136
-122
-107
-99
-82
-62
-44
-30
-10
27
64
102
165
241
294
318
321
301
250
174
100
41
-12
-51
-61
-62
-88
-109
-81
-45
-49
-53
-7
76
172
250
293
386
586
772
908
1164
1463
1432
969
353
-147
-415
-481
-498
-550
-585
-590
-607
-632
-651
-677
-704
-721
-740
-759
-764
-749
-713
-636
-514
-368
-227
-99
9
84
117
111
89
69
52
28
12
18
24
4
-26
-38
-18
38
84
86
112
222
372
576
860
1018
795
304
-107
-300
-357
-336
-271
-245
-277
-305
-313
-321
-334
-352
-367
-364
-362
-372
-364
-321
-258
-179
-86
10
96
171
225
241
228
216
199
151
100
84
89
87
77
68
75
94
109
142
202
258
367
571
732
808
923
947
652
231
-12
-126
-214
-223
-171
-153
-172
-178
-159
-144
-170
-241
-322
-386
-429
-458
-476
-469
-427
-354
-251
-128
-16
69
147
210
225
217
219
198
144
127
151
144
115
119
137
130
116
115
122
121
108
98
98
94
88
91
91
77
70
72
62
47
49
58
56
58
64
46
18
17
16
-12
-29
-22
-29
-42
-9
57
83
62
40
8
-34
-30
-5
-18
-18
-5
-51
-32
125
257
399
589
430
-136
-470
-375
-298
-356
-364
-352
-385
-404
-397
-382
-374
-395
-412
-378
-327
-320
-342
-314
-217
-132
-102
-77
-45
-37
