# session 51
-7
-210
-107
60
76
64
89
92
88
94
95
95
91
90
106
122
121
123
147
190
235
276
331
408
480
528
550
545
511
449
355
242
135
49
-10
-40
-55
-74
-93
-97
-91
-81
-63
-39
-26
-34
-40
-9
45
88
155
301
526
780
958
1018
1153
1497
1689
1293
513
-76
-289
-339
-377
-402
-416
-425
-423
-429
-463
-502
-526
-557
-614
-667
-691
-719
-761
-783
-782
-775
-727
-606
-464
-339
-210
-82
15
83
107
69
25
22
23
10
11
18
10
2
6
10
13
16
17
15
18
19
10
0
4
16
24
24
21
18
13
10
6
-6
-26
-46
-49
-29
-23
-54
-63
-5
60
64
31
13
13
-4
-36
-22
19
0
-21
7
-22
-27
145
304
395
631
685
175
-328
-283
-92
-110
-138
-102
-102
-102
-86
-101
-114
-94
-85
-92
-76
-50
-32
-7
24
45
77
141
216
271
305
330
343
339
308
243
157
84
23
-44
-104
-140
-160
-167
-157
-145
-141
-131
-120
-105
-75
-45
-37
-32
-2
71
179
278
352
462
614
710
787
1042
1413
1467
987
302
-162
-326
-344
-351
-376
-387
-374
-378
-407
-420
-416
-431
-463
-487
-510
-548
-587
-606
-603
-590
-566
-507
-402
-274
-159
-67
20
99
127
95
58
39
13
-8
2
13
0
-1
21
33
32
38
39
32
36
45
39
31
37
47
45
40
38
35
26
8
0
20
42
32
22
57
104
107
80
57
37
18
10
20
28
10
-8
8
9
-7
59
191
318
440
375
-17
-356
-293
-115
-114
-137
-87
-70
-89
-80
-56
-40
-28
-21
-9
8
14
20
43
61
70
104
158
197
230
275
312
319
304
275
229
169
107
50
-3
-41
-58
-74
-98
-110
-108
-104
-105
-113
-121
-116
-102
-91
-93
-93
-62
-15
-8
-41
-68
-79
-85
-81
-73
-63
-62
-65
-43
-35
-73
-28
121
233
415
674
521
-81
-404
-249
-118
-150
-150
-132
-147
-149
-139
-135
-130
-128
-117
-85
-75
-97
-96
-53
-8
34
94
153
193
234
287
328
331
292
206
91
-1
-56
-108
-149
-156
-168
-196
-190
-156
-151
-163
-159
-157
-149
-103
-66
-94
-133
-97
-7
51
46
7
-28
-39
-41
-50
-43
-17
-29
-51
-21
-23
-39
94
275
371
549
637
223
-313
-353
-154
-142
-175
-132
-132
-157
-137
-118
-129
-131
-112
-93
-84
-81
-68
-24
35
66
84
142
240
323
363
373
357
314
265
196
76
-35
-82
-114
-137
-123
-121
-130
-96
-53
-1
110
219
345
601
877
1070
1379
1718
1570
869
163
-210
-367
-458
-517
-550
-558
-549
-550
-565
-575
-585
-605
-633
-670
-709
-743
-765
-767
-739
-686
-601
-465
-299
-143
0
125
202
219
203
181
154
131
134
148
125
83
75
88
86
82
78
66
62
66
57
49
62
74
57
36
51
71
56
42
57
59
42
36
32
28
42
53
36
20
23
9
-20
-17
17
14
-30
-30
41
110
120
87
61
60
52
34
41
51
49
68
55
18
110
272
401
666
886
527
-130
-326
-150
-92
-132
-136
-155
-166
-148
-149
-155
-147
-155
-156
-123
-96
-94
-86
-54
-11
31
79
143
208
245
258
270
275
254
211
153
86
22
-39
-100
-137
-148
-170
-193
-165
-117
-119
-141
-126
-106
-123
-145
-137
-115
-111
-125
-121
-83
-52
-57
-83
-111
-123
-114
-102
-93
-76
-70
-67
-48
-54
-47
56
180
311
528
534
86
-323
-263
-85
-90
-105
-64
-66
-79
-67
-69
-65
-37
-38
-64
-43
13
31
29
54
82
102
150
217
264
294
317
316
285
230
159
83
8
-58
-94
-103
-116
-132
-119
-98
-107
-120
-107
-87
-79
-81
-84
-67
-33
-19
-22
6
52
59
29
7
0
-10
-18
-12
-3
-13
-25
-7
0
-29
10
131
230
349
433
200
-221
-342
-177
-102
-141
-142
-122
-121
-122
-124
-124
-118
-113
-99
-82
-80
-75
-50
-32
-17
32
95
139
186
245
282
292
290
263
205
133
59
-11
-59
-79
-97
-121
-131
-126
-127
-129
-117
-102
-102
-107
-99
-81
-55
-31
-31
-25
23
62
39
-1
-13
-30
-74
-106
-94
-80
-91
-76
-53
-85
-57
93
217
379
625
511
-70
-417
-262
-106
-141
-141
-94
-88
-94
-95
-95
-82
-68
-63
-51
-31
-11
4
14
38
90
149
200
252
300
339
374
384
343
264
165
54
-35
-73
-86
-107
-128
-129
-132
-147
-144
-124
-134
-159
-141
-110
-116
-131
-108
-44
19
19
-29
-43
-30
-46
-60
-34
-28
-56
-36
3
-35
-25
153
314
432
667
677
141
-350
-290
-92
-112
-146
-107
-109
-123
-104
-95
-99
-94
-90
-88
-81
-69
-48
-19
6
34
82
148
212
264
309
341
335
286
209
103
-17
-87
-103
-134
-186
-204
-192
-193
-197
-183
-163
-155
-161
-166
-158
-133
-114
-127
-145
-112
-39
1
-21
-52
-55
-57
-76
-67
-31
-33
-45
-6
-15
-82
-4
169
288
567
878
578
-146
-407
-207
-135
-193
-160
-127
-141
-119
-87
-91
-90
-67
-50
-39
-17
2
14
34
62
100
157
213
252
295
337
347
338
311
227
108
27
-14
-52
-73
-70
-79
-110
-125
-115
-111
-110
-100
-103
-123
-122
-103
-100
-105
-97
-80
-55
-23
0
-5
-31
-50
-54
-59
-55
-41
-46
-44
-14
-27
-43
47
151
256
504
601
189
-278
-284
-122
-122
-132
-85
-90
-113
-103
-94
-85
-66
-59
-57
-49
-40
-22
6
26
50
93
138
173
219
267
281
274
270
236
150
60
5
-47
-102
-126
-127
-139
-151
-143
-123
-101
-87
-84
-81
-76
-81
-84
-67
-37
-25
-41
-44
-5
22
-7
-55
-73
-65
-61
-64
-57
-49
-40
-18
-24
-40
31
145
237
393
466
162
-256
-319
-165
-128
-155
-137
-123
-119
-103
-93
-82
-64
-57
-49
-22
-4
-1
22
64
87
105
148
197
242
300
345
340
313
289
237
155
80
26
-12
-38
-59
-64
-61
-76
-93
-88
-84
-92
-101
-114
-116
-90
-75
-84
-59
-3
7
-20
-37
-57
-81
-81
-67
-62
-77
-90
-69
-59
-84
-40
75
170
314
418
167
-258
-352
-185
-127
-149
-115
-94
-104
-87
-69
-76
-72
-52
-43
-48
-44
-21
2
17
47
97
142
177
229
291
329
335
331
309
242
143
49
-18
-59
-89
-117
-134
-141
-146
-153
-160
-164
-168
-181
-196
-192
-173
-161
-153
-139
-104
-47
-9
-24
-58
-65
-54
-65
-86
-77
-64
-67
-50
-61
-101
2
204
312
493
708
426
-202
-386
-155
-73
-124
-96
-73
-93
-99
-109
-104
-73
-64
-77
-80
-71
-44
-6
14
36
92
158
219
293
362
407
441
436
374
287
194
102
38
4
-29
-54
-57
-59
-79
-92
-81
-64
-55
-59
-77
-66
9
113
211
285
370
593
892
987
876
715
354
-156
-349
-241
-287
-434
-401
-319
-335
-347
-333
-349
-357
-352
-380
-426
-460
-488
-515
-537
-545
-527
-476
-397
-295
-176
-54
55
143
209
242
225
183
152
122
77
45
38
31
21
27
31
23
23
34
39
44
48
41
31
28
24
19
19
21
13
0
-11
-23
-33
-31
-27
-38
-62
-84
-89
-72
-64
-82
-83
-27
46
68
34
3
9
19
12
9
7
4
27
25
-16
42
177
283
523
786
520
-123
-359
-174
-105
-148
-107
-89
-127
-125
-97
-95
-106
-112
-107
-95
-94
-92
-70
-36
-1
37
87
154
223
274
309
336
349
335
293
238
179
108
37
-4
-17
-36
-64
-72
-62
-56
-56
-62
-71
-67
-49
-28
14
91
165
264
475
710
813
913
1135
1190
837
320
-58
-271
-371
-386
-380
-395
-408
-402
-401
-428
-462
-473
-473
-492
-528
-555
-563
-563
-570
-556
-487
-383
-271
-147
-25
66
126
164
162
121
74
48
37
23
10
11
17
11
2
6
10
2
1
12
11
-4
-13
-9
-5
-7
-18
-28
-28
-25
-29
-33
-31
-33
-49
-70
-70
-52
-50
-60
-25
48
71
33
8
14
12
8
19
23
10
19
56
57
28
84
223
361
510
526
190
-221
-263
-92
-49
-80
-66
-61
-70
-56
-43
-31
-12
-1
5
19
24
16
15
26
43
64
90
130
183
224
248
271
277
249
213
177
111
28
-20
-40
-68
-90
-91
-92
-93
-74
-61
-81
-94
-71
-42
-39
-46
-32
8
47
58
42
13
-21
-48
-51
-42
-52
-91
-104
-63
-56
-92
-30
113
229
392
468
136
-327
-375
-166
-115
-156
-132
-113
-129
-129
-111
-98
-97
-86
-52
-33
-39
-20
21
36
56
118
184
238
306
361
381
400
395
313
201
118
40
-39
-76
-91
-126
-152
-135
-112
-119
-126
-115
-113
-129
-127
-99
-97
-124
-117
-54
2
-2
-43
-65
-68
-86
-109
-111
-118
-141
-114
-51
-81
-126
3
182
288
465
489
36
-411
-346
-147
-157
-176
-142
-159
-166
-137
-127
-115
-105
-123
-130
-106
-73
-41
-20
2
56
118
174
251
336
380
385
370
322
245
154
53
-41
-107
-154
-193
-211
-202
-189
-191
-192
-169
-142
-137
-134
-105
-69
-67
-95
-95
-31
41
54
21
-10
-27
-52
-76
-61
-38
-59
-56
-14
-37
-41
105
243
368
652
706
171
-342
-289
-96
-130
-173
-127
-111
-116
-108
-101
-81
-49
-39
-53
-58
-32
3
23
42
72
109
160
224
275
305
319
307
258
189
118
41
-36
-85
-106
-128
-146
-142
-135
-128
-100
-55
6
92
179
303
555
843
1048
1320
1686
1736
1210
452
-95
-355
-456
-485
-494
-515
-538
-554
-581
-608
-617
-640
-699
-755
-786
-809
-828
-832
-815
-745
-612
-470
-338
-194
-50
68
155
202
220
227
239
357
599
767
902
1343
1840
1626
738
5
-257
-345
-393
-370
-348
-364
-370
-368
-381
-397
-404
-421
-460
-496
-510
-519
-523
-472
-367
-264
-169
-64
18
72
124
141
116
118
160
184
178
163
135
97
78
83
91
93
93
91
93
94
86
74
81
94
80
49
43
58
56
39
39
43
6
-36
-13
43
55
40
46
52
30
18
46
79
69
34
36
64
51
23
52
78
41
20
48
45
19
33
41
10
0
24
28
16
26
44
37
12
4
10
-1
-17
-8
-2
-10
10
63
79
44
18
16
1
-18
-17
-24
-32
-19
-34
-50
36
175
305
434
339
-99
-425
-331
-169
-193
-217
-172
-170
-197
-187
-160
-157
-169
-152
-100
-74
-93
-88
-38
9
41
82
128
166
198
221
230
233
227
206
172
128
81
36
-9
-49
-69
-70
-65
-67
-75
-64
-31
-8
20
67
123
268
518
667
746
1020
1222
840
155
-209
-268
-320
-363
-362
-378
-398
-398
-405
-416
-420
-439
-466
-474
-483
-518
-545
-542
-531
-506
-434
-319
-191
-55
74
159
195
208
192
139
89
58
27
6
5
1
-9
-8
-6
-7
1
13
20
28
32
30
29
33
48
63
56
38
39
38
18
19
45
38
5
-4
1
-4
-4
-6
-11
36
124
143
90
64
56
29
44
86
63
48
95
67
24
168
360
494
736
814
331
-220
-237
-40
-44
-111
-106
-94
-90
-95
-113
-116
-116
-110
-85
-80
-105
-99
-59
-27
9
64
111
157
234
308
319
298
290
259
190
112
23
-54
-78
-108
-185
-217
-186
-178
-180
-154
-162
-190
-135
-48
-65
-129
-68
118
286
395
494
563
559
482
305
127
187
354
199
-179
-320
-253
-259
-296
-269
-264
-287
-273
-255
-266
-279
-287
-300
-308
-306
-303
-294
-274
-245
-191
-116
-59
-33
-10
19
20
-10
-36
-51
-81
-118
-123
-110
-109
-103
-89
-87
-92
-89
-90
-83
-66
-59
-61
-73
-98
-106
-91
-81
-69
-51
-52
-62
-52
-16
48
108
106
55
29
28
15
21
54
54
46
71
51
33
157
319
461
699
736
253
-231
-196
-3
-18
-55
-20
-31
-63
-44
-20
-27
-30
-14
3
11
24
45
66
92
118
135
175
251
307
323
347
382
373
316
246
169
95
39
-15
-69
-96
-97
-87
-67
-48
-53
-65
-41
1
2
-23
5
82
139
174
258
415
572
628
585
476
306
254
472
600
264
-178
-273
-199
-223
-257
-237
-237
-259
-262
-259
-271
-285
-299
-326
-357
-374
-379
-374
-360
-343
-314
-272
-236
-195
-126
-59
-21
12
53
63
9
-115
-260
-315
-258
-204
-218
-242
-245
-250
-241
-190
-129
-95
-78
-61
-47
-26
11
16
-59
-156
-203
-237
-304
-341
-302
-242
-206
-173
-125
-86
-77
-56
-18
-20
-8
105
235
378
605
629
226
-155
-120
37
45
40
84
86
68
75
84
86
89
94
105
119
126
133
152
178
206
239
280
331
381
420
444
452
438
392
320
237
156
85
33
-5
-41
-67
-74
-79
-94
-107
-102
-84
-80
-97
-94
-44
0
-20
-64
-73
-92
-170
-219
-154
-41
62
187
303
357
389
372
310
415
599
386
-138
-363
-269
-258
-313
-279
-256
-281
-279
-269
-280
-284
-285
-297
-305
-303
-302
-304
-308
-289
-235
-186
-159
-104
-24
15
29
80
120
86
36
28
27
10
2
0
-14
-16
11
35
26
22
47
57
63
117
186
209
199
174
139
128
136
128
104
79
86
124
99
54
161
325
414
618
775
388
-228
-339
-116
-82
-154
-132
-110
-129
-125
-106
-108
-132
-144
-126
-110
-107
-86
-53
-36
-18
23
84
152
216
259
279
281
253
178
69
-34
-112
