# session 8
0
-4
6
19
28
35
31
22
33
63
87
103
128
159
204
285
391
479
531
552
546
527
505
472
421
352
273
200
149
111
76
45
16
-4
-9
-11
-22
-31
-32
-27
-13
5
10
18
57
92
82
46
15
-12
-37
-49
-56
-76
-89
-74
-74
-93
-53
41
129
216
196
-83
-391
-387
-211
-151
-162
-143
-134
-141
-131
-117
-108
-95
-95
-100
-70
-21
0
-2
8
24
35
62
105
136
149
157
164
155
122
74
17
-53
-120
-152
-161
-177
-191
-178
-154
-139
-98
-14
58
141
361
647
837
1012
1180
1012
477
4
-208
-308
-361
-354
-351
-375
-379
-368
-366
-371
-383
-407
-428
-445
-475
-506
-514
-500
-474
-431
-358
-245
-113
0
86
158
209
221
202
178
151
117
94
94
103
118
142
162
170
173
179
190
207
224
238
248
239
196
135
94
74
43
4
-15
-13
-30
-68
-92
-108
-147
-183
-180
-173
-202
-228
-192
-124
-91
-101
-119
-126
-135
-142
-127
-118
-139
-132
-114
-155
-116
64
192
347
611
484
-164
-557
-402
-241
-256
-240
-222
-241
-202
-137
-115
-84
-19
35
76
129
175
193
213
259
285
267
259
299
346
369
383
384
365
345
320
271
222
186
144
112
100
73
41
36
24
-15
-38
-40
-41
-22
4
-11
-48
-44
10
65
72
32
2
6
2
-13
-7
0
-5
-5
-33
-49
74
256
385
590
714
348
-205
-312
-129
-112
-176
-151
-138
-179
-198
-188
-173
-160
-144
-119
-103
-103
-86
-60
-55
-46
-2
52
95
132
141
120
93
58
-1
-72
-152
-236
-301
-343
-368
-372
-373
-396
-413
-403
-386
-373
-367
-356
-312
-257
-241
-234
-172
-75
2
34
25
1
-10
-5
16
41
39
47
68
32
24
150
259
364
642
720
227
-269
-239
-66
-86
-108
-68
-73
-87
-71
-59
-46
-23
-6
4
9
16
39
60
71
98
144
185
221
254
269
270
274
262
211
142
76
15
-35
-81
-131
-154
-133
-101
-50
35
123
274
537
767
962
1264
1368
891
200
-151
-232
-296
-352
-393
-441
-461
-454
-460
-471
-476
-476
-472
-472
-480
-488
-501
-515
-493
-427
-341
-242
-129
-45
4
69
142
160
139
132
119
83
73
90
96
122
159
145
182
354
477
520
744
1026
907
409
-16
-186
-214
-171
-89
-40
-50
-76
-96
-113
-121
-136
-167
-182
-180
-195
-211
-215
-210
-163
-90
-57
-23
81
182
219
244
262
258
281
320
372
504
650
715
787
808
522
34
-263
-315
-330
-359
-369
-383
-401
-399
-394
-409
-432
-443
-454
-483
-505
-500
-485
-468
-416
-319
-216
-123
-29
53
97
104
94
78
59
42
36
38
39
41
51
60
62
64
66
57
47
44
36
18
9
5
-25
-69
-79
-62
-69
-99
-93
-43
-7
-19
-47
-61
-68
-77
-78
-57
-43
-49
-36
-22
-39
11
163
324
524
658
364
-194
-377
-167
-48
-78
-70
-54
-65
-53
-36
-37
-36
-28
-15
-3
-4
2
29
50
62
85
121
165
211
247
279
302
286
237
198
160
98
27
-21
-49
-70
-88
-95
-89
-86
-86
-79
-66
-58
-40
-3
13
-8
-9
46
94
80
36
7
-16
-41
-38
-22
-45
-65
-44
-54
-55
75
228
342
546
579
124
-335
-288
-89
-105
-148
-120
-111
-63
42
92
90
97
89
60
55
62
60
77
129
189
226
239
269
326
366
364
343
298
213
117
41
-18
-67
-107
-147
-183
-198
-193
-191
-206
-221
-220
-208
-192
-205
-283
-381
-437
-463
-439
-358
-299
-272
-219
-201
-242
-244
-195
-137
-89
-100
-76
99
271
416
672
672
168
-208
-73
88
24
-45
-69
-48
61
69
-133
-322
-394
-499
-609
-551
-386
-304
-280
-204
-101
-22
55
131
191
240
265
254
228
196
137
62
6
-24
-41
-53
-55
-47
-50
-54
-32
0
24
78
135
145
247
537
730
509
-1
-435
-607
-546
-371
-193
-61
24
62
60
53
68
88
97
116
139
154
191
240
227
194
262
410
530
613
680
700
653
570
476
379
281
173
78
26
-2
-47
-93
-117
-136
-155
-155
-151
-169
-192
-196
-183
-171
-182
-204
-213
-207
-205
-203
-204
-209
-199
-176
-169
-184
-209
-230
-226
-201
-192
-208
-196
-136
-90
-101
-133
-157
-180
-184
-150
-117
-111
-93
-77
-87
-39
84
195
344
480
284
-165
-334
-164
-58
-97
-101
-70
-68
-75
-74
-64
-42
-21
-6
11
28
49
77
100
117
143
176
204
217
231
264
291
276
244
214
160
90
42
-3
-55
-77
-78
-98
-116
-103
-88
-92
-94
-89
-81
-55
-33
-52
-72
-38
9
-3
-51
-72
-69
-78
-82
-62
-44
-33
-8
-4
-10
55
154
228
341
353
49
-286
-265
-76
-28
-48
-22
-1
1
11
27
45
61
74
96
120
134
153
180
201
219
249
297
352
403
456
502
503
458
403
329
214
104
38
-11
-58
-86
-106
-135
-154
-162
-195
-250
-280
-295
-340
-414
-478
-498
-455
-383
-340
-327
-315
-327
-364
-352
-299
-266
-201
-123
-156
-182
-45
102
276
595
595
10
-443
-321
-137
-180
-218
-208
-231
-230
-198
-178
-156
-138
-140
-107
-5
120
206
227
202
182
205
257
303
343
388
412
393
337
260
172
81
0
-50
-80
-115
-143
-148
-151
-152
-160
-189
-195
-160
-150
-183
-194
-157
-95
-45
-47
-98
-135
-135
-140
-152
-144
-141
-130
-87
-95
-101
65
273
376
550
632
224
-284
-285
-62
-52
-97
-44
-28
-60
-45
-8
3
2
10
32
49
48
56
90
116
120
140
196
273
336
371
393
401
372
312
243
172
103
56
44
43
19
-9
12
68
121
181
270
419
687
993
1188
1399
1774
1948
1482
635
3
-265
-361
-397
-428
-500
-572
-603
-662
-772
-843
-845
-852
-883
-895
-898
-921
-924
-879
-812
-728
-588
-410
-256
-135
-14
100
157
145
118
111
79
2
-73
-119
-149
-168
-174
-160
-120
-78
-53
-24
5
11
7
20
43
60
64
40
4
0
44
97
121
129
135
130
125
136
139
109
87
122
185
213
188
149
129
110
72
36
-6
-53
-78
-121
-176
-116
17
134
365
531
180
-412
-570
-388
-318
-339
-307
-279
-274
-261
-250
-227
-188
-167
-157
-131
-101
-75
-37
3
28
53
94
143
187
213
223
232
230
195
146
115
77
12
-41
-64
-94
-128
-135
-134
-147
-146
-120
-90
-64
-26
87
324
568
735
996
1317
1225
626
105
-12
3
-26
-7
57
85
100
158
250
297
238
125
42
-25
-112
-189
-230
-253
-266
-242
-178
-105
-43
16
67
99
104
70
8
-41
-68
-98
-125
-129
-128
-144
-159
-156
-157
-170
-167
-143
-132
-135
-127
-107
-94
-76
-44
-23
-15
9
40
53
67
103
120
84
37
21
13
-6
0
42
63
34
-10
-42
-72
-87
-73
-66
-80
-70
-61
-94
-71
42
145
273
393
207
-227
-406
-264
-169
-191
-185
-165
-164
-151
-142
-141
-120
-95
-87
-79
-63
-46
-24
1
24
49
84
122
159
194
220
226
218
210
189
137
72
18
-32
-85
-120
-131
-144
-165
-168
-154
-151
-159
-153
-121
-75
-45
-41
-43
-25
8
20
1
-24
-42
-67
-75
-54
-66
-100
-73
-67
-140
-82
115
225
381
622
431
-150
-345
-102
8
-30
19
59
41
59
66
26
15
33
26
0
-16
-9
14
28
44
81
122
158
206
252
284
306
296
232
138
51
-22
-86
-137
-168
-187
-204
-195
-167
-176
-212
-217
-193
-176
-172
-187
-194
-148
-82
-58
-68
-81
-97
-126
-157
-151
-114
-110
-111
-94
-132
-124
52
197
274
500
569
98
-399
-377
-185
-193
-235
-199
-179
-174
-166
-173
-150
-84
-39
1
93
183
204
204
271
413
623
889
1094
1104
979
880
815
686
511
396
325
212
90
26
-2
-5
26
35
-8
-40
-32
-44
-73
-37
15
-52
-166
-160
-96
-133
-242
-331
-386
-399
-380
-395
-473
-554
-571
-563
-570
-475
-252
-84
73
295
198
-317
-604
-428
-282
-332
-333
-273
-253
-247
-232
-221
-208
-194
-172
-146
-126
-62
71
173
174
150
171
206
224
237
251
267
282
257
184
118
72
9
-48
-60
-52
-59
-73
-85
-94
-89
-64
-46
-55
-59
-20
21
11
-12
22
94
127
95
52
40
33
14
14
18
18
49
43
-17
62
239
303
483
828
686
13
-335
-189
-114
-184
-173
-148
-169
-163
-133
-119
-113
-104
-93
-83
-73
-60
-44
-26
-6
15
47
92
132
159
185
197
178
145
105
34
-48
-99
-130
-178
-218
-215
-199
-200
-198
-187
-173
-122
-26
63
125
186
244
272
264
251
268
311
335
313
259
196
135
94
83
70
33
20
36
12
9
97
194
312
476
388
-39
-317
-229
-130
-168
-179
-157
-170
-177
-164
-166
-170
-151
-131
-132
-133
-105
-80
-82
-66
-15
20
34
68
114
148
173
181
156
105
35
-39
-96
-143
-181
-195
-193
-203
-220
-225
-210
-188
-181
-178
-160
-135
-120
-107
-82
-51
-37
-43
-28
21
43
10
-26
-27
-24
-35
-49
-68
-63
-26
-39
-76
-6
113
215
384
436
113
-255
-263
-117
-93
-97
-64
-62
-75
-67
-57
-48
-31
-24
-22
7
36
46
101
170
181
271
381
144
-200
-20
426
506
388
399
379
244
142
82
11
-47
-72
-90
-122
-149
-153
-162
-186
-187
-163
-158
-176
-190
-185
-159
-119
-86
-51
12
74
71
18
-12
-24
-51
-52
-23
-31
-44
-27
-58
-51
115
261
379
664
720
152
-391
-326
-115
-147
-180
-133
-148
-169
-145
-140
-115
-39
-6
-24
-17
-17
-45
-23
25
32
55
119
167
202
245
272
283
269
192
93
37
-13
-94
-152
-153
-150
-167
-158
-119
-84
-23
79
209
428
718
950
1197
1558
1717
1313
553
-56
-318
-390
-445
-497
-523
-550
-580
-583
-578
-605
-646
-664
-671
-699
-743
-779
-794
-784
-744
-672
-564
-409
-233
-84
32
129
178
168
147
133
105
79
70
52
29
36
55
49
49
76
93
84
81
81
76
102
163
194
170
136
120
118
120
114
90
71
70
65
44
29
31
27
5
-31
-58
-54
-39
-56
-79
-48
33
81
55
7
-14
-26
-31
-16
-20
-35
-22
-42
-63
47
197
355
698
883
397
-258
-346
-167
-199
-259
-205
-199
-235
-214
-194
-229
-217
-63
132
196
131
71
65
71
85
148
240
296
311
338
369
383
408
441
446
423
378
313
247
186
127
76
43
21
7
-1
-5
-10
-22
-32
-36
-42
-54
-60
-51
-39
-33
-26
-28
-64
-114
-138
-162
-205
-217
-210
-257
-293
-251
-251
-300
-230
-94
15
147
87
-322
-615
-457
-216
-152
-101
-12
41
83
130
169
215
253
280
315
339
351
388
432
445
454
479
492
500
528
557
554
501
407
291
151
-5
-136
-223
-290
-354
-402
-431
-456
-482
-505
-529
-551
-564
-582
-610
-623
-611
-597
-599
-622
-644
-623
-582
-598
-663
-697
-713
-748
-752
-734
-740
-629
-313
-31
86
242
525
864
1159
1070
450
-141
-249
-183
-223
-176
0
44
-102
-244
-294
-335
-403
-454
-473
-481
-475
-454
-449
-457
-445
-427
-435
-429
-363
-274
-210
-139
-21
127
296
485
659
800
949
1100
1211
1309
1414
1492
1577
1664
1609
1425
1355
1433
1409
1213
1113
1244
1303
1048
707
529
413
231
56
-60
-155
-224
-259
-309
-357
-342
-298
-182
99
338
386
499
550
65
-580
-681
-492
-512
-589
-567
-573
-594
-558
-539
-557
-556
-534
-518
-512
-509
-491
-447
-406
-386
-354
-298
-244
-192
-130
-80
-67
-86
-131
-202
-279
-342
-392
-432
-455
-450
-425
-388
-311
-203
-102
78
415
745
988
1318
1568
1270
494
-175
-457
-502
-486
-501
-563
-610
-615
-614
-623
-636
-659
-687
-717
-752
-779
-785
-778
-765
-723
-620
-470
-316
-173
-29
95
174
227
268
267
229
204
198
195
204
214
200
185
196
209
209
213
226
235
231
219
211
212
215
218
216
202
199
212
208
189
181
182
175
165
158
161
173
170
139
105
90
100
119
104
60
66
132
174
163
135
101
57
30
30
19
4
27
26
-7
69
215
345
638
895
545
-135
-337
-155
-123
-183
-156
-145
-166
-151
-136
-127
-92
-63
-53
-36
-15
-4
19
53
81
115
164
204
228
271
313
304
263
238
215
163
91
22
-34
-74
-106
-133
-140
-139
-158
-170
-144
-118
-115
-103
-72
-16
82
192
317
541
797
945
1067
1185
1031
550
70
-218
-371
-429
-431
-445
-464
-465
-479
-508
-516
-518
-552
-598
-623
-640
-667
-688
-691
-680
-649
-594
-504
-374
-243
-136
-35
49
84
80
64
42
20
9
6
5
7
12
13
11
18
30
34
30
28
26
19
14
19
19
10
20
45
46
29
31
40
23
10
50
93
77
58
106
168
178
155
131
119
118
123
135
142
141
157
170
168
218
329
471
627
578
170
-208
-187
-27
-20
-44
-20
-34
-66
-64
-62
-72
-68
-58
-55
-52
-45
-31
-9
9
23
39
59
83
102
110
117
121
108
82
52
13
-28
-61
-101
-146
-173
-182
-186
-190
-197
-195
-174
-158
-168
-181
-172
-145
-117
-111
-110
-67
-6
4
-29
-47
-39
-33
-31
-21
-18
-20
12
33
7
65
224
349
515
685
448
-109
-309
-101
5
-38
-22
-1
-22
-15
2
-3
5
38
