# session 10
20
145
283
320
351
543
812
965
824
457
284
440
541
414
297
293
318
350
391
409
422
449
471
503
593
702
748
743
752
792
848
902
949
1000
1054
1084
1094
1090
1051
976
881
778
692
650
632
600
567
552
533
505
488
476
449
412
352
231
66
-74
-161
-227
-291
-335
-336
-315
-320
-362
-408
-443
-484
-517
-508
-493
-509
-493
-466
-520
-515
-333
-176
-25
289
298
-336
-871
-785
-610
-672
-685
-618
-632
-653
-614
-585
-583
-584
-568
-535
-519
-516
-479
-432
-423
-402
-330
-259
-198
-121
-57
-18
45
133
184
153
58
-36
-115
-197
-235
-193
-143
-149
-162
-123
-33
67
160
305
568
868
1107
1387
1710
1680
1058
277
-144
-254
-334
-430
-487
-523
-545
-547
-565
-603
-635
-670
-711
-744
-792
-844
-859
-859
-862
-823
-730
-604
-450
-278
-103
40
105
113
124
122
83
58
83
127
165
215
287
338
348
364
410
451
491
556
588
543
471
433
429
431
408
363
338
349
357
348
336
320
292
267
258
247
221
191
168
141
102
76
86
90
51
28
91
184
211
175
136
108
77
68
71
40
29
61
27
-7
121
268
395
706
841
329
-277
-311
-130
-154
-201
-169
-171
-178
-162
-171
-176
-158
-154
-157
-154
-149
-136
-117
-104
-78
-35
3
29
46
69
109
125
94
66
50
4
-52
-88
-132
-174
-183
-197
-240
-272
-291
-308
-305
-288
-275
-257
-238
-242
-253
-243
-220
-211
-213
-186
-116
-54
-48
-74
-86
-83
-84
-77
-62
-63
-64
-46
-59
-75
10
131
230
415
482
124
-297
-289
-94
-69
-96
-70
-71
-78
-46
-29
-39
-33
-15
-8
-1
15
33
47
63
96
148
189
212
254
315
349
339
313
291
248
170
95
56
29
0
-5
18
40
51
60
67
74
85
94
91
82
83
98
121
140
147
154
154
106
1
-141
-284
-359
-326
-238
-170
-137
-100
-38
-18
-76
-83
19
99
163
239
97
-267
-422
-262
-135
-148
-146
-114
-109
-110
-97
-80
-62
-53
-51
-49
-56
-75
-93
-111
-133
-158
-186
-179
-97
22
113
170
202
204
182
151
107
45
-14
-41
-41
-39
-50
-63
-66
-62
-55
-49
-38
-27
-27
-41
-56
-56
-34
-7
6
33
89
129
124
93
51
1
-31
-19
4
-13
-23
23
24
-23
61
217
326
559
735
360
-244
-355
-144
-110
-163
-127
-101
-117
-117
-109
-103
-91
-81
-64
-47
-49
-48
-14
25
44
66
109
166
223
270
303
323
310
252
173
97
29
-31
-84
-121
-129
-131
-139
-123
-94
-65
20
164
340
595
879
1089
1346
1652
1551
841
57
-307
-373
-417
-472
-513
-548
-551
-545
-584
-617
-606
-616
-670
-722
-757
-763
-751
-773
-785
-692
-540
-411
-273
-104
37
132
201
227
201
167
162
159
120
74
75
106
107
83
83
99
103
98
88
83
91
94
86
95
112
112
109
115
108
88
66
23
-33
-59
-51
-39
-27
-16
-15
-8
6
-9
-49
-56
-19
4
-17
-31
19
103
136
103
74
62
34
16
32
25
8
36
30
8
133
310
441
707
860
415
-200
-281
-80
-60
-92
-62
-84
-125
-127
-134
-141
-133
-143
-151
-131
-114
-107
-84
-48
-7
35
66
103
158
195
205
213
211
185
154
126
80
24
-13
-38
-72
-95
-92
-98
-119
-114
-94
-89
-76
-50
-58
-91
-96
-80
-70
-66
-66
-54
-13
22
5
-51
-113
-169
-210
-222
-211
-199
-182
-153
-150
-151
-79
41
192
399
415
20
-392
-386
-192
-138
-146
-122
-114
-115
-104
-98
-84
-64
-58
-53
-32
-8
10
24
41
76
128
180
218
246
283
333
340
280
214
175
120
42
-9
-31
-55
-71
-60
-27
29
96
160
299
546
752
876
1010
961
527
26
-186
-223
-236
-174
-99
-119
-174
-198
-224
-257
-271
-287
-325
-361
-381
-410
-446
-444
-389
-323
-245
-133
-24
54
132
201
210
172
146
132
106
76
56
50
51
50
38
24
15
13
19
16
-1
-16
-20
-23
-31
-41
-48
-53
-57
-65
-72
-74
-81
-95
-100
-93
-94
-110
-118
-105
-85
-90
-114
-123
-113
-122
-147
-152
-137
-129
-125
-110
-80
-39
-12
-24
-52
-69
-80
-61
12
69
66
66
58
28
98
256
397
609
733
379
-162
-254
-50
-15
-68
-45
-46
-78
-67
-50
-52
-38
-3
27
31
11
-2
7
13
13
36
76
108
143
191
225
232
234
223
184
141
105
47
-25
-69
-90
-119
-150
-161
-159
-157
-147
-129
-113
-97
-85
-101
-120
-98
-70
-86
-107
-65
16
41
2
-20
-17
-44
-65
-27
-5
-45
-38
12
-18
-5
176
343
504
773
710
81
-370
-225
-52
-124
-129
-68
-100
-110
-63
-80
-116
-85
-41
-33
-39
-35
-16
16
49
97
163
210
244
316
393
405
376
332
245
145
81
6
-85
-120
-113
-137
-161
-137
-115
-128
-133
-131
-148
-154
-128
-110
-117
-119
-97
-65
-39
-14
-7
-48
-105
-125
-117
-105
-103
-106
-79
-66
-110
-61
121
238
357
553
396
-178
-485
-328
-207
-257
-262
-231
-240
-246
-235
-228
-216
-201
-196
-189
-163
-140
-126
-87
-32
-1
36
114
186
224
254
279
277
265
256
205
89
-26
-86
-119
-160
-197
-218
-230
-249
-259
-225
-168
-131
-81
19
157
355
596
798
1032
1388
1565
1178
408
-221
-509
-603
-642
-654
-655
-671
-695
-698
-696
-726
-769
-763
-689
-596
-516
-435
-362
-301
-196
-15
201
420
614
730
784
842
892
898
848
730
589
521
524
503
413
316
272
251
207
166
145
115
73
46
25
-8
-46
-67
-75
-88
-97
-96
-108
-134
-141
-139
-154
-168
-163
-161
-173
-177
-178
-190
-192
-145
-67
-26
-55
-110
-133
-128
-129
-130
-120
-120
-125
-134
-149
-104
15
146
334
480
244
-252
-432
-262
-167
-202
-192
-175
-192
-177
-152
-159
-157
-136
-130
-125
-97
-82
-86
-63
-12
15
25
70
132
151
144
171
208
196
155
127
97
42
-11
-36
-52
-77
-98
-95
-83
-80
-81
-74
-64
-64
-75
-78
-65
-51
-47
-47
-29
1
6
-16
-33
-37
-40
-52
-54
-26
9
25
23
-16
-46
12
106
209
358
323
-44
-322
-217
-57
-61
-56
-9
-12
-12
26
46
48
62
72
68
64
69
81
94
103
119
144
172
216
263
283
296
326
336
284
198
124
64
3
-41
-54
-61
-68
-57
-28
28
106
176
313
577
810
964
1181
1227
754
113
-174
-209
-265
-322
-356
-405
-429
-426
-455
-493
-493
-499
-549
-591
-594
-615
-665
-684
-658
-606
-514
-390
-270
-158
-34
68
112
110
93
66
24
-24
-53
-59
-69
-90
-94
-79
-74
-78
-75
-72
-64
-36
-18
-17
22
98
144
174
231
261
222
172
150
129
98
80
76
69
60
54
37
18
8
-12
-30
-25
-39
-63
-1
108
120
50
22
26
8
7
28
16
14
39
5
2
177
356
470
720
821
345
-226
-268
-80
-71
-105
-84
-108
-135
-101
-72
-73
-65
-64
-86
-83
-45
-18
-10
8
28
47
89
150
209
243
231
190
173
178
150
79
-1
-61
-98
-125
-142
-146
-160
-180
-173
-152
-151
-152
-130
-109
-110
-111
-98
-101
-121
-100
-24
32
18
-29
-60
-83
-98
-79
-59
-83
-80
-39
-67
-74
83
244
378
666
756
262
-252
-239
-83
-119
-148
-109
-119
-129
-104
-94
-93
-78
-63
-48
-26
-8
9
34
61
89
133
188
227
253
284
311
311
281
225
152
82
25
-23
-59
-78
-83
-90
-101
-106
-96
-77
-72
-91
-111
-101
-79
-85
-97
-76
-34
-4
2
-27
-78
-113
-120
-116
-120
-138
-131
-109
-136
-147
-49
66
203
461
526
121
-294
-285
-145
-158
-185
-155
-148
-148
-129
-119
-116
-116
-112
-34
129
225
175
98
89
97
88
90
112
139
156
155
149
141
109
49
-17
-73
-119
-157
-176
-162
-142
-160
-197
-203
-196
-213
-226
-209
-186
-180
-198
-213
-178
-146
-186
-215
-151
-76
-54
-60
-91
-87
16
127
135
74
37
56
56
21
117
331
450
547
653
394
-141
-316
-119
-44
-112
-108
-86
-99
-93
-81
-88
-80
-62
-66
-58
-18
3
16
54
50
58
230
392
306
253
452
526
316
247
391
352
165
139
153
33
-29
50
88
46
17
15
37
56
34
34
85
60
-38
-38
33
22
-12
40
101
85
44
26
16
21
35
5
-35
-9
12
-25
-3
84
181
403
594
324
-197
-350
-191
-158
-221
-185
-122
-115
-105
-69
-36
-22
-23
-25
-12
19
37
39
61
87
88
109
168
200
195
197
186
147
115
92
43
-23
-84
-149
-205
-235
-255
-268
-270
-286
-316
-333
-357
-385
-367
-313
-288
-288
-273
-251
-247
-252
-237
-196
-163
-174
-212
-234
-240
-247
-242
-225
-222
-213
-199
-214
-195
-89
41
174
220
-37
-431
-510
-320
-231
-256
-247
-236
-238
-213
-193
-191
-179
-170
-164
-128
-87
-76
-63
-36
-31
-31
9
72
115
151
200
233
231
216
190
143
97
65
26
-11
-28
-27
7
75
142
250
448
592
527
374
331
353
316
298
393
475
499
617
753
694
542
466
396
317
265
179
187
440
678
684
682
885
1244
1479
1169
434
8
78
147
58
3
-33
-100
-132
-147
-188
-214
-213
-213
-222
-238
-249
-240
-229
-220
-190
-151
-134
-120
-75
-25
-17
-37
-59
-104
-176
-245
-309
-370
-397
-408
-435
-443
-432
-445
-451
-422
-404
-401
-385
-374
-364
-343
-355
-385
-354
-285
-273
-308
-332
-342
-371
-416
-454
-480
-481
-425
-385
-410
-341
-147
-4
199
500
378
-229
-547
-366
-233
-273
-243
-197
-228
-251
-230
-197
-159
-140
-141
-123
-85
-52
-10
48
99
166
295
433
505
545
603
648
644
592
495
384
299
231
169
131
108
76
56
56
49
41
53
61
53
64
92
85
53
67
138
199
205
162
108
82
80
74
68
60
49
66
68
26
89
268
373
514
744
585
9
-253
-59
46
-23
-18
15
5
17
29
17
25
46
64
89
95
82
104
143
157
175
227
281
321
359
387
385
369
341
263
155
83
31
-38
-77
-85
-116
-152
-153
-154
-181
-187
-165
-160
-167
-148
-124
-134
-141
-94
-28
-9
-39
-65
-82
-119
-142
-131
-156
-186
-148
-153
-208
-115
51
178
455
634
190
-448
-536
-334
-338
-399
-365
-367
-396
-371
-348
-363
-368
-348
-331
-324
-313
-302
-298
-284
-242
-197
-179
-163
-110
-55
-41
-42
-49
-99
-178
-240
-292
-347
-386
-403
-412
-416
-415
-420
-417
-394
-376
-382
-385
-370
-358
-347
-325
-294
-250
-195
-171
-191
-207
-204
-204
-193
-160
-127
-78
-19
-21
-11
120
259
393
645
727
337
-85
-78
94
117
95
118
129
134
158
177
197
234
265
269
276
313
350
365
390
437
475
510
566
627
663
677
679
677
660
606
529
474
448
428
413
411
421
444
462
454
446
461
471
480
512
545
553
570
608
630
618
592
580
588
591
587
589
591
602
618
592
574
657
770
852
914
784
415
194
307
430
399
373
380
355
330
322
307
285
258
229
219
210
176
156
164
169
167
176
187
193
204
202
178
145
98
14
-102
-221
-326
-420
-496
-559
-609
-631
-643
-660
-574
-352
-171
-34
248
430
17
-812
-1397
-1552
-1563
-1617
-1711
-1808
-1894
-1984
-2082
-2169
-2240
-2306
-2384
-2472
-2550
-2616
-2671
-2702
-2709
-2698
-2655
-2595
-2558
-2528
-2488
-2468
-2489
-2536
-2586
-2635
-2698
-2767
-2805
-2826
-2872
-2925
-2955
-2987
-3033
-3063
-3084
-3114
-3121
-3134
-3179
-3159
-3124
-3227
-3098
-2184
-797
312
1065
1747
2344
2813
3252
3659
3975
4243
4498
4733
4953
5150
5307
5435
5538
5620
5697
5699
5562
5409
5370
5354
5243
5092
5002
4965
4913
4862
4851
4820
4771
4769
4774
4815
4958
5061
5155
5403
5385
4764
4203
4212
4312
4166
4075
4146
4124
3972
3836
3443
2336
854
-205
-800
-1324
-1698
-1847
-2100
-2552
-2959
-3255
-3534
-3792
-3993
-4161
-4343
-4523
-4659
-4781
-4902
-4995
-5091
-5193
-5248
-5299
-5290
-4959
-4306
-3713
-3368
-3056
-2680
-2519
-2668
-2745
-2595
-2555
-2722
-2826
-2815
-2825
-2877
-2957
-3066
-3171
-3234
-3236
-3241
-3283
-3131
-2679
-2412
-2694
-3050
-2993
-2775
-2559
-2055
-1504
-1465
-1587
-1235
-697
-430
-253
5
210
345
492
637
755
862
970
1071
1156
1242
1330
1397
1469
1574
1639
1629
1646
1753
1861
1913
1945
1957
1912
1834
1771
1717
1658
1612
1597
1588
1567
1541
1515
1494
1479
1435
1346
1272
1261
1285
1300
1279
1227
1199
1236
1286
1272
1195
1122
1096
1078
1032
986
943
900
899
889
808
793
882
961
1159
1428
1230
583
242
338
369
268
244
242
197
173
161
130
105
85
61
40
17
-4
-2
15
18
8
10
36
64
72
61
42
13
-29
-91
-180
-270
-327
-370
-431
-487
-510
-523
-538
-535
-528
-505
-439
-382
-309
-79
204
332
454
624
441
-142
-602
-730
-783
-863
-896
-897
-916
-944
-957
-950
-951
-975
-994
-1002
-1031
-1059
-1052
-1042
-1044
-997
-887
-780
-680
-547
-409
-311
-245
-210
-216
-235
-244
-240
-226
-225
-254
-251
-176
-84
-6
83
194
372
575
598
432
309
254
158
83
22
-136
-266
-219
-119
-89
-85
-78
-77
-65
-56
-66
-65
-63
-99
-140
-145
-137
-103
1
132
219
290
386
477
517
506
479
467
461
439
420
427
433
409
389
401
401
366
348
369
374
348
327
322
309
292
283
267
234
