# session 65
-34
65
181
310
419
487
520
516
481
438
386
330
299
291
280
270
267
260
260
271
267
255
261
257
230
211
197
170
153
160
158
139
130
144
168
189
202
190
158
136
133
128
120
107
85
92
114
67
14
97
233
339
498
506
102
-325
-318
-136
-116
-146
-113
-96
-109
-117
-117
-108
-95
-88
-84
-70
-55
-49
-43
-14
30
79
135
188
227
256
263
253
238
186
88
13
-17
-63
-133
-174
-174
-163
-161
-165
-174
-168
-125
-56
7
60
174
419
680
813
944
1146
1116
683
145
-207
-374
-442
-472
-494
-500
-490
-482
-485
-503
-514
-507
-524
-567
-579
-567
-583
-594
-544
-450
-343
-220
-93
13
93
140
138
102
62
32
9
-12
-37
-58
-65
-60
-53
-49
-44
-35
-27
-26
-27
-28
-20
20
94
189
322
469
550
611
702
665
498
503
593
341
-105
-265
-217
-247
-281
-247
-246
-278
-286
-290
-306
-327
-357
-377
-385
-406
-420
-402
-377
-351
-303
-240
-170
-86
-10
40
89
139
167
181
194
191
176
167
159
136
109
106
117
100
68
71
81
62
51
63
68
68
68
62
67
86
90
83
93
104
97
80
64
55
62
65
39
18
47
110
155
154
115
69
39
17
11
21
22
26
21
-26
1
173
337
490
662
485
-95
-408
-236
-108
-163
-134
-80
-132
-165
-127
-111
-121
-121
-131
-144
-120
-78
-56
-31
22
87
159
245
326
376
379
347
318
285
202
88
0
-64
-128
-170
-178
-161
-127
-89
-56
-21
20
70
134
233
411
633
798
967
1267
1475
1213
558
-34
-332
-445
-499
-528
-549
-573
-589
-599
-618
-642
-665
-691
-720
-754
-800
-845
-874
-884
-858
-789
-680
-513
-306
-136
-27
66
126
118
80
55
26
8
20
20
5
15
33
33
48
73
64
47
61
80
80
73
66
60
51
27
10
31
36
-10
9
162
297
301
256
232
207
182
180
187
170
156
171
157
142
243
372
508
819
984
517
-122
-228
-49
-41
-91
-69
-64
-80
-84
-91
-86
-70
-68
-66
-54
-41
-20
-1
13
54
115
141
157
220
290
292
244
200
170
133
77
6
-66
-115
-134
-150
-173
-177
-173
-191
-195
-149
-111
-118
-113
-66
-28
-36
-74
-105
-118
-128
-129
-110
-103
-102
-79
-91
-119
-28
124
212
285
249
-71
-378
-329
-152
-126
-146
-133
-141
-145
-130
-137
-144
-124
-116
-124
-109
-75
-50
-28
11
60
111
169
224
261
281
288
268
210
123
44
1
-18
-41
-57
-53
-45
-48
-53
-55
-43
-6
23
44
119
227
336
496
655
743
909
1124
1006
509
61
-143
-240
-294
-295
-290
-306
-328
-343
-355
-371
-395
-422
-457
-500
-542
-577
-607
-621
-609
-570
-491
-370
-225
-79
50
137
183
193
167
122
85
60
44
36
34
29
23
27
41
44
27
30
55
61
58
65
47
12
7
19
14
-1
5
46
93
95
59
32
25
5
-15
2
9
-22
-1
32
-28
3
202
336
511
818
673
-31
-415
-234
-117
-188
-166
-125
-159
-149
-107
-116
-125
-94
-71
-79
-80
-46
14
77
121
148
202
313
418
444
420
410
382
290
176
89
14
-55
-95
-111
-127
-143
-141
-140
-155
-143
-89
-36
39
169
319
496
701
833
941
1221
1490
1283
608
-41
-375
-477
-498
-512
-530
-534
-518
-507
-534
-580
-597
-607
-649
-694
-725
-760
-788
-800
-796
-743
-623
-468
-308
-142
20
125
150
143
137
109
69
51
51
55
50
35
44
75
62
30
44
61
44
44
62
51
31
41
75
90
62
44
102
191
214
161
115
121
131
112
102
102
102
113
86
59
164
300
417
745
1010
616
-69
-252
-80
-51
-105
-98
-99
-102
-84
-99
-134
-124
-82
-67
-71
-52
-15
12
40
90
157
220
262
299
340
341
287
225
165
79
-13
-72
-107
-144
-177
-196
-214
-228
-212
-173
-157
-173
-161
-103
-59
-61
-85
-111
-133
-148
-151
-134
-128
-142
-127
-112
-132
-72
66
158
326
532
325
-217
-436
-273
-190
-231
-214
-192
-212
-204
-174
-168
-172
-161
-141
-120
-92
-60
-26
20
70
120
178
234
270
308
346
340
278
187
96
26
-14
-31
-33
-36
-43
-45
-47
-60
-56
-14
15
-7
-23
19
74
74
33
4
-9
-21
-20
-10
-16
-12
4
-28
-47
44
140
216
391
428
58
-315
-283
-121
-105
-109
-75
-73
-72
-50
-49
-59
-47
-23
-7
1
10
25
42
68
108
151
193
240
276
289
290
272
219
149
81
9
-47
-57
-58
-80
-88
-84
-99
-98
-57
-16
35
122
218
367
590
732
797
995
1148
862
298
-98
-269
-373
-437
-459
-479
-505
-523
-534
-546
-568
-585
-594
-622
-659
-664
-642
-626
-599
-537
-447
-326
-178
-44
52
125
174
182
152
109
70
35
9
4
12
13
1
-3
9
14
5
4
14
24
32
30
12
-10
-21
-20
-10
-25
-63
-41
44
76
29
-2
-11
-45
-52
-14
-19
-53
-10
23
-29
34
238
357
519
785
622
-12
-330
-154
-45
-98
-70
-23
-52
-71
-40
-9
-2
-6
4
33
61
80
103
145
197
248
304
370
427
463
473
434
359
285
198
72
-39
-85
-100
-119
-138
-162
-182
-167
-128
-103
-80
-34
38
150
280
379
486
660
833
991
1264
1554
1451
848
168
-221
-364
-425
-456
-476
-489
-480
-478
-512
-551
-571
-589
-619
-658
-697
-731
-766
-788
-769
-718
-636
-493
-322
-183
-62
43
83
67
53
45
27
7
-22
-50
-46
-30
-40
-46
-33
-34
-43
-37
-38
-64
-82
-65
-43
-61
-99
-78
8
71
63
30
14
3
-9
-7
-11
-33
-17
7
-48
-47
111
228
370
716
756
136
-394
-315
-142
-187
-209
-175
-187
-193
-182
-186
-172
-153
-156
-150
-124
-104
-85
-44
9
61
128
205
258
313
398
446
414
375
375
369
331
289
278
293
275
198
124
94
90
102
106
73
60
104
122
72
22
0
-28
-45
-33
-44
-69
-41
-30
-82
-57
54
146
339
534
294
-226
-385
-212
-155
-198
-169
-132
-127
-108
-100
-117
-124
-110
-94
-86
-79
-60
-37
-11
26
66
106
165
227
252
244
220
171
98
18
-51
-97
-131
-156
-150
-139
-166
-193
-177
-144
-125
-132
-141
-87
5
45
55
89
137
249
415
494
575
900
1251
1153
625
85
-236
-359
-367
-353
-361
-373
-379
-388
-393
-392
-406
-437
-461
-477
-503
-530
-544
-547
-535
-487
-406
-307
-201
-101
-22
40
75
66
32
2
-22
-47
-64
-70
-71
-65
-61
-63
-62
-51
-40
-46
-59
-46
-1
24
3
-2
46
81
55
19
5
-14
-18
26
53
48
78
85
43
117
274
367
557
754
465
-113
-262
-58
-6
-54
-17
0
-18
11
34
19
29
66
85
88
100
121
143
167
198
238
290
355
414
441
438
417
365
271
162
75
18
-31
-74
-97
-110
-127
-125
-99
-90
-104
-95
-43
15
32
3
-32
-59
-97
-116
-95
-99
-127
-102
-96
-151
-83
102
213
355
496
228
-300
-445
-250
-198
-262
-229
-179
-191
-194
-179
-180
-163
-128
-127
-149
-139
-100
-61
-27
6
58
153
256
310
318
307
263
181
81
-26
-113
-146
-167
-207
-219
-206
-211
-216
-191
-164
-157
-149
-99
-19
18
-5
-28
-25
-10
39
129
210
301
453
595
701
975
1471
1757
1395
559
-156
-423
-420
-425
-467
-469
-456
-468
-472
-464
-485
-513
-509
-519
-567
-592
-589
-616
-654
-654
-625
-580
-491
-361
-222
-91
9
54
72
90
82
52
39
46
51
58
59
51
61
94
118
114
97
107
171
238
233
176
137
114
95
99
92
53
63
90
55
101
269
359
511
847
804
180
-229
-91
37
-29
-25
21
0
-9
0
-18
-11
18
14
4
22
42
61
88
120
168
234
286
318
353
374
355
299
223
138
56
-23
-92
-132
-140
-146
-162
-175
-180
-169
-144
-134
-136
-113
-75
-64
-80
-105
-144
-181
-176
-154
-165
-164
-132
-151
-158
-35
89
190
434
530
115
-339
-321
-157
-179
-200
-144
-143
-175
-166
-142
-123
-111
-117
-117
-88
-61
-57
-48
-11
42
90
129
173
219
241
228
189
122
37
-37
-92
-134
-159
-164
-167
-177
-192
-195
-170
-136
-127
-125
-87
-33
-34
-80
-88
-64
-69
-73
-44
-35
-34
-4
-26
-65
29
163
251
416
468
114
-279
-268
-114
-114
-132
-91
-79
-79
-54
-42
-46
-33
-7
12
23
32
48
73
101
132
177
238
299
340
359
350
306
242
171
96
36
1
-25
-46
-59
-69
-79
-80
-58
-17
11
57
185
347
492
674
846
946
1179
1605
1720
1161
339
-176
-345
-400
-431
-450
-466
-461
-453
-482
-522
-548
-591
-646
-674
-698
-747
-792
-803
-784
-735
-651
-521
-348
-173
-36
55
99
109
108
77
19
-15
-21
-43
-66
-75
-92
-108
-110
-108
-99
-77
-70
-79
-86
-92
-82
-56
-53
-64
-35
30
96
135
120
67
31
27
51
77
56
38
66
60
72
217
373
522
764
728
162
-299
-212
-33
-67
-99
-77
-97
-99
-65
-69
-100
-105
-87
-68
-49
-20
6
17
41
109
194
257
310
362
392
372
304
223
149
58
-33
-73
-100
-152
-174
-151
-147
-151
-110
-54
-13
66
200
318
420
583
780
957
1214
1580
1792
1565
922
189
-287
-442
-457
-474
-501
-520
-529
-535
-549
-575
-603
-624
-645
-685
-729
-752
-770
-790
-768
-680
-553
-399
-222
-62
46
113
149
145
110
66
34
22
20
10
2
14
22
3
-11
12
27
2
-9
0
-46
-106
-61
-6
-75
-118
-8
86
59
25
32
24
-2
-15
-17
-23
-6
24
-3
-16
86
186
336
708
854
328
-267
-295
-108
-113
-156
-125
-108
-115
-111
-103
-94
-84
-76
-63
-47
-38
-29
6
69
123
158
204
261
303
330
338
305
249
189
104
8
-39
-53
-89
-120
-109
-112
-138
-118
-71
-79
-107
-70
1
22
-7
-42
-65
-73
-63
-44
-38
-32
-8
-20
-48
35
190
283
378
410
140
-216
-242
-77
-41
-71
-52
-39
-35
-16
-19
-44
-42
-14
-6
-30
-49
-29
15
45
69
113
161
197
228
240
218
172
101
11
-58
-98
-141
-186
-206
-206
-204
-208
-203
-164
-108
-61
4
108
257
458
617
690
867
1115
1025
532
77
-128
-224
-273
-265
-263
-286
-292
-292
-318
-352
-376
-399
-436
-478
-510
-533
-549
-552
-532
-471
-365
-238
-113
7
102
153
179
180
146
104
76
46
19
24
47
44
22
20
33
24
7
7
4
-11
-20
-31
-57
-67
-45
-33
-51
-53
0
66
82
50
17
3
-2
9
23
18
29
59
23
2
142
289
387
662
832
385
-228
-297
-83
-58
-102
-80
-79
-93
-77
-63
-59
-61
-68
-61
-46
-42
-24
19
51
69
117
204
278
309
315
303
270
228
150
22
-83
-117
-149
-205
-231
-235
-240
-211
-175
-195
-215
-161
-86
-48
-53
-91
-116
-102
-107
-144
-148
-128
-119
-94
-92
-131
-42
167
280
397
569
365
-183
-398
-208
-114
-162
-148
-129
-149
-138
-118
-117
-106
-93
-84
-56
-21
-12
-1
52
129
199
266
336
391
422
428
394
307
196
109
44
-21
-62
-54
-50
-92
-123
-91
-25
49
122
209
407
728
996
1192
1525
1863
1750
1124
381
-155
-420
-489
-496
-526
-571
-603
-606
-602
-631
-682
-713
-734
-781
-851
-909
-935
-930
-899
-819
-673
-500
-336
-178
-37
56
95
105
107
93
67
64
83
87
80
81
88
91
87
79
81
84
76
69
75
64
36
23
22
15
10
13
21
46
93
131
125
86
53
42
40
45
37
22
37
44
3
38
177
308
497
652
365
-193
-360
-166
-105
-156
-129
-113
-131
-103
-70
-67
-56
-32
-5
18
28
47
79
94
121
186
229
254
316
369
346
300
280
245
165
73
16
-13
-46
-71
-72
-78
-95
-81
-44
-34
-49
-44
-17
-3
-8
-27
-59
-93
-110
-105
-93
-95
-96
-82
-90
-88
4
117
200
312
279
-69
-375
-315
-158
-140
-141
-114
-120
-122
-109
-112
-105
-84
-84
-81
-53
-27
-2
27
44
73
140
203
235
264
281
253
196
134
55
-32
-91
-116
-133
-152
-158
-151
-152
-155
-127
-92
-95
-114
-93
-48
-31
-47
-79
-114
-127
-113
-100
-109
-110
-84
-80
-105
-57
66
146
233
330
158
-236
-367
-186
-78
-100
-81
-51
-52
-35
-15
-21
-26
-15
-5
6
30
69
103
123
158
227
293
342
399
457
475
446
387
301
200
108
42
2
-21
-40
-70
-109
-125
-106
-80
-71
-66
-40
17
64
51
15
14
10
-19
-14
3
-28
-26
34
16
-10
131
284
363
520
502
37
-353
-237
-29
-38
-63
-40
-56
-51
-12
-12
-21
-17
-39
-57
-24
18
33
31
29
64
164
269
299
283
290
280
194
77
-26
-128
-195
-209
-230
-264
-265
-265
-294
-293
-253
-254
-296
-278
-194
-132
-134
-183
-244
-267
-254
-261
-275
-273
-264
-254
-270
-274
-148
19
98
222
299
-23
-499
-576
-384
-329
-350
-302
-275
-295
-284
-256
-244
-215
-183
-192
-192
-141
-95
-72
-24
50
121
194
267
319
343
337
298
230
151
85
46
20
1
1
20
37
50
86
151
224
311
423
567
798
1101
1349
1568
1893
2162
2015
1427
744
283
99
71
