# session 33
26
-585
-602
-399
-380
-392
-355
-360
-362
-334
-327
-317
-289
-278
-281
-279
-263
-235
-217
-210
-187
-148
-101
-41
24
79
121
144
151
152
139
101
41
-24
-82
-127
-166
-201
-216
-211
-203
-201
-202
-192
-166
-136
-115
-117
-139
-145
-113
-82
-101
-131
-97
-32
-19
-47
-55
-60
-87
-113
-117
-102
-86
-89
-73
-28
-51
-88
42
234
328
474
554
197
-281
-306
-103
-99
-148
-92
-73
-119
-119
-73
-42
-37
-38
-37
-18
23
57
57
57
93
146
186
222
273
329
367
390
395
368
315
253
170
82
28
4
-16
-31
-39
-42
-32
-27
-40
-40
-24
-24
-30
-30
-37
-35
-3
20
33
68
88
52
2
-13
0
-9
-46
-39
-3
-34
-59
-1
-23
-120
-44
135
250
431
530
190
-262
-307
-151
-141
-169
-136
-129
-138
-115
-91
-94
-104
-102
-91
-82
-75
-60
-34
-1
26
54
100
154
198
242
285
298
285
268
234
170
98
37
-11
-46
-85
-128
-134
-115
-121
-136
-130
-133
-150
-160
-168
-175
-162
-153
-171
-164
-114
-84
-104
-129
-149
-173
-172
-148
-138
-137
-125
-116
-87
-56
-90
-107
8
154
266
364
239
-154
-376
-231
-67
-59
-57
-30
-27
-14
8
3
-1
9
6
-5
-6
-5
0
11
27
50
90
138
187
237
282
312
327
329
310
262
195
127
74
41
15
-12
-29
-25
-21
-28
-26
-14
-9
-10
-13
-29
-42
-28
-5
11
36
63
61
30
-10
-50
-69
-51
-33
-30
-29
-42
-42
-18
-53
-91
18
168
293
535
609
148
-368
-375
-188
-187
-218
-183
-176
-181
-164
-156
-150
-129
-102
-85
-78
-58
-19
13
39
75
111
148
212
290
357
408
441
450
428
369
274
179
116
52
-81
-270
-435
-511
-493
-432
-392
-360
-314
-300
-317
-289
-237
-237
-252
-204
-127
-89
-79
-76
-95
-122
-120
-99
-101
-102
-72
-59
-64
-39
-34
-29
107
299
473
738
810
319
-239
-248
-27
-15
-59
-21
-12
-46
-66
-75
-74
-58
-43
-42
-43
-23
9
32
60
105
147
194
265
339
406
476
511
477
419
372
282
134
38
46
43
-26
-71
-71
-89
-105
-89
-101
-138
-129
-97
-101
-113
-114
-131
-129
-76
-23
-13
-29
-62
-99
-109
-101
-112
-115
-107
-131
-135
-96
-133
-172
-28
138
250
533
660
161
-420
-434
-241
-244
-265
-223
-225
-233
-213
-204
-193
-169
-152
-135
-112
-95
-78
-53
-25
11
58
110
169
241
307
349
381
392
351
275
196
120
59
16
-45
-113
-135
-129
-135
-154
-177
-196
-196
-192
-200
-187
-142
-122
-139
-121
-48
4
-1
-20
-46
-94
-135
-153
-145
-90
-52
-84
-77
-10
-8
8
150
287
428
604
455
-68
-346
-194
-83
-145
-154
-111
-107
-105
-85
-67
-47
-22
7
44
76
104
135
164
197
231
263
312
381
432
456
479
498
499
475
420
339
258
203
165
129
117
134
128
91
88
113
104
80
80
79
59
42
52
67
9
-158
-308
-322
-268
-249
-241
-201
-157
-137
-174
-310
-494
-586
-554
-501
-437
-294
-145
-22
161
211
-92
-410
-368
-189
-149
-144
-99
-77
-70
-54
-64
-111
-192
-296
-360
-332
-259
-198
-150
-99
-44
1
18
28
78
154
209
238
260
262
226
158
82
30
-3
-49
-78
-57
-44
-60
-53
-41
-66
-76
-54
-49
-61
-60
-50
-28
-5
10
44
87
90
65
52
44
31
27
33
47
58
46
51
86
79
83
197
319
449
680
671
172
-268
-217
-52
-69
-89
-43
-31
-35
-19
-12
-20
-18
0
9
-2
2
23
32
47
89
123
153
217
283
316
345
377
386
363
292
184
88
21
-32
-73
-105
-132
-143
-132
-123
-132
-150
-153
-128
-112
-134
-153
-131
-112
-126
-142
-123
-69
-22
-35
-92
-119
-105
-109
-132
-119
-103
-141
-156
-101
-108
-143
4
195
257
439
642
313
-291
-415
-190
-136
-177
-144
-138
-156
-143
-145
-163
-165
-164
-146
-107
-98
-114
-94
-62
-57
-38
22
95
174
255
298
297
290
278
228
133
30
-39
-75
-110
-157
-178
-158
-125
-96
-76
-87
-105
-62
23
91
186
328
455
613
831
940
910
820
489
-53
-297
-189
-223
-413
-411
-288
-267
-287
-265
-264
-300
-322
-327
-343
-372
-392
-408
-433
-450
-446
-415
-349
-265
-183
-65
87
195
248
306
347
319
265
235
210
175
151
130
100
77
77
79
73
74
76
63
39
21
21
24
-4
-40
-33
-14
-30
-50
-52
-55
-60
-57
-48
-37
-35
-38
-36
-49
-81
-89
-61
-45
-62
-70
-35
21
59
57
21
-7
-13
-27
-26
18
35
4
7
13
-44
-28
122
248
386
596
502
-15
-373
-289
-160
-180
-174
-142
-167
-180
-151
-146
-158
-144
-126
-124
-116
-100
-83
-50
-13
8
39
96
145
184
237
289
316
329
335
314
256
190
140
100
56
13
-15
-32
-47
-64
-76
-82
-82
-82
-82
-73
-52
-25
9
74
166
265
421
649
828
954
1163
1318
1085
526
36
-205
-291
-308
-288
-291
-327
-337
-325
-361
-418
-422
-412
-448
-498
-531
-571
-611
-627
-620
-596
-545
-472
-382
-263
-120
-5
54
86
96
56
5
-1
4
-31
-60
-47
-39
-66
-82
-61
-37
-39
-51
-53
-46
-38
-31
-20
-5
8
15
22
29
32
32
35
44
48
48
57
48
16
23
63
56
25
62
142
178
167
136
98
84
82
56
43
54
39
37
62
21
12
179
348
479
702
657
103
-334
-271
-155
-192
-170
-121
-152
-172
-151
-142
-144
-142
-119
-83
-76
-81
-48
-7
9
42
105
163
217
289
367
416
414
380
352
329
274
182
74
-22
-78
-102
-125
-148
-171
-194
-183
-139
-117
-119
-99
-80
-91
-88
-52
-45
-84
-91
-26
41
58
52
36
-13
-53
-32
1
-6
-29
-40
-25
-4
-38
-49
83
239
389
678
760
225
-370
-394
-204
-216
-245
-195
-193
-204
-174
-161
-163
-149
-139
-143
-147
-134
-101
-74
-68
-49
-6
36
82
147
212
262
291
288
244
173
90
1
-77
-126
-154
-178
-190
-190
-190
-187
-177
-171
-161
-138
-122
-122
-109
-83
-67
-64
-72
-65
-13
53
67
33
-4
-32
-47
-54
-56
-42
-32
-45
-22
12
-29
-23
114
228
391
692
640
45
-363
-234
-89
-146
-145
-86
-107
-141
-125
-103
-84
-62
-54
-56
-47
-39
-31
2
32
36
78
172
233
261
326
389
392
371
347
281
187
113
55
-12
-63
-77
-84
-101
-105
-93
-88
-90
-76
-64
-75
-82
-64
-43
-33
-22
-2
34
72
76
52
22
-6
-11
-1
-14
-19
1
-8
-11
14
-44
-121
-36
126
296
513
476
16
-356
-309
-181
-193
-200
-168
-165
-176
-179
-163
-131
-118
-127
-118
-94
-78
-68
-53
-27
2
28
72
144
203
226
235
247
240
211
170
112
43
-13
-50
-80
-97
-98
-95
-96
-96
-89
-71
-56
-55
-61
-61
-55
-37
-16
-14
-15
18
52
37
3
-6
-14
-42
-62
-63
-59
-67
-76
-54
-43
-89
-70
71
195
332
522
390
-144
-462
-318
-177
-228
-243
-193
-189
-195
-175
-163
-161
-149
-132
-125
-124
-107
-68
-39
-26
10
74
124
168
246
333
387
412
420
397
337
253
169
101
47
-2
-33
-38
-48
-74
-81
-69
-67
-71
-67
-68
-68
-51
-34
-35
-34
-2
56
102
101
74
59
58
52
42
39
50
45
28
64
85
11
34
227
368
561
893
780
74
-368
-246
-138
-190
-164
-148
-207
-211
-187
-209
-213
-185
-183
-187
-168
-154
-144
-116
-93
-82
-43
30
92
140
197
237
234
213
175
89
-16
-92
-152
-204
-218
-218
-238
-255
-242
-227
-227
-224
-212
-205
-207
-203
-179
-162
-176
-180
-128
-54
-16
-20
-50
-82
-79
-60
-78
-94
-65
-53
-64
-32
-42
-89
32
228
318
579
922
629
-125
-389
-176
-109
-176
-148
-113
-125
-135
-141
-129
-106
-105
-110
-85
-53
-52
-71
-55
-4
46
94
158
234
311
375
416
429
403
344
277
204
121
60
36
14
-17
-26
-21
-25
-23
-2
31
97
176
238
388
690
948
1097
1401
1756
1615
939
290
-51
-216
-284
-289
-316
-364
-374
-370
-401
-462
-530
-598
-665
-725
-772
-811
-835
-826
-798
-773
-699
-541
-377
-259
-132
4
57
35
40
63
22
-49
-65
-50
-58
-59
-34
-23
-30
-16
5
2
0
23
44
38
26
27
26
16
6
0
8
26
32
25
28
32
27
36
56
55
40
35
36
47
64
61
42
58
110
138
121
83
48
31
22
9
13
27
7
-1
26
7
-11
97
245
396
613
589
110
-309
-264
-111
-125
-142
-110
-119
-129
-116
-121
-115
-81
-76
-99
-88
-61
-64
-64
-25
15
32
55
99
138
167
198
233
247
236
223
209
176
126
84
55
33
12
-9
-23
-30
-36
-44
-50
-54
-63
-75
-85
-88
-72
-48
-40
-32
3
38
37
15
-11
-33
-31
-16
-16
-14
-1
-4
0
13
-10
6
132
258
415
661
608
68
-347
-259
-98
-132
-158
-132
-154
-173
-156
-162
-190
-195
-174
-155
-148
-139
-120
-99
-82
-57
-16
36
97
170
240
285
304
302
267
193
104
27
-35
-84
-124
-149
-146
-127
-127
-144
-143
-123
-116
-115
-104
-95
-89
-79
-80
-77
-28
31
37
15
-2
-36
-67
-64
-59
-65
-56
-52
-47
-38
-82
-83
87
257
372
604
623
70
-447
-358
-128
-169
-220
-169
-177
-200
-151
-122
-143
-144
-125
-113
-85
-58
-57
-40
-2
22
56
117
176
249
327
353
351
369
355
267
149
44
-30
-66
-101
-157
-182
-157
-137
-144
-145
-135
-122
-99
-79
-76
-59
-34
-49
-67
-11
71
95
69
33
-2
-24
-31
-23
3
12
-23
-28
9
-30
-62
96
305
465
691
681
131
-382
-339
-152
-175
-201
-154
-145
-141
-119
-132
-150
-130
-107
-103
-97
-83
-69
-56
-35
-3
40
92
154
220
272
309
337
342
309
239
154
77
21
-22
-51
-69
-80
-87
-89
-86
-69
-36
-7
31
109
231
412
651
872
1088
1440
1812
1759
1133
347
-175
-403
-486
-526
-558
-567
-547
-547
-592
-630
-626
-632
-688
-759
-802
-824
-852
-896
-927
-902
-824
-719
-574
-392
-242
-146
-39
83
141
124
96
86
80
71
63
58
61
65
64
61
64
65
57
51
55
56
47
45
51
48
44
57
74
85
99
102
96
103
118
121
117
110
98
87
78
78
98
112
117
142
175
190
197
178
123
104
138
149
125
106
113
144
131
73
126
279
416
646
834
530
-53
-236
-71
-19
-69
-53
-41
-73
-93
-98
-101
-104
-108
-106
-98
-91
-75
-53
-40
-20
17
54
93
145
192
226
248
254
247
233
206
162
117
76
27
-28
-73
-103
-120
-123
-127
-150
-169
-161
-161
-192
-208
-191
-186
-185
-151
-127
-152
-183
-207
-246
-262
-234
-218
-215
-204
-204
-192
-161
-172
-155
-22
118
241
381
263
-166
-388
-218
-74
-101
-94
-51
-49
-48
-35
-38
-43
-50
-65
-66
-58
-69
-89
-88
-66
-27
23
73
122
176
225
259
289
305
285
233
178
129
72
12
-25
-25
-7
-9
-18
3
30
11
-19
-13
-13
-41
-46
-18
1
25
65
68
23
-5
-2
-15
-44
-40
-1
7
-15
13
39
-26
-15
157
295
471
754
635
-2
-383
-236
-104
-155
-156
-123
-139
-149
-150
-149
-120
-98
-110
-104
-67
-54
-55
-23
14
26
64
145
218
270
322
361
368
361
342
275
155
44
-19
-66
-119
-159
-182
-204
-213
-194
-174
-192
-227
-231
-202
-188
-204
-216
-180
-112
-74
-84
-110
-150
-184
-175
-158
-166
-151
-125
-127
-109
-105
-140
-45
167
302
505
751
493
-161
-396
-182
-105
-179
-160
-135
-168
-174
-157
-157
-152
-134
-119
-102
-76
-49
-21
19
60
86
122
197
277
328
367
399
406
396
366
283
173
113
97
61
9
-14
-18
-37
-43
-8
16
-13
-51
-44
-15
-1
-9
-21
-15
22
66
73
39
3
-8
-14
-34
-41
-21
-15
-17
12
2
-49
20
161
251
463
695
430
-164
-370
-202
-140
-178
-146
-120
-133
-122
-104
-95
-81
-71
-69
-61
-51
-39
-17
2
17
52
94
128
172
222
245
256
286
288
213
113
47
-17
-85
-110
-117
-154
-188
-192
-189
-184
-176
-176
-183
-187
-185
-164
-142
-145
-142
-102
-58
-46
-64
-101
-126
-118
-105
-99
-85
-82
-90
-60
-36
-75
-51
84
196
330
495
336
-150
-397
-268
-170
-203
-203
-175
-174
-166
-143
-116
-98
-98
-87
-48
-28
-38
-35
-16
5
39
73
91
137
217
264
267
274
277
247
194
134
68
7
-36
-61
-73
-85
-103
-119
-127
-129
-127
-136
-155
-154
-118
-86
-90
-91
-44
8
10
-24
-52
-67
-63
-41
-31
-35
-40
-57
-59
-39
-61
-69
44
164
251
440
490
121
-251
-206
-40
-32
-38
-2
-1
0
20
19
14
29
37
38
52
70
77
80
90
122
170
207
231
275
345
400
413
402
370
295
206
156
117
44
-15
-8
8
-16
-35
-23
-12
-4
13
12
-7
-1
25
27
17
49
118
152
128
97
76
51
37
37
30
18
-10
-37
-31
-55
-99
-7
155
258
443
545
121
-468
-517
-261
-239
-323
-302
-286
-303
-292
-303
-337
-334
-319
-332
-352
-346
-314
-298
-313
-312
-284
-262
-231
-182
-153
-139
-114
-94
