# session 184
-28
-36
-37
-31
9
75
84
23
-26
-34
-44
-64
-66
-66
-85
-89
-82
-89
-77
-63
-82
-40
81
220
491
766
548
-41
-293
-166
-140
-240
-256
-234
-241
-233
-209
-188
-164
-150
-149
-126
-87
-70
-68
-47
-25
-28
-17
33
74
93
126
165
205
268
299
246
205
219
178
58
-21
-34
-49
-84
-125
-153
-136
-125
-178
-195
-124
-102
-158
-156
-106
-114
-157
-167
-139
-104
-100
-120
-113
-55
10
31
12
-3
7
29
54
69
53
37
52
71
107
195
232
184
214
332
460
702
863
517
-35
-152
25
52
-13
-15
-6
-2
10
-12
-63
-83
-54
-32
-54
-84
-99
-100
-66
-35
-50
-39
11
49
125
171
127
219
300
94
235
587
-377
-1870
-1420
65
222
-245
-94
64
-27
50
117
47
41
53
17
17
25
9
23
45
54
71
73
96
200
293
346
507
722
829
989
1272
1265
780
219
-121
-311
-397
-385
-367
-389
-395
-377
-406
-430
-357
-374
-470
-317
-303
-631
-281
65
-1724
-3758
-2545
-11
411
-147
84
330
221
301
448
464
491
499
450
432
411
349
310
305
278
239
222
219
207
190
179
162
126
101
95
76
72
91
62
47
113
100
46
121
85
-39
125
90
-233
213
404
-1425
-2821
-1270
486
211
-187
171
192
24
157
212
121
125
153
145
136
99
56
37
15
-4
-4
-8
-11
-5
-2
12
19
-7
24
139
234
383
589
473
1
-250
-126
-42
-89
-80
-49
-58
-67
-85
-106
-98
-100
-112
-91
-61
-55
-44
-21
-10
7
67
157
222
241
255
287
319
343
354
336
303
270
222
160
113
76
41
19
7
-3
2
24
63
116
178
317
566
792
956
1157
1187
746
84
-307
-380
-379
-405
-404
-354
-325
-364
-404
-409
-436
-460
-430
-447
-520
-502
-481
-554
-524
-493
-596
-436
-284
-598
-299
371
-1033
-3188
-2229
302
672
-16
232
546
459
558
749
909
1100
1109
930
685
318
-5
-83
-70
-98
-116
-125
-146
-166
-185
-183
-166
-184
-204
-190
-208
-251
-249
-253
-290
-263
-178
-125
-79
-5
83
199
274
213
119
125
155
133
109
98
74
65
67
54
66
118
144
130
126
136
127
117
141
182
182
134
98
87
65
42
55
79
71
52
59
74
55
37
52
22
-27
56
209
324
496
573
249
-187
-263
-128
-89
-99
-96
-127
-148
-107
-63
-81
-135
-144
-113
-116
-117
-55
-13
-43
-45
6
16
-2
40
103
124
146
178
165
142
151
144
96
51
21
-10
-37
-65
-90
-97
-99
-111
-119
-112
-103
-105
-107
-94
-84
-97
-112
-98
-70
-66
-76
-60
-14
8
-26
-76
-90
-75
-66
-67
-70
-53
-27
-55
-114
-91
-33
-66
-82
27
159
312
454
283
-161
-370
-243
-124
-94
-53
-35
-50
-54
-65
-85
-74
-51
-57
-69
-62
-63
-72
-53
-18
6
31
73
120
170
213
235
249
275
299
292
252
201
143
81
36
10
-19
-46
-49
-61
-102
-114
-79
-69
-104
-109
-75
-76
-107
-85
-23
-6
-34
-45
-39
-36
-23
3
18
5
-31
-67
-87
-90
-82
-70
-63
-56
-47
-54
-68
-48
-39
-73
-43
65
144
271
436
300
-116
-298
-161
-77
-109
-94
-62
-69
-58
-25
-15
-23
-16
15
48
42
13
24
54
50
58
107
129
117
133
173
201
226
264
291
269
209
173
154
100
51
52
48
25
29
24
-31
-78
-89
-116
-152
-152
-135
-129
-121
-119
-129
-118
-92
-90
-97
-84
-57
-21
17
11
-40
-62
-48
-65
-99
-82
-45
-42
-53
-63
-73
-90
-112
-70
59
206
398
621
594
161
-300
-245
114
-117
-833
-828
-110
161
-48
-66
5
-47
-43
5
-9
-9
18
18
21
39
60
88
108
123
160
190
192
207
221
197
167
145
90
5
-61
-87
-83
-91
-119
-119
-106
-127
-133
-105
-113
-139
-114
-101
-164
-205
-161
-123
-140
-148
-130
-115
-88
-37
8
47
90
99
71
49
37
17
0
-7
-17
-18
-10
-16
1
42
22
5
115
265
438
713
739
241
-229
-201
-34
-48
-79
-53
-57
-82
-90
-81
-69
-78
-87
-76
-61
-55
-70
-62
-8
-26
-59
92
156
-1
195
456
-192
-889
-330
438
292
38
141
90
-55
-40
-46
-96
-76
-62
-74
-57
-45
-55
-47
-39
-51
-66
-67
-52
-24
16
77
136
210
389
609
736
951
1364
1487
979
292
-103
-268
-332
-314
-306
-340
-346
-332
-343
-368
-394
-403
-376
-356
-396
-447
-446
-431
-449
-463
-442
-390
-297
-185
-94
-14
79
163
218
242
230
191
152
114
66
24
4
-7
-19
-17
-2
7
9
13
14
20
40
49
35
30
36
41
54
63
41
21
34
37
20
36
49
0
-36
3
30
-5
-26
-12
-15
-31
-21
-16
-49
-71
-36
24
45
20
-10
-20
-30
-55
-96
-130
-117
-65
-33
-36
-40
-43
-42
-24
-7
0
16
24
18
38
48
4
15
108
174
294
488
377
-85
-347
-242
-150
-183
-183
-168
-181
-170
-156
-173
-171
-142
-141
-153
-130
-113
-132
-132
-93
-55
-16
28
30
12
68
183
241
231
241
281
295
282
251
188
117
85
73
42
12
15
42
81
115
118
104
111
120
90
49
42
44
26
0
-25
-43
-19
48
130
252
471
708
817
810
752
600
477
595
696
384
-81
-236
-176
-169
-194
-199
-203
-197
-196
-210
-201
-187
-207
-219
-208
-234
-284
-271
-227
-250
-290
-265
-242
-274
-287
-236
-173
-157
-163
-103
10
26
-39
-30
-8
-38
21
44
-106
-152
-169
-196
189
134
-632
155
914
-2811
-6735
-3945
818
997
-181
415
665
245
382
503
323
349
401
312
298
315
281
278
278
251
251
252
219
214
248
239
194
206
261
260
217
212
228
194
138
127
134
123
123
128
123
128
99
75
205
407
540
637
542
134
-148
-31
108
91
75
14
-11
231
435
249
21
49
89
29
18
34
3
-7
20
36
59
101
127
152
209
262
287
315
336
321
299
284
237
160
92
28
-36
-76
-103
-136
-148
-134
-152
-195
-190
-169
-193
-176
-143
-210
-178
-64
-255
-272
148
-866
-3686
-4565
-1904
533
520
95
343
380
207
238
252
203
235
244
197
196
206
171
153
158
109
63
134
238
343
553
614
233
-183
-176
-19
-29
-60
-23
-19
-33
-12
-1
-14
-13
-3
-8
-10
-1
-2
-5
19
54
66
75
114
167
205
242
291
338
376
405
407
367
295
217
148
95
56
19
-23
-60
-82
-103
-132
-148
-143
-137
-137
-121
-98
-88
-84
-78
-71
-69
-75
-80
-63
-35
-36
-41
-5
38
32
-1
-25
-46
-58
-41
-34
-63
-67
-29
-27
-54
-46
-52
-82
-33
66
197
475
652
331
-171
-286
-158
-150
-187
-167
-169
-191
-193
-203
-212
-194
-172
-155
-135
-120
-101
-67
-40
-29
-13
12
37
66
108
143
159
172
190
194
177
147
103
48
-4
-45
-76
-106
-132
-129
-103
-107
-129
-105
-80
-118
-128
-55
-5
6
72
170
276
454
622
707
839
917
633
130
-173
-233
-220
-180
-149
-168
-184
-162
-132
-113
-100
-91
-106
-156
-214
-265
-318
-370
-402
-416
-418
-405
-368
-309
-229
-125
-11
86
162
216
224
193
160
140
112
75
67
99
102
59
67
127
105
36
67
126
82
24
40
47
12
14
55
59
15
-12
3
9
-9
20
75
30
-62
-34
42
20
-18
25
66
41
6
13
22
0
-2
31
27
-20
-44
-49
-67
-80
-86
-102
-93
-52
-32
-49
-40
14
54
37
-4
-30
-44
-58
-70
-78
-82
-79
-72
-52
-32
-58
-75
18
147
294
583
745
386
-134
-242
-87
-44
-92
-102
-68
-61
-102
-119
-112
-144
-145
-87
-83
-119
-91
-40
-29
-14
26
61
92
124
168
231
286
308
317
330
326
301
272
243
203
149
96
68
53
20
-19
-37
-49
-69
-81
-81
-99
-135
-145
-123
-106
-106
-101
-107
-124
-93
-49
-73
-55
10
-39
30
204
-86
-250
328
-254
-2485
-2898
-712
501
-59
-228
81
-10
-110
40
161
250
425
585
435
-27
-278
-125
5
-40
-48
-18
-31
-29
-6
4
17
22
16
31
53
63
79
84
82
125
177
173
189
266
296
281
336
406
387
348
336
275
168
93
38
-17
-19
16
17
-12
-22
-24
-41
-59
-56
-47
-32
26
101
167
349
643
825
965
1250
1299
754
99
-143
-147
-178
-201
-209
-252
-290
-292
-292
-307
-321
-331
-340
-345
-356
-393
-434
-445
-435
-430
-448
-482
-474
-386
-272
-176
-69
57
150
166
120
78
83
98
77
28
-24
-52
-53
-61
-87
-112
-136
-152
-151
-146
-147
-138
-117
-99
-87
-78
-71
-63
-52
-45
-45
-43
-31
-21
-25
-26
-7
4
-4
10
41
45
44
64
65
48
54
68
71
74
54
16
21
58
67
47
17
7
56
112
85
15
-4
19
35
34
31
49
68
73
113
159
128
118
221
355
548
760
595
34
-285
-164
-56
-108
-121
-97
-105
-99
-74
-56
-42
-32
-22
-4
0
-7
4
23
22
22
46
73
91
116
145
165
194
240
261
243
237
244
219
166
110
57
17
-21
-74
-111
-124
-147
-171
-168
-150
-137
-135
-154
-186
-200
-188
-189
-222
-251
-231
-181
-159
-176
-175
-142
-129
-152
-168
-171
-175
-170
-154
-146
-140
-119
-110
-125
-115
-101
-129
-103
9
109
282
515
405
-73
-332
-213
-123
-169
-165
-126
-135
-138
-99
-63
-65
-61
-22
-11
-31
-5
38
33
43
102
136
145
181
226
254
285
322
344
349
342
314
251
181
149
135
87
20
-26
-53
-80
-100
-108
-111
-111
-110
-113
-109
-91
-69
-50
-32
-26
-32
-16
30
53
46
94
216
294
321
430
568
597
685
986
1174
928
434
28
-183
-234
-210
-208
-230
-241
-250
-271
-284
-279
-267
-269
-291
-327
-362
-381
-390
-414
-448
-458
-443
-436
-439
-407
-325
-241
-173
-85
27
115
151
143
110
64
24
9
8
-7
-24
-17
0
-1
-6
-8
-16
-24
-29
-39
-40
-24
-13
-15
-14
-11
-7
0
-5
-23
-27
-25
-22
-9
-27
-87
-101
-58
-53
-72
-55
-45
-50
-16
23
14
-15
-30
-19
12
16
-3
13
37
30
62
120
104
118
260
386
529
785
730
155
-279
-192
-50
-107
-146
-131
-161
-185
-166
-150
-146
-136
-115
-82
-47
-22
-2
25
56
83
114
158
201
231
261
300
344
399
455
467
425
380
343
281
203
145
91
30
-19
-49
-63
-70
-92
-117
-112
-102
-112
-111
-91
-79
-86
-116
-153
-155
-137
-158
-191
-171
-126
-111
-123
-148
-182
-200
-193
-188
-198
-188
-152
-155
-188
-152
-105
-149
-122
68
223
344
472
281
-207
-404
-235
-149
-192
-177
-154
-168
-156
-131
-133
-156
-156
-102
-46
-60
-103
-111
-91
-58
-37
-48
-38
18
54
67
124
196
217
200
178
150
104
31
-49
-104
-128
-140
-152
-164
-155
-126
-115
-121
-102
-62
-31
-10
1
15
51
73
78
134
236
354
540
768
981
1283
1596
1502
913
287
-48
-167
-201
-198
-202
-214
-206
-200
-217
-221
-200
-207
-247
-258
-245
-267
-307
-323
-352
-406
-418
-382
-366
-368
-326
-225
-104
-7
58
129
200
217
178
120
76
70
79
43
-17
-31
-17
-26
-45
-48
-47
-56
-69
-69
-65
-74
-80
-70
-59
-59
-55
-42
-34
-30
-22
-20
-23
-21
-22
-34
-40
-38
-49
-61
-55
-50
-61
-79
-97
-99
-77
-74
-97
-79
-10
34
27
5
-8
-1
25
41
32
24
26
16
10
22
2
-8
93
206
289
507
648
301
-192
-248
-83
-95
-146
-90
-67
-119
-141
-117
-104
-99
-63
-21
-11
-5
26
47
48
61
79
78
72
90
127
162
190
225
271
300
297
283
268
231
165
104
65
26
-18
-40
-47
-67
-89
-91
-91
-100
-85
-28
74
239
433
607
770
822
615
401
516
623
252
-269
-430
-368
-364
-376
-358
-367
-391
-401
-408
-393
-364
-369
-398
-408
-415
-441
-461
-461
-456
-448
-423
-380
-330
-279
-231
-190
-160
-139
-127
-128
-133
-136
-135
-131
-126
-120
-113
-109
-103
-90
-78
-68
-41
-13
12
74
167
254
379
562
722
890
1133
1223
914
391
5
-158
-188
-185
-216
-259
-255
-225
-214
-221
-241
-260
-238
-196
-208
-255
-269
-264
-281
-303
-314
-312
-285
-233
-171
-95
8
129
245
334
394
444
482
469
405
343
311
288
269
260
244
223
224
234
217
193
196
185
141
139
168
160
174
212
207
344
599
449
-8
-71
69
-8
86
140
-180
106
502
-919
-2478
-1364
425
338
-151
133
225
67
177
267
235
297
359
353
376
401
390
379
361
314
255
190
120
63
17
-18
-26
-11
-19
-62
-100
-109
-97
-85
-103
-153
-170
-129
-129
-203
-236
-218
-236
-240
-225
-254
-204
-125
-208
-170
-54
-346
-322
276
-528
-2487
-2290
-206
463
-140
-113
129
-56
-106
80
193
368
643
610
137
-261
-233
-89
-108
-151
-142
-155
-166
-147
-160
-200
-213
-208
-205
-184
-162
-177
-204
-193
-144
-92
-65
-64
-31
64
129
115
124
191
215
179
139
71
-27
-85
-109
-156
-201
-205
-184
-156
-129
-99
-57
-7
36
74
126
249
479
734
943
1205
1501
1470
917
238
-87
-72
15
61
70
64
65
72
74
90
118
136
142
