# session 81
-7
42
88
126
178
255
336
397
429
427
407
372
295
188
85
7
-36
-56
-88
-116
-109
-103
-119
-109
-81
-98
-125
-102
-81
-107
-130
-116
-104
-116
-139
-154
-142
-114
-119
-153
-137
-55
5
-2
-40
-75
-83
-64
-60
-68
-55
-51
-57
-39
-60
-98
1
144
248
528
762
408
-192
-312
-130
-113
-156
-118
-106
-123
-108
-97
-103
-99
-88
-78
-63
-48
-36
-12
25
61
98
151
217
285
336
362
365
344
294
225
135
24
-70
-109
-124
-150
-159
-139
-135
-159
-157
-119
-88
-70
-59
-63
-62
-49
-58
-78
-66
-49
-70
-101
-96
-77
-75
-70
-22
53
86
68
45
26
0
-19
-26
-20
-6
-15
-25
-17
-52
-77
21
149
292
570
658
219
-246
-233
-70
-74
-83
-38
-44
-56
-32
-31
-45
-32
-16
-14
-1
22
29
30
51
93
140
181
226
295
360
367
341
335
313
236
143
58
-27
-78
-76
-90
-140
-153
-125
-123
-132
-108
-91
-116
-139
-125
-108
-115
-130
-136
-138
-139
-130
-127
-149
-154
-101
-51
-54
-46
7
30
3
-14
-17
-34
-44
-43
-48
-41
-35
-52
-42
-24
-66
-68
48
143
213
311
185
-201
-387
-252
-157
-185
-176
-156
-171
-169
-154
-154
-147
-130
-121
-118
-106
-79
-51
-31
4
55
91
127
199
283
329
343
341
325
290
227
144
77
31
-18
-54
-61
-62
-61
-48
-47
-70
-84
-71
-52
-41
-33
-27
-20
-12
0
14
10
-16
-46
-73
-85
-71
-53
-40
-12
14
-2
-32
-31
-24
-38
-49
-47
-44
-34
-29
-30
-14
-24
-54
39
210
322
534
776
515
-122
-349
-134
-39
-99
-87
-61
-69
-40
-10
-27
-48
-41
-23
-19
-23
-14
13
30
38
76
152
225
290
362
410
416
409
377
300
199
93
-12
-87
-125
-158
-197
-219
-212
-209
-222
-221
-201
-196
-203
-199
-196
-200
-189
-177
-174
-156
-125
-101
-44
47
124
256
501
696
774
952
1188
1063
523
12
-224
-306
-344
-351
-364
-396
-420
-426
-428
-436
-456
-495
-535
-552
-566
-610
-665
-679
-646
-596
-535
-437
-292
-124
29
134
197
246
273
251
206
174
145
112
100
110
112
104
104
116
132
142
140
134
133
132
128
121
105
94
97
92
73
59
52
40
25
15
12
12
10
15
40
64
63
57
69
75
71
80
88
81
83
84
69
89
161
206
198
179
155
121
102
95
76
52
38
38
33
20
25
21
-31
-8
129
232
400
713
665
68
-355
-267
-162
-215
-204
-173
-206
-202
-162
-161
-172
-158
-139
-132
-137
-137
-123
-103
-78
-38
14
82
156
214
255
291
306
294
270
230
156
64
-8
-54
-96
-132
-148
-156
-164
-162
-156
-163
-173
-164
-146
-148
-158
-150
-140
-144
-140
-131
-148
-174
-176
-161
-153
-151
-132
-77
-31
-42
-75
-89
-110
-142
-155
-158
-174
-191
-183
-159
-159
-165
-130
-104
-107
-37
87
197
366
430
107
-301
-316
-130
-96
-124
-96
-85
-80
-44
-31
-38
-22
5
18
35
66
102
132
156
192
241
285
335
412
483
504
496
485
444
357
253
160
84
23
-17
-30
-29
-31
-34
-34
-33
-27
-12
1
4
4
16
36
51
83
149
215
310
495
662
717
838
1072
1078
684
198
-86
-194
-251
-288
-301
-309
-333
-366
-400
-425
-442
-465
-505
-536
-543
-563
-613
-646
-632
-601
-550
-446
-313
-185
-63
39
97
113
101
71
34
2
-15
-14
-10
-11
-6
7
18
20
14
14
25
27
11
-1
-2
-5
-7
-4
-1
7
13
9
7
18
17
-5
-19
-14
-16
-29
-31
-27
-28
-31
-40
-62
-74
-57
-38
-35
-36
-38
-41
-40
-43
-42
-24
5
59
134
171
144
103
73
47
35
38
30
11
3
4
6
22
27
4
37
162
296
451
562
340
-127
-322
-175
-75
-105
-111
-101
-113
-116
-118
-128
-121
-104
-90
-74
-47
-13
12
28
60
117
168
209
262
323
374
417
443
438
411
359
280
195
124
62
5
-35
-48
-53
-69
-85
-95
-101
-88
-68
-77
-93
-85
-86
-105
-81
11
129
290
508
660
694
698
624
462
469
572
296
-240
-462
-409
-443
-496
-447
-434
-479
-477
-452
-458
-460
-445
-440
-438
-422
-401
-374
-341
-304
-255
-204
-170
-137
-88
-50
-35
-24
-25
-48
-65
-53
-40
-44
-36
-10
-1
-9
-5
7
10
12
12
-1
-13
-1
15
3
-24
-31
-20
-15
-20
-19
-2
15
11
-3
-3
3
2
10
34
42
23
15
30
36
31
46
68
60
50
102
191
223
192
173
174
148
106
85
63
22
8
29
35
37
57
29
4
110
263
418
667
687
170
-342
-321
-127
-131
-166
-127
-111
-121
-118
-98
-71
-60
-56
-31
1
27
50
63
79
113
151
189
249
318
361
378
391
393
367
316
242
155
94
51
-17
-91
-122
-125
-138
-156
-163
-148
-119
-113
-136
-141
-123
-139
-172
-155
-111
-105
-126
-129
-100
-55
-31
-51
-86
-115
-133
-131
-122
-119
-119
-128
-126
-100
-104
-113
-41
69
179
294
208
-149
-380
-277
-145
-149
-147
-117
-126
-134
-121
-119
-120
-111
-102
-89
-70
-67
-65
-31
15
44
75
129
200
271
324
345
337
305
252
179
87
-17
-100
-137
-147
-158
-164
-155
-140
-121
-99
-87
-79
-66
-59
-59
-55
-56
-74
-89
-72
-29
-7
-6
33
98
113
80
52
32
13
11
11
3
-8
-13
6
15
-23
-14
87
190
340
515
365
-110
-348
-201
-75
-93
-85
-55
-55
-46
-29
-26
-19
-6
-1
8
24
24
19
46
92
126
160
214
278
340
387
420
439
421
351
253
164
86
4
-70
-104
-107
-125
-153
-164
-160
-157
-152
-142
-137
-150
-164
-142
-103
-105
-121
-93
-49
-27
-18
-45
-109
-133
-113
-129
-158
-148
-144
-133
-89
-110
-141
-12
160
304
547
563
36
-434
-329
-110
-144
-179
-119
-114
-140
-131
-118
-102
-81
-81
-87
-61
-32
-30
-10
39
80
129
208
295
377
438
451
441
426
351
210
83
0
-67
-116
-139
-164
-200
-215
-194
-160
-156
-181
-188
-160
-127
-118
-155
-198
-163
-104
-146
-208
-137
-18
5
-23
-38
-69
-95
-64
-25
-36
-62
-33
18
-3
-17
114
286
439
672
684
152
-373
-324
-105
-146
-218
-164
-127
-133
-130
-130
-119
-85
-66
-62
-49
-31
4
54
70
87
192
307
340
383
497
563
518
437
361
274
178
81
-22
-98
-107
-91
-122
-165
-162
-148
-155
-140
-102
-97
-117
-111
-89
-105
-130
-110
-103
-140
-116
-25
24
31
40
5
-54
-62
-53
-70
-74
-67
-71
-70
-94
-102
13
141
246
534
711
268
-345
-417
-219
-209
-238
-181
-162
-172
-154
-139
-128
-104
-88
-84
-70
-53
-44
-22
22
58
87
154
235
290
338
377
374
346
304
212
96
6
-65
-129
-174
-197
-204
-205
-208
-199
-187
-190
-180
-146
-126
-123
-105
-91
-99
-93
-71
-71
-83
-73
-74
-96
-74
-6
31
20
-1
-18
-22
-18
-13
7
23
11
13
13
-18
33
170
263
451
732
591
-2
-322
-197
-120
-181
-163
-122
-137
-132
-102
-85
-64
-46
-39
-17
16
29
38
68
102
128
168
219
264
310
361
386
369
338
293
223
159
108
35
-34
-44
-30
-46
-71
-72
-65
-68
-69
-59
-49
-54
-77
-97
-91
-69
-65
-73
-59
-36
-38
-59
-62
-42
-28
-2
50
77
54
39
33
-8
-43
-40
-56
-93
-91
-80
-109
-122
-95
-115
-152
-75
50
125
236
260
-41
-383
-369
-199
-176
-200
-172
-163
-174
-162
-142
-134
-134
-132
-118
-95
-61
-24
-7
-4
20
65
115
170
225
271
308
328
315
278
222
136
28
-59
-104
-128
-145
-150
-146
-141
-131
-117
-105
-98
-99
-104
-100
-87
-78
-73
-62
-56
-62
-58
-30
-1
14
33
82
140
165
142
99
60
29
9
0
-12
-36
-47
-45
-63
-76
-52
-57
-83
-6
126
236
412
476
124
-317
-342
-140
-91
-123
-99
-67
-54
-45
-38
-24
-3
14
26
35
46
69
98
123
145
173
215
275
349
418
452
447
435
405
317
193
98
38
-24
-88
-121
-133
-143
-146
-145
-148
-148
-141
-133
-123
-116
-119
-124
-126
-133
-134
-115
-86
-33
49
133
252
464
679
827
1034
1261
1169
665
101
-218
-305
-315
-355
-401
-396
-378
-397
-419
-420
-425
-451
-485
-510
-536
-575
-602
-603
-602
-591
-530
-419
-287
-154
-25
97
194
229
203
164
123
69
24
1
-18
-28
-25
-32
-42
-38
-31
-33
-37
-35
-27
-23
-23
-18
-21
-35
-35
-24
-26
-36
-38
-33
-36
-35
-16
-2
-21
-44
-31
-9
-6
14
54
61
43
55
71
47
22
35
41
21
5
8
37
91
125
113
94
84
61
45
62
71
55
64
86
84
103
114
70
118
286
407
631
980
839
136
-264
-125
-32
-109
-103
-65
-84
-88
-76
-82
-77
-54
-48
-62
-69
-57
-34
-21
-13
16
69
116
164
232
293
319
329
320
275
204
129
51
-29
-105
-170
-205
-210
-220
-239
-230
-193
-144
-58
55
185
420
733
959
1130
1292
1169
640
71
-246
-388
-456
-470
-482
-503
-498
-479
-465
-430
-382
-382
-456
-553
-620
-652
-675
-699
-699
-652
-561
-435
-291
-152
-36
39
67
66
38
-20
-64
-58
-50
-68
-69
-44
-31
-32
-26
-16
0
23
32
25
24
40
60
68
68
68
65
66
88
104
86
61
58
65
75
90
99
106
117
117
109
106
100
87
80
79
73
60
49
41
35
35
47
60
62
57
60
71
79
77
77
88
91
78
72
81
81
64
53
58
57
41
44
97
157
169
147
130
112
81
60
51
25
9
28
31
7
0
-15
-10
84
177
299
600
711
229
-313
-315
-117
-142
-218
-188
-157
-164
-162
-156
-167
-189
-191
-170
-158
-155
-129
-80
-41
-13
29
87
152
215
266
302
328
336
312
260
203
152
97
38
-17
-65
-94
-101
-112
-139
-152
-135
-116
-113
-114
-113
-119
-128
-129
-138
-155
-152
-131
-112
-86
-55
-44
-61
-84
-107
-147
-185
-195
-199
-205
-188
-186
-208
-180
-143
-170
-134
13
129
229
297
87
-282
-365
-205
-151
-187
-167
-139
-137
-118
-93
-70
-41
-14
13
46
69
81
102
129
154
187
230
278
337
394
423
426
416
388
326
231
131
52
-12
-65
-90
-85
-77
-75
-63
-51
-49
-46
-39
-41
-42
-27
-14
-16
-23
-27
-29
-25
-12
22
68
85
68
46
19
-14
-24
-27
-59
-65
-24
-34
-92
-65
-18
-81
-84
73
213
415
721
607
-24
-401
-265
-149
-204
-190
-140
-160
-175
-142
-115
-126
-145
-130
-106
-108
-110
-85
-57
-22
39
110
181
255
319
371
424
450
421
358
274
160
42
-39
-82
-114
-138
-157
-183
-194
-172
-158
-173
-170
-144
-135
-137
-134
-141
-141
-121
-125
-149
-120
-48
-2
10
4
-31
-66
-79
-99
-131
-137
-126
-141
-166
-138
-99
-134
-138
-5
136
326
658
683
114
-386
-334
-164
-180
-184
-143
-155
-152
-122
-129
-135
-100
-70
-54
-29
-24
-27
18
99
165
215
266
329
401
460
487
477
437
378
284
165
69
3
-55
-87
-100
-122
-126
-98
-76
-69
-59
-52
-39
-15
-11
-26
-23
-4
-3
-25
-45
-39
-9
22
47
75
76
34
0
-10
-35
-69
-75
-61
-61
-80
-68
-28
-52
-102
-36
81
173
363
483
188
-243
-324
-195
-164
-164
-126
-132
-157
-141
-134
-156
-152
-126
-121
-122
-106
-88
-67
-29
22
72
123
183
249
304
338
357
353
311
245
173
95
18
-41
-78
-91
-89
-98
-119
-127
-117
-117
-142
-151
-125
-111
-128
-131
-123
-144
-156
-116
-67
-51
-38
-20
-39
-83
-108
-122
-153
-179
-183
-180
-178
-180
-174
-145
-132
-121
-28
93
168
284
314
15
-333
-324
-149
-120
-137
-87
-63
-83
-64
-7
22
22
40
74
91
95
115
149
185
222
265
310
354
404
455
489
500
492
459
391
290
175
83
31
-6
-47
-71
-69
-69
-89
-100
-88
-76
-77
-83
-93
-91
-67
-51
-62
-62
-21
29
49
41
32
31
23
1
-5
12
5
-28
-29
-24
-39
24
159
288
535
765
474
-170
-400
-195
-111
-188
-190
-169
-187
-177
-158
-170
-180
-185
-189
-169
-157
-181
-185
-143
-91
-37
20
67
125
220
309
341
337
314
233
95
-11
-56
-107
-168
-191
-196
-213
-205
-179
-180
-180
-153
-144
-173
-183
-148
-130
-170
-203
-160
-85
-52
-58
-82
-116
-136
-144
-161
-166
-158
-161
-143
-125
-168
-140
46
209
356
565
436
-133
-459
-300
-173
-216
-195
-162
-195
-186
-145
-140
-133
-109
-112
-112
-67
-14
13
47
104
168
230
293
358
435
502
526
511
459
365
250
144
57
-11
-62
-91
-96
-97
-107
-110
-99
-79
-57
-39
-30
-28
-30
-24
1
13
-13
-29
21
94
115
83
51
39
30
24
41
55
35
36
62
21
-3
119
249
368
657
796
362
-186
-255
-97
-82
-110
-96
-99
-91
-80
-102
-90
-41
-38
-60
-41
-14
2
31
56
69
94
130
175
237
292
331
365
361
299
218
139
56
-11
-47
-66
-81
-90
-97
-102
-104
-106
-110
-118
-135
-161
-174
-172
-178
-199
-217
-211
-176
-152
-192
-262
-289
-280
-297
-337
-347
-340
-361
-382
-384
-409
-410
-310
-193
-126
-53
