# session 114
-3
-2
21
44
36
33
82
135
127
90
72
61
46
54
71
57
50
65
43
41
137
257
431
682
626
111
-273
-197
-62
-95
-115
-91
-103
-114
-110
-119
-110
-83
-77
-89
-84
-62
-42
-21
17
68
118
168
213
239
251
253
230
177
102
24
-41
-96
-141
-156
-158
-179
-193
-175
-158
-142
-116
-113
-112
-63
-26
-62
-106
-105
-98
-110
-127
-139
-120
-64
-51
-106
-74
100
241
344
443
243
-243
-429
-214
-97
-165
-162
-111
-117
-127
-125
-129
-117
-94
-85
-74
-53
-42
-18
52
133
186
242
325
392
403
368
292
174
62
-9
-82
-172
-214
-184
-164
-197
-216
-190
-166
-155
-140
-119
-72
5
56
52
32
15
-17
-49
-40
-19
-31
-33
-22
-61
-43
121
272
395
570
469
-27
-338
-211
-87
-126
-118
-75
-80
-75
-61
-78
-78
-44
-23
-16
6
35
60
95
141
187
242
306
347
353
347
330
280
210
137
63
7
-27
-58
-75
-77
-98
-123
-94
-28
38
124
266
500
793
1035
1256
1546
1687
1348
638
-16
-394
-545
-572
-573
-608
-648
-659
-659
-671
-694
-726
-755
-772
-794
-819
-815
-781
-726
-619
-447
-264
-109
15
99
132
128
103
76
55
25
-6
-12
-8
-25
-53
-57
-47
-52
-73
-80
-59
-44
-58
-73
-64
-58
-63
-59
-58
-74
-65
-27
-6
23
83
87
13
-20
18
36
25
18
6
-4
-22
-37
34
143
214
395
591
368
-131
-300
-151
-87
-107
-72
-46
-55
-46
-33
-32
-23
-1
21
40
57
73
93
134
193
236
263
302
344
368
372
359
335
298
240
177
130
100
76
64
61
48
41
75
123
144
180
263
381
564
762
872
1028
1298
1284
766
163
-157
-281
-339
-352
-365
-393
-408
-423
-448
-468
-477
-491
-521
-558
-586
-601
-604
-587
-537
-452
-339
-212
-96
-8
51
76
60
22
-15
-53
-90
-110
-120
-127
-126
-120
-117
-111
-107
-114
-122
-127
-132
-131
-130
-142
-149
-140
-152
-177
-165
-119
-76
-30
16
13
-33
-59
-51
-31
-20
-32
-21
17
-7
-10
143
290
398
673
773
269
-282
-270
-74
-84
-124
-115
-129
-121
-98
-95
-86
-90
-109
-77
-21
-11
-17
18
89
155
206
268
336
371
376
364
314
233
146
66
1
-43
-76
-93
-83
-61
-63
-79
-58
-19
-27
-35
29
100
107
84
48
1
-24
-19
-19
-40
-54
-30
-30
-71
-2
169
283
415
523
259
-216
-326
-136
-78
-126
-100
-62
-70
-85
-83
-61
-42
-46
-44
-21
-4
13
51
93
133
204
287
329
345
363
337
258
191
133
46
-30
-66
-104
-144
-154
-155
-175
-183
-151
-128
-156
-174
-122
-57
-41
-45
-59
-100
-146
-158
-148
-161
-183
-151
-134
-193
-167
-33
54
245
566
467
-102
-406
-286
-216
-251
-218
-190
-197
-180
-174
-180
-161
-151
-158
-141
-108
-87
-67
-35
22
90
137
171
217
251
248
220
178
121
56
-4
-33
-36
-42
-43
-25
-27
-39
-14
19
36
99
205
336
570
822
909
1010
1280
1306
822
240
-107
-312
-428
-437
-440
-479
-497
-497
-515
-539
-554
-567
-591
-623
-649
-658
-645
-596
-501
-373
-233
-89
49
152
201
212
201
172
131
93
73
76
76
55
38
56
92
103
79
56
69
88
73
51
52
43
16
3
3
1
5
13
29
74
108
92
71
69
47
31
63
73
37
49
94
66
40
122
230
352
483
364
-39
-273
-162
-37
-42
-39
-14
-27
-44
-34
-30
-40
-35
-15
-5
3
19
30
47
82
109
125
155
189
208
209
191
158
121
73
10
-48
-85
-99
-103
-106
-116
-132
-130
-97
-58
-24
44
156
308
527
742
861
1035
1329
1362
880
207
-253
-450
-511
-524
-518
-511
-532
-562
-563
-561
-586
-622
-655
-680
-701
-732
-759
-753
-715
-639
-496
-320
-177
-65
45
115
113
74
41
19
-7
-26
-18
-2
-3
4
29
43
48
58
66
84
113
120
108
102
93
81
86
85
50
20
39
97
154
167
135
100
81
62
62
81
85
102
123
83
102
254
378
547
858
805
185
-250
-136
1
-56
-64
-34
-63
-58
-20
-32
-52
-33
-18
-6
22
28
29
79
143
186
233
283
321
351
356
319
264
206
132
37
-47
-90
-110
-136
-159
-168
-181
-191
-182
-175
-183
-179
-136
-74
-49
-85
-136
-160
-175
-194
-188
-184
-205
-183
-142
-174
-147
26
140
212
387
319
-145
-425
-287
-177
-232
-229
-182
-187
-191
-169
-156
-151
-145
-132
-103
-75
-60
-31
23
74
135
229
306
329
337
340
295
216
143
64
-14
-51
-65
-90
-106
-102
-101
-103
-92
-82
-82
-85
-74
-30
18
7
-50
-80
-85
-96
-93
-75
-77
-74
-48
-55
-44
73
184
280
495
560
169
-248
-243
-96
-99
-115
-88
-102
-129
-126
-116
-106
-95
-87
-65
-32
-2
26
60
104
155
213
267
304
320
334
334
287
217
162
104
40
12
17
15
2
-15
-38
-33
11
68
130
188
282
503
750
852
969
1207
1174
673
124
-170
-328
-425
-433
-421
-446
-478
-492
-501
-514
-527
-538
-557
-585
-614
-639
-642
-609
-559
-489
-367
-217
-93
-3
57
83
83
74
55
34
23
19
20
23
27
32
31
25
20
17
6
-11
-23
-33
-46
-56
-65
-82
-101
-107
-92
-76
-83
-78
-31
11
-1
-36
-53
-55
-56
-48
-41
-44
-28
-8
-35
-35
70
182
272
372
269
-104
-326
-200
-61
-72
-78
-60
-79
-95
-89
-86
-69
-37
-22
-14
8
31
52
90
150
223
302
368
419
460
474
449
411
372
308
228
163
113
68
38
26
10
-14
-23
-4
26
60
134
250
405
648
930
1094
1246
1581
1772
1336
499
-114
-339
-403
-438
-457
-470
-488
-503
-502
-510
-561
-612
-621
-632
-678
-731
-770
-780
-744
-667
-548
-393
-234
-102
-4
71
113
94
31
-5
-16
-48
-77
-71
-71
-85
-78
-60
-65
-73
-66
-65
-76
-85
-89
-94
-108
-135
-146
-126
-123
-156
-160
-106
-36
5
-1
-29
-35
-35
-45
-33
-17
-14
12
10
-22
69
227
325
562
819
532
-101
-305
-126
-78
-132
-111
-97
-110
-90
-74
-88
-93
-77
-49
-22
-16
-28
-10
52
121
177
230
274
303
319
319
302
258
175
84
22
-8
-21
-37
-59
-59
-50
-63
-64
-13
28
12
14
77
112
67
21
22
19
-12
-23
-3
-2
-26
-19
-13
-47
-26
74
175
302
360
112
-258
-325
-167
-103
-132
-141
-129
-101
-83
-101
-108
-87
-83
-81
-57
-45
-39
1
51
82
125
182
223
248
255
237
205
150
61
-16
-46
-68
-96
-98
-95
-111
-113
-102
-106
-81
-25
-20
-44
-3
62
65
32
15
8
-2
3
19
16
4
15
19
14
55
119
219
387
379
38
-262
-220
-96
-108
-138
-113
-98
-108
-119
-119
-107
-90
-61
-36
-40
-52
-35
-5
18
56
115
168
210
239
252
254
229
163
88
41
9
-23
-49
-72
-92
-101
-108
-122
-121
-99
-89
-91
-51
43
127
171
215
322
485
612
709
919
1155
1049
524
-37
-334
-426
-453
-464
-473
-490
-508
-512
-502
-508
-546
-589
-619
-654
-696
-736
-763
-763
-730
-665
-559
-420
-265
-105
25
95
125
122
85
60
67
57
21
12
28
38
50
60
50
45
66
79
65
60
78
78
54
58
106
161
218
270
264
214
193
195
191
186
159
137
145
111
97
213
336
474
743
742
189
-271
-178
-6
-60
-88
-38
-57
-89
-62
-42
-58
-62
-39
-22
-24
-20
14
64
116
177
244
300
350
390
393
356
298
208
98
29
-5
-58
-114
-127
-115
-116
-122
-114
-89
-71
-58
30
195
328
470
696
847
932
1252
1662
1608
1006
287
-225
-458
-512
-544
-579
-578
-576
-586
-591
-609
-632
-662
-736
-805
-820
-851
-890
-850
-773
-706
-576
-386
-229
-105
18
94
102
77
64
78
73
24
-2
20
22
2
11
29
24
14
2
-16
-17
0
1
-29
-47
-21
1
-30
-51
13
92
83
33
26
28
-2
-24
-17
-14
-17
-13
-23
-27
35
110
179
375
527
240
-245
-353
-196
-163
-179
-125
-108
-121
-95
-77
-79
-59
-39
-48
-43
9
61
82
110
164
227
292
342
363
378
397
381
318
243
174
118
81
55
35
22
4
-11
-2
27
52
63
54
40
55
82
68
23
-5
-14
-23
-29
-28
-29
-32
-35
-55
-55
9
95
199
327
266
-73
-320
-242
-105
-93
-99
-91
-93
-78
-63
-71
-62
-41
-36
-17
6
4
20
79
125
151
201
257
286
295
289
262
211
128
37
-24
-55
-78
-97
-114
-133
-143
-147
-154
-142
-117
-120
-140
-120
-73
-60
-83
-104
-125
-154
-164
-148
-153
-169
-143
-139
-178
-112
29
99
242
429
234
-241
-394
-234
-182
-224
-204
-187
-195
-186
-195
-222
-215
-185
-163
-136
-101
-81
-59
3
80
138
205
288
335
342
347
332
254
146
66
14
-27
-42
-45
-69
-92
-100
-103
-77
-32
-8
53
207
407
633
842
960
1136
1486
1621
1164
403
-157
-413
-492
-486
-481
-493
-480
-482
-534
-566
-561
-585
-627
-652
-685
-728
-757
-760
-717
-619
-493
-352
-187
-8
142
216
209
176
168
163
131
89
59
31
16
27
33
20
16
27
30
26
34
47
49
41
19
-4
9
37
15
-20
31
133
170
137
99
74
62
76
95
79
59
76
64
35
128
289
443
756
992
598
-89
-259
-53
-22
-88
-69
-75
-88
-44
-50
-105
-82
-30
-48
-70
-37
4
29
61
108
172
227
246
258
281
275
231
181
119
33
-49
-103
-125
-119
-127
-171
-181
-126
-88
-85
-47
18
85
185
303
417
569
725
836
980
1113
980
536
64
-244
-399
-450
-457
-473
-482
-474
-484
-520
-555
-578
-592
-626
-686
-722
-706
-691
-701
-675
-571
-420
-269
-137
-30
27
31
28
38
9
-52
-71
-52
-59
-70
-41
-14
-27
-40
-18
6
-2
-16
-2
20
11
-12
4
42
45
30
50
87
101
82
43
19
20
22
32
49
48
49
58
42
63
162
265
367
431
246
-121
-259
-120
-22
-28
-8
10
-12
-9
19
16
6
29
49
50
70
111
135
153
189
232
270
308
352
386
379
342
309
271
199
122
76
51
29
22
28
23
3
8
55
88
67
67
141
204
207
220
273
338
443
573
668
785
942
944
655
234
-94
-257
-298
-303
-327
-356
-365
-371
-383
-400
-431
-465
-493
-528
-558
-566
-586
-622
-617
-569
-506
-410
-282
-180
-113
-50
-9
-23
-55
-68
-80
-102
-118
-133
-141
-128
-120
-142
-160
-152
-153
-180
-198
-187
-171
-173
-174
-131
-61
-31
-49
-67
-78
-96
-85
-46
-58
-86
-34
-12
-65
34
247
343
525
797
556
-109
-340
-110
-29
-107
-91
-60
-69
-56
-52
-69
-57
-30
-18
0
27
38
58
126
209
258
305
374
427
451
456
420
335
231
127
43
-5
-36
-66
-75
-61
-62
-89
-81
-9
61
104
194
339
506
712
899
994
1150
1458
1564
1141
439
-90
-323
-387
-401
-427
-455
-454
-457
-484
-500
-518
-573
-620
-627
-655
-720
-758
-756
-745
-704
-599
-453
-301
-148
-7
81
113
123
119
93
73
71
65
46
38
47
48
42
46
50
47
55
60
42
24
18
17
18
-4
-38
-15
57
91
78
69
72
66
50
38
28
29
60
62
-1
19
159
260
443
793
764
135
-339
-267
-141
-189
-197
-157
-163
-165
-144
-139
-141
-132
-115
-99
-79
-51
-22
5
51
117
173
213
257
300
309
283
238
169
80
4
-48
-86
-115
-133
-148
-169
-173
-140
-105
-111
-118
-79
-33
-30
-51
-77
-120
-151
-132
-110
-134
-159
-136
-125
-144
-87
34
125
242
310
75
-287
-331
-149
-110
-176
-164
-129
-136
-145
-148
-148
-125
-101
-97
-85
-56
-31
5
60
108
157
223
277
295
287
253
199
143
87
27
-18
-41
-55
-57
-52
-58
-56
-20
19
22
21
59
101
103
74
43
17
2
3
9
3
-1
23
38
24
56
139
235
397
477
211
-170
-223
-60
1
-2
25
22
-6
1
31
42
38
45
64
77
91
117
131
137
172
229
277
316
346
353
335
293
228
155
88
32
-10
-38
-61
-84
-109
-133
-131
-89
-48
-21
39
142
289
491
660
754
905
1055
892
417
-28
-280
-407
-460
-474
-493
-512
-525
-546
-576
-611
-660
-704
-722
-754
-820
-860
-855
-847
-813
-711
-569
-416
-248
-98
3
63
75
51
23
-6
-40
-45
-29
-32
-45
-44
-44
-45
-38
-33
-36
-35
-28
-33
-48
-50
-25
3
-8
-35
-4
86
145
129
81
49
35
36
64
85
68
60
66
81
184
321
422
658
868
543
-63
-218
-26
9
-53
-28
-17
-48
-43
-30
-28
-9
-6
-37
-47
-18
18
58
110
160
213
282
349
394
412
405
374
315
222
121
52
11
-24
-47
-64
-86
-80
-45
-39
-45
10
121
239
345
452
597
781
975
1243
1568
1623
1158
439
-98
-344
-424
-454
-485
-499
-476
-469
-507
-537
-540
-568
-615
-644
-667
-703
-726
-730
-723
-670
-551
-408
-277
-146
-21
56
76
65
46
31
22
10
0
6
22
28
25
25
23
12
14
30
12
-27
-14
14
-24
-63
-9
72
92
71
42
13
4
6
-4
-4
15
26
