# session 35
52
27
-42
-143
-222
-261
-290
-316
-334
-351
-351
-332
-328
-329
-289
-232
-185
-128
-59
50
283
584
798
1039
1498
1811
1417
528
-121
-292
-271
-246
-239
-262
-297
-316
-342
-374
-385
-387
-402
-430
-460
-482
-486
-485
-490
-472
-396
-270
-124
26
175
302
382
419
405
312
202
170
178
141
89
66
28
-30
-83
-166
-279
-326
-297
-269
-240
-179
-137
-136
-121
-92
-105
-170
-254
-338
-411
-474
-538
-594
-609
-570
-490
-405
-342
-281
-218
-188
-180
-149
-113
-94
-62
-12
23
41
58
70
73
75
77
86
112
138
129
123
177
257
288
276
254
232
221
224
230
235
226
198
202
229
203
189
285
418
594
833
779
260
-170
-134
10
-9
-46
-39
-39
-39
-50
-74
-68
-44
-42
-38
-18
-6
3
26
55
83
119
159
190
219
257
287
294
290
283
262
221
169
120
80
54
38
27
10
-4
2
22
39
80
152
232
376
611
808
941
1079
1018
561
-11
-328
-417
-430
-409
-390
-399
-386
-345
-338
-378
-425
-463
-502
-544
-578
-601
-618
-633
-628
-579
-497
-398
-276
-145
-39
45
116
131
85
58
70
49
-12
-44
-41
-34
-31
-28
-27
-29
-31
-27
-18
-19
-32
-39
-44
-60
-74
-65
-46
-49
-71
-82
-77
-72
-75
-80
-83
-94
-103
-95
-79
-71
-63
-45
-39
-46
-34
2
24
24
23
23
22
28
39
51
69
73
49
25
20
29
47
41
3
2
64
109
112
100
57
2
-6
15
13
-9
-30
-23
-3
-37
-39
122
307
445
657
657
144
-355
-325
-141
-160
-184
-126
-120
-147
-137
-116
-106
-101
-93
-83
-76
-59
-16
30
53
70
105
151
202
252
293
322
339
335
303
264
243
211
132
45
2
-27
-60
-63
-53
-56
-49
-43
-51
-25
45
115
195
315
488
729
977
1161
1387
1672
1644
1061
314
-120
-267
-348
-416
-459
-480
-491
-518
-568
-595
-584
-589
-645
-705
-715
-722
-768
-797
-791
-794
-763
-634
-466
-325
-184
-36
63
88
78
66
48
13
-17
-33
-44
-52
-46
-36
-31
-23
-8
5
8
11
27
36
20
4
19
40
38
29
32
46
50
24
-1
15
23
-20
-41
-14
-14
-49
-56
-46
-53
-57
-68
-111
-127
-90
-72
-88
-88
-69
-23
48
70
36
35
72
78
63
53
40
39
48
50
65
68
54
126
280
443
654
719
333
-171
-239
-50
-14
-50
-21
-11
-28
-13
-3
-20
-30
-19
-2
8
5
15
50
78
92
128
179
214
254
310
336
328
327
301
225
170
159
140
98
47
-3
-21
-23
-39
-36
-6
-4
-16
-7
-7
-9
20
45
64
129
214
300
414
514
623
838
960
688
183
-162
-286
-340
-384
-411
-417
-406
-398
-401
-407
-420
-441
-464
-494
-532
-565
-587
-607
-620
-600
-532
-435
-324
-195
-64
47
134
190
194
157
119
93
71
50
39
35
26
19
26
36
39
41
35
20
17
24
21
18
23
15
-4
-22
-56
-84
-72
-68
-110
-100
-50
-96
-98
26
-123
-554
-583
-167
26
-68
-80
-29
-12
44
102
86
42
33
53
60
38
28
39
28
28
72
70
44
162
358
523
772
882
425
-201
-303
-91
-55
-102
-75
-76
-117
-125
-113
-98
-71
-54
-57
-68
-69
-36
15
44
63
111
164
200
260
353
412
422
435
441
404
353
304
219
125
76
47
-3
-49
-72
-87
-89
-81
-99
-126
-107
-75
-104
-146
-109
-28
34
129
313
528
666
691
587
336
127
186
261
-14
-371
-416
-323
-343
-380
-363
-367
-391
-391
-394
-416
-427
-418
-416
-424
-423
-411
-393
-358
-309
-254
-188
-113
-46
4
41
64
68
59
40
11
-19
-36
-37
-32
-29
-33
-42
-32
14
58
81
126
208
306
487
767
973
1102
1404
1741
1573
844
113
-265
-396
-442
-455
-469
-483
-477
-466
-485
-521
-540
-537
-541
-575
-644
-731
-791
-803
-789
-744
-640
-494
-337
-166
9
144
229
284
306
284
237
197
176
163
147
141
147
153
154
156
159
167
179
183
176
169
171
169
156
152
158
150
131
128
130
120
116
110
84
62
53
41
40
54
43
12
8
33
49
43
34
34
30
27
35
35
22
32
56
55
30
9
-3
-14
-28
-24
-1
1
-25
-21
25
48
15
-27
-44
-49
-49
-31
-18
-38
-35
0
-15
-36
69
235
391
548
472
35
-309
-237
-81
-96
-122
-89
-94
-116
-101
-91
-103
-102
-97
-103
-101
-88
-79
-69
-55
-42
-14
25
47
67
104
135
144
147
144
119
72
23
-9
-34
-66
-97
-117
-125
-117
-109
-121
-125
-98
-83
-103
-114
-97
-68
-42
-36
-51
-35
20
45
21
-6
-26
-51
-66
-76
-88
-83
-73
-81
-73
-56
-75
-53
63
192
349
469
248
-218
-378
-185
-67
-98
-92
-59
-53
-48
-44
-47
-45
-36
-14
15
18
20
53
68
47
54
108
158
199
258
319
359
371
346
284
206
124
35
-44
-84
-97
-125
-160
-160
-149
-159
-162
-144
-145
-171
-180
-160
-139
-147
-167
-145
-83
-50
-54
-48
-50
-90
-111
-86
-77
-79
-54
-38
-28
-11
-47
-40
135
314
471
759
781
192
-351
-301
-109
-125
-145
-117
-134
-147
-142
-147
-142
-145
-161
-140
-106
-104
-100
-85
-81
-47
38
116
175
242
297
333
363
359
300
219
124
20
-48
-69
-87
-118
-141
-135
-93
-33
45
136
258
510
844
1054
1256
1627
1705
1071
238
-168
-265
-355
-436
-478
-521
-539
-528
-543
-579
-586
-587
-616
-650
-687
-744
-787
-790
-777
-745
-666
-534
-368
-193
-27
110
192
225
249
264
251
218
176
146
153
167
156
141
132
126
125
111
81
76
99
103
91
87
83
86
111
116
78
61
87
88
59
51
47
27
22
34
29
11
-2
-17
-33
-47
-70
-91
-87
-73
-81
-89
-53
17
64
62
31
4
-2
2
2
4
-3
-4
25
17
-22
79
259
376
611
836
489
-186
-375
-174
-150
-230
-193
-171
-205
-203
-201
-226
-217
-179
-163
-159
-133
-99
-85
-80
-64
-35
7
75
167
234
255
279
308
297
256
212
149
82
48
24
-15
-51
-65
-57
-46
-54
-73
-77
-79
-77
-60
-51
-67
-73
-41
5
34
38
14
-21
-36
-26
-19
-15
2
22
38
34
-55
-178
-151
4
141
363
596
392
-144
-358
-211
-151
-196
-170
-142
-161
-164
-149
-141
-139
-127
-112
-105
-80
-34
-13
-12
18
58
91
152
236
302
340
355
348
321
271
192
107
41
-6
-44
-72
-95
-117
-129
-127
-120
-117
-119
-119
-117
-115
-100
-70
-57
-61
-34
18
35
14
-9
-28
-36
-28
-28
-33
-27
-24
-18
-12
-46
-55
53
193
336
524
468
-1
-389
-334
-174
-176
-196
-174
-175
-178
-167
-165
-163
-155
-150
-145
-135
-122
-102
-74
-47
-23
15
74
129
172
230
292
319
310
279
228
174
128
75
26
-3
-27
-50
-60
-61
-65
-67
-68
-72
-76
-82
-88
-77
-56
-58
-68
-38
14
24
-7
-31
-41
-47
-55
-58
-33
-4
-13
-9
18
-7
-4
123
249
425
760
791
215
-303
-261
-82
-97
-127
-97
-93
-101
-101
-96
-71
-44
-44
-57
-49
-30
-18
3
38
54
70
134
219
273
313
348
356
339
300
214
107
18
-57
-122
-157
-175
-202
-227
-235
-238
-240
-228
-218
-229
-247
-231
-177
-156
-183
-162
-72
-16
-15
-22
-52
-92
-93
-85
-85
-61
-61
-90
-72
-69
-102
15
237
401
643
777
327
-313
-393
-158
-130
-155
-92
-104
-146
-109
-89
-116
-103
-89
-128
-141
-91
-65
-83
-70
-26
-4
28
109
200
265
318
365
380
344
261
161
81
25
-16
-57
-88
-93
-85
-93
-104
-94
-78
-81
-90
-98
-98
-75
-49
-57
-70
-37
24
67
78
58
29
20
21
15
21
26
2
7
40
-4
-36
87
231
397
735
836
312
-251
-279
-124
-131
-147
-131
-178
-214
-176
-130
-125
-145
-154
-126
-98
-105
-112
-80
-38
-3
52
111
141
168
219
270
294
285
244
173
87
10
-46
-81
-109
-143
-161
-152
-142
-146
-141
-126
-123
-126
-122
-114
-94
-67
-59
-59
-32
10
23
-1
-42
-63
-49
-30
-35
-49
-56
-54
-46
-65
-95
-36
87
194
366
488
214
-272
-411
-245
-176
-204
-179
-160
-177
-166
-133
-109
-95
-96
-98
-81
-66
-58
-36
-2
41
90
121
158
234
298
320
359
396
364
293
236
175
106
60
31
1
-24
-40
-53
-63
-73
-80
-83
-87
-81
-42
36
166
323
424
520
748
981
987
828
625
307
-67
-286
-326
-313
-306
-313
-331
-337
-331
-336
-342
-350
-389
-440
-467
-490
-541
-577
-573
-554
-522
-451
-362
-273
-158
-35
47
100
155
165
113
79
96
97
62
42
43
41
42
49
51
58
76
75
48
37
59
74
58
36
30
30
35
48
45
16
-5
-10
0
25
26
-10
-23
-2
2
-1
5
-3
13
99
168
145
96
96
105
77
60
83
82
58
80
69
8
112
327
422
616
905
636
-101
-380
-166
-110
-202
-173
-136
-158
-145
-117
-119
-136
-141
-111
-72
-71
-85
-79
-56
-14
45
83
103
162
251
303
318
350
370
291
143
46
14
-37
-103
-133
-141
-153
-155
-150
-153
-162
-170
-168
-149
-131
-139
-172
-185
-162
-157
-179
-153
-74
-18
-10
-38
-72
-68
-63
-103
-98
-31
-30
-77
-56
-44
-62
50
237
366
556
653
269
-279
-368
-163
-117
-163
-138
-118
-126
-113
-113
-148
-163
-126
-88
-95
-103
-73
-50
-45
-8
50
93
154
258
351
391
388
353
297
224
121
1
-70
-85
-115
-168
-194
-196
-198
-196
-191
-190
-180
-163
-163
-175
-176
-167
-156
-142
-139
-150
-128
-51
10
6
-27
-45
-48
-56
-71
-56
-8
-5
-44
-55
-78
-91
36
192
321
624
788
293
-364
-432
-208
-199
-258
-229
-215
-211
-181
-165
-150
-108
-61
-65
-98
2
88
-282
-791
-608
44
309
255
350
475
465
474
525
497
394
303
256
216
157
120
118
110
103
126
156
180
225
313
406
484
644
913
1116
1267
1559
1724
1329
652
251
119
17
-45
-50
-64
-75
-64
-63
-76
-82
-89
-111
-144
-174
-198
-226
-239
-219
-230
-323
-398
-319
-138
-34
-48
-55
-33
-124
-389
-749
-1068
-1162
-1002
-830
-770
-702
-593
-516
-461
-402
-363
-363
-445
-648
-961
-1315
-1520
-1431
-1186
-986
-836
-696
-584
-480
-365
-270
-206
-152
-91
-22
34
71
107
152
199
224
219
232
290
331
324
323
364
417
445
430
390
371
376
368
356
366
368
358
371
362
327
395
553
683
852
966
692
211
73
240
307
257
242
234
219
232
241
223
212
221
237
242
233
223
227
243
257
256
245
261
314
370
403
425
445
447
426
392
353
300
236
180
143
100
48
15
-9
-61
-111
-118
-74
14
102
175
316
498
601
713
832
613
42
-388
-512
-585
-678
-717
-752
-804
-827
-836
-860
-895
-930
-949
-947
-941
-933
-913
-894
-877
-837
-766
-669
-534
-360
-185
-33
96
175
184
163
154
154
138
103
75
77
95
103
108
111
98
77
73
80
76
72
87
96
74
64
86
87
52
51
81
77
53
68
95
86
75
89
88
64
56
66
58
26
3
20
50
39
12
41
114
160
163
144
118
113
119
115
117
120
107
122
130
76
113
293
443
665
976
809
88
-338
-195
-64
-123
-127
-102
-138
-166
-159
-146
-137
-142
-150
-133
-107
-96
-89
-76
-56
-18
42
100
150
205
254
286
311
322
305
271
225
157
82
29
-11
-53
-83
-96
-108
-121
-125
-129
-131
-123
-123
-144
-165
-177
-174
-157
-161
-196
-183
-99
-36
-45
-84
-113
-111
-88
-89
-100
-81
-71
-67
-22
-25
-54
82
286
431
729
919
433
-251
-319
-94
-108
-149
-107
-162
-213
-165
-164
-207
-189
-153
-151
-142
-121
-102
-67
-24
-8
7
70
156
219
269
319
342
322
271
194
94
-4
-77
-131
-175
-207
-223
-227
-225
-222
-218
-204
-183
-166
-159
-158
-149
-124
-109
-122
-131
-89
-21
17
18
-5
-44
-56
-35
-43
-67
-52
-50
-67
-33
-12
-25
71
231
375
607
661
177
-351
-334
-130
-160
-211
-160
-163
-193
-159
-127
-131
-118
-89
-80
-63
-32
-31
-37
7
63
84
123
202
264
304
355
393
392
368
323
245
154
84
31
-26
-78
-94
-85
-82
-63
16
108
204
429
752
997
1265
1623
1610
963
222
-121
-221
-299
-342
-364
-404
-425
-423
-438
-458
-462
-483
-535
-578
-599
-629
-658
-654
-632
-602
-525
-396
-260
-145
-34
69
126
136
141
130
74
20
16
28
18
2
6
26
31
7
-11
-11
-16
-8
14
2
-27
-14
2
-27
-51
-36
-31
-41
-27
-10
-17
-21
-8
1
7
20
30
31
36
48
56
57
54
44
28
28
48
52
28
30
80
120
122
108
77
36
18
21
22
18
17
27
29
5
24
127
262
419
482
213
-221
-351
-185
-87
-108
-99
-81
-91
-82
-57
-47
-43
-39
-47
-49
-35
-18
-3
16
33
54
98
145
174
209
259
293
302
303
289
258
223
179
116
54
16
-7
-37
-70
-90
-91
-88
-88
-86
-89
-106
-121
-112
-102
-113
-123
-107
-65
-32
-63
-158
-232
-227
-189
-170
-167
-156
-137
-121
-110
-94
-68
