# session 76
-21
-32
-21
2
16
20
29
42
48
47
49
49
24
-17
-25
-8
-33
-79
-56
21
70
70
46
24
28
28
11
23
40
22
32
46
-4
27
194
336
595
989
878
142
-331
-211
-66
-103
-115
-113
-139
-118
-90
-98
-89
-71
-82
-79
-44
-23
-20
0
47
107
170
235
305
358
366
344
314
265
171
47
-56
-110
-130
-149
-179
-216
-247
-261
-262
-253
-232
-206
-193
-200
-193
-161
-143
-161
-161
-107
-45
-31
-57
-88
-103
-114
-132
-132
-101
-93
-116
-99
-80
-106
-54
73
174
405
681
461
-161
-420
-244
-155
-212
-202
-160
-153
-146
-134
-126
-119
-100
-61
-29
-14
19
69
120
181
244
313
403
475
486
466
440
375
267
151
62
6
-39
-80
-101
-111
-116
-107
-95
-90
-73
-51
-45
-58
-82
-106
-109
-96
-93
-96
-80
-40
-3
0
-26
-44
-37
-26
-21
-13
-17
-30
-2
31
-5
-15
85
189
332
584
582
110
-303
-278
-139
-131
-127
-96
-92
-88
-81
-86
-72
-50
-46
-36
-4
13
9
22
60
106
154
207
263
307
322
310
279
209
99
-4
-72
-124
-175
-206
-216
-222
-230
-232
-230
-229
-223
-213
-210
-211
-209
-201
-178
-152
-150
-148
-105
-62
-64
-83
-96
-103
-103
-106
-106
-93
-97
-104
-72
-71
-93
8
158
273
521
680
268
-336
-420
-196
-159
-205
-169
-147
-155
-152
-163
-155
-108
-78
-81
-64
-31
-15
8
73
147
205
284
394
470
486
486
464
373
250
161
83
3
-31
-30
-44
-43
-18
-11
5
50
81
136
256
374
531
809
1068
1275
1615
1876
1555
734
17
-309
-407
-451
-478
-493
-497
-497
-515
-550
-578
-600
-642
-701
-741
-775
-824
-841
-797
-724
-601
-397
-200
-65
70
185
194
147
138
124
55
8
30
44
15
-5
-8
-26
-41
-29
-12
-12
-18
-16
-21
-27
-24
-29
-32
-12
-3
-26
-42
-49
-69
-70
-55
-61
-72
-59
-44
-46
-58
-75
-87
-71
-44
-53
-76
-35
55
102
82
46
29
25
14
13
27
13
-1
28
12
-23
104
284
408
686
874
427
-225
-311
-98
-106
-172
-129
-124
-161
-140
-108
-114
-116
-101
-91
-77
-52
-46
-45
-3
69
136
200
260
303
320
317
307
269
183
94
45
-1
-69
-117
-131
-142
-160
-157
-131
-112
-109
-90
-56
-48
-70
-75
-30
52
136
264
496
721
778
703
548
365
408
652
547
3
-357
-336
-304
-348
-338
-328
-351
-342
-325
-335
-343
-340
-343
-341
-317
-277
-245
-230
-202
-148
-106
-88
-62
-30
-11
-2
-5
-4
17
23
-9
-29
-12
-3
-9
8
48
109
176
213
304
538
743
846
1090
1347
1103
428
-98
-287
-341
-371
-378
-375
-375
-383
-395
-405
-414
-434
-471
-498
-492
-494
-523
-534
-492
-400
-266
-105
50
175
256
290
281
242
194
146
95
56
36
22
14
15
1
-17
-8
2
-10
-20
-29
-42
-33
-16
-26
-34
-23
-29
-50
-45
-29
-33
-38
-28
-28
-40
-34
-10
6
8
4
6
19
28
26
19
15
24
43
45
22
6
19
38
40
29
19
16
28
53
59
45
58
98
106
66
31
23
18
14
18
11
2
30
43
13
58
197
325
485
583
298
-193
-329
-142
-58
-90
-71
-50
-62
-55
-42
-43
-28
6
31
40
53
74
93
113
149
197
243
280
311
338
348
331
291
233
163
88
21
-31
-74
-109
-126
-136
-154
-155
-131
-130
-162
-171
-157
-169
-200
-206
-195
-197
-209
-203
-160
-106
-91
-124
-156
-156
-149
-155
-138
-98
-105
-132
-104
-98
-128
-17
175
301
530
713
324
-324
-445
-198
-149
-213
-181
-155
-165
-151
-136
-138
-138
-130
-113
-89
-65
-39
-18
13
77
155
239
344
426
428
390
347
274
166
44
-73
-145
-170
-197
-228
-241
-246
-237
-201
-176
-178
-167
-131
-105
-102
-115
-119
-77
-6
50
79
68
12
-29
-20
-26
-49
-34
-29
-67
-63
-42
-71
-14
163
296
453
628
411
-140
-363
-177
-71
-112
-99
-73
-85
-72
-48
-55
-57
-33
-14
-10
-1
25
58
89
132
209
298
363
415
445
426
381
331
248
140
43
-42
-104
-119
-116
-141
-165
-150
-130
-131
-109
-62
-38
-20
34
139
335
588
806
1133
1705
2052
1600
651
-52
-335
-453
-518
-534
-535
-531
-524
-530
-539
-538
-538
-554
-578
-601
-622
-650
-670
-654
-594
-498
-368
-214
-65
52
122
140
111
59
13
-16
-40
-65
-75
-61
-53
-74
-92
-84
-78
-84
-87
-93
-103
-89
-58
-56
-80
-89
-79
-56
-33
-28
-27
-5
13
2
-13
-13
-7
11
25
1
-35
-15
59
119
125
90
49
34
33
30
52
80
77
81
77
38
78
204
304
496
712
482
-97
-331
-169
-92
-137
-112
-72
-71
-61
-46
-36
-21
-3
14
34
50
66
91
122
165
216
258
293
340
380
375
339
313
282
212
135
90
43
-24
-59
-57
-65
-74
-63
-63
-66
-45
-39
-74
-100
-88
-60
-42
-54
-53
26
108
104
97
142
185
274
420
490
580
915
1229
1056
492
-5
-253
-342
-360
-361
-367
-369
-370
-380
-391
-395
-404
-422
-447
-480
-513
-544
-571
-587
-575
-533
-462
-361
-237
-125
-47
7
40
30
-14
-57
-89
-113
-128
-138
-149
-160
-158
-144
-137
-140
-135
-119
-115
-122
-118
-97
-78
-80
-93
-92
-64
-30
-23
-25
15
82
108
95
78
61
55
64
64
59
57
57
82
96
79
154
314
438
652
879
610
-37
-292
-91
17
-47
-70
-64
-74
-74
-67
-47
-18
-19
-32
-17
18
66
118
150
179
238
315
399
487
540
540
511
453
365
284
202
90
4
-18
-44
-86
-87
-59
-67
-105
-108
-54
-16
-7
55
185
373
630
851
1038
1377
1672
1412
670
18
-308
-444
-500
-533
-567
-572
-566
-591
-627
-648
-677
-707
-729
-767
-826
-868
-877
-864
-814
-698
-525
-339
-181
-49
58
112
100
54
12
-15
-32
-45
-53
-51
-43
-37
-33
-27
-22
-24
-26
-25
-28
-28
-19
-21
-39
-43
-25
-11
-6
0
7
-1
-24
-37
-22
-9
-25
-37
-19
-5
-19
-23
10
62
109
132
118
90
82
85
87
94
87
82
107
96
66
165
324
457
723
889
462
-166
-262
-48
-30
-85
-50
-47
-76
-63
-60
-77
-58
-23
-11
-3
26
63
100
145
202
259
310
362
420
453
435
398
366
305
208
126
72
9
-54
-78
-80
-96
-113
-107
-94
-86
-70
-59
-70
-81
-84
-98
-104
-80
-53
-38
-8
3
-44
-83
-74
-92
-137
-102
-43
-87
-136
-106
-120
-139
-31
93
247
542
577
68
-392
-367
-237
-259
-258
-217
-217
-212
-184
-173
-171
-165
-156
-133
-104
-82
-57
-23
16
62
115
176
236
273
277
265
228
141
32
-47
-102
-153
-182
-194
-212
-224
-218
-220
-234
-228
-196
-181
-221
-257
-218
-164
-166
-169
-124
-71
-52
-73
-114
-124
-94
-80
-79
-32
24
19
9
38
26
15
122
250
349
479
413
26
-239
-128
19
14
10
37
32
26
22
-4
-28
-29
-22
-13
2
19
44
86
140
198
260
328
391
431
442
431
392
325
244
163
88
37
9
-15
-35
-39
-40
-51
-58
-55
-56
-62
-63
-65
-65
-50
-35
-42
-42
-3
38
31
-6
-39
-60
-76
-91
-91
-74
-85
-103
-80
-82
-108
-15
136
248
458
581
197
-355
-439
-242
-210
-252
-222
-210
-227
-223
-226
-230
-212
-193
-172
-140
-122
-119
-93
-35
35
109
192
271
325
355
358
319
253
185
99
10
-37
-61
-89
-97
-98
-114
-119
-119
-133
-121
-85
-58
12
138
281
497
751
918
1155
1564
1659
1054
204
-286
-428
-481
-495
-483
-499
-513
-491
-488
-531
-564
-570
-598
-656
-706
-729
-742
-744
-701
-592
-444
-282
-107
76
222
288
279
241
198
151
117
96
61
37
49
47
20
19
27
6
-3
19
34
45
61
62
53
54
58
57
58
65
64
48
33
30
25
21
24
16
-4
-6
6
10
7
15
46
95
134
131
81
36
49
77
67
39
33
57
71
16
1
143
285
410
718
851
353
-238
-272
-87
-102
-151
-118
-109
-120
-120
-127
-125
-109
-105
-101
-84
-67
-43
-2
47
94
144
208
285
351
387
392
365
316
252
158
51
-21
-59
-101
-142
-161
-175
-186
-177
-167
-176
-182
-171
-161
-162
-159
-152
-156
-166
-149
-103
-70
-71
-91
-130
-167
-169
-149
-133
-133
-150
-134
-84
-110
-149
-27
136
247
455
520
103
-344
-307
-109
-104
-135
-115
-125
-110
-55
-54
-86
-70
-37
-26
-1
46
73
77
103
162
230
298
367
413
419
391
337
254
150
46
-30
-69
-95
-121
-125
-109
-104
-111
-96
-62
-42
-46
-58
-64
-60
-48
-46
-59
-53
-1
51
48
12
-9
-16
-24
-36
-39
-25
-28
-37
-9
-17
-66
6
146
210
352
511
268
-215
-349
-192
-140
-162
-130
-118
-129
-126
-135
-140
-115
-101
-101
-91
-79
-57
-15
26
61
117
187
254
317
355
345
312
272
201
99
14
-30
-53
-76
-99
-114
-118
-118
-121
-127
-132
-131
-130
-145
-168
-164
-138
-138
-160
-150
-102
-63
-63
-107
-155
-160
-143
-154
-168
-154
-144
-134
-105
-118
-148
-72
58
159
285
284
-52
-395
-357
-165
-123
-126
-77
-59
-69
-60
-55
-57
-38
-14
-2
15
45
79
120
179
258
342
407
455
507
540
530
489
417
303
179
87
16
-48
-90
-109
-122
-120
-102
-101
-98
-49
-7
11
89
221
386
659
937
1103
1424
1918
1905
1110
220
-222
-369
-438
-456
-463
-478
-487
-515
-550
-557
-565
-599
-636
-675
-727
-780
-807
-790
-743
-677
-556
-370
-181
-37
73
146
166
135
92
62
24
-21
-25
-8
-28
-60
-49
-25
-31
-46
-37
-31
-54
-66
-45
-39
-60
-59
-41
-47
-54
-39
-25
-26
-29
-25
-16
-9
-10
-15
-15
-19
-36
-45
-28
-17
-47
-64
-3
76
82
46
35
29
-1
-18
2
9
-20
-11
24
-11
-9
145
289
432
704
695
141
-311
-238
-89
-120
-115
-54
-44
-55
-64
-70
-47
-32
-49
-35
13
37
38
65
128
203
273
339
404
463
493
480
441
382
291
186
99
21
-50
-95
-130
-167
-176
-153
-138
-141
-132
-109
-90
-80
-74
-73
-64
-48
-49
-52
-11
42
34
-12
-34
-45
-73
-90
-72
-43
-52
-78
-53
-35
-75
-39
91
221
492
784
542
-111
-386
-223
-148
-189
-156
-145
-187
-178
-151
-158
-152
-126
-116
-109
-87
-71
-59
-33
16
87
152
189
235
298
316
278
230
171
85
-1
-71
-120
-136
-142
-164
-175
-156
-150
-166
-169
-159
-159
-167
-169
-169
-164
-151
-146
-138
-99
-50
-42
-65
-83
-94
-106
-108
-103
-104
-120
-122
-89
-85
-124
-76
56
158
309
462
251
-236
-415
-239
-131
-145
-127
-113
-119
-83
-38
-29
-26
-8
14
29
41
60
81
115
175
230
273
350
435
476
493
490
423
319
238
161
68
-7
-50
-79
-100
-114
-126
-136
-134
-122
-105
-88
-74
-73
-79
-72
-41
-18
-26
-22
29
68
51
15
-5
-20
-35
-39
-29
-23
-36
-38
-20
-40
-60
22
132
244
468
554
176
-277
-310
-168
-178
-196
-140
-137
-167
-149
-121
-124
-121
-97
-81
-79
-64
-34
-5
21
57
104
162
227
281
307
308
280
217
132
44
-39
-103
-132
-146
-163
-167
-163
-166
-146
-101
-62
5
115
205
345
615
835
975
1286
1562
1268
547
10
-210
-333
-410
-429
-448
-470
-474
-482
-513
-547
-576
-621
-676
-718
-754
-781
-776
-748
-698
-572
-370
-180
-38
85
175
197
172
143
115
82
55
47
52
58
56
51
60
71
64
57
75
95
85
62
71
98
94
82
107
133
128
126
131
123
117
109
84
68
68
55
37
22
5
8
24
-4
-45
-18
21
-14
-45
18
100
126
115
83
48
49
62
55
51
50
50
57
24
19
151
314
500
813
862
309
-249
-272
-125
-128
-130
-111
-142
-144
-121
-139
-151
-138
-143
-147
-123
-105
-90
-46
6
44
104
189
252
283
312
325
284
207
127
39
-57
-130
-180
-223
-249
-262
-281
-293
-283
-263
-247
-232
-218
-212
-208
-200
-183
-166
-170
-188
-163
-89
-43
-65
-96
-104
-110
-127
-139
-126
-107
-121
-120
-73
-84
-116
8
174
299
593
776
318
-312
-373
-160
-155
-193
-153
-156
-165
-145
-153
-137
-80
-75
-103
-73
-8
40
72
98
144
240
348
418
467
514
536
499
396
275
177
80
-22
-76
-66
-47
-61
-79
-55
-18
-3
60
177
278
444
719
938
1137
1438
1476
926
235
-96
-193
-282
-346
-371
-382
-370
-369
-400
-425
-445
-482
-523
-564
-615
-653
-659
-651
-627
-546
-406
-254
-106
39
146
189
199
194
168
128
87
68
81
74
29
30
79
72
16
8
33
32
10
-7
5
28
8
-20
9
42
16
-18
-27
-18
7
6
-33
-49
-40
-47
-52
-38
-34
-33
-22
-21
-37
-47
-40
-26
-30
-50
-40
21
68
48
-2
-30
-40
-49
-58
-64
-78
-86
-72
-86
-134
-87
60
178
335
492
271
-255
-470
-302
-207
-256
-247
-210
-215
-215
-200
-193
-186
-169
-143
-115
-104
-102
-75
-17
40
90
155
232
294
334
362
370
353
324
272
188
111
63
25
-5
-15
-25
-40
-34
-8
11
25
47
69
71
55
41
40
53
69
77
