# session 146
35
14
11
17
35
76
93
85
170
336
487
724
919
626
39
-145
41
91
9
3
17
7
17
15
-9
-11
13
53
108
156
179
188
204
227
247
277
325
356
342
301
256
206
146
72
-14
-93
-141
-158
-171
-188
-199
-208
-205
-156
-75
-12
77
294
615
862
994
1205
1471
1373
757
60
-332
-475
-536
-554
-545
-562
-611
-626
-607
-642
-711
-721
-729
-809
-889
-931
-996
-1029
-928
-762
-638
-502
-303
-126
-44
-19
-22
-55
-72
-63
-76
-86
-54
-30
-9
42
69
119
295
456
534
807
1272
1467
1161
545
-66
-382
-348
-220
-191
-210
-187
-133
-105
-130
-178
-219
-267
-345
-422
-435
-407
-392
-354
-251
-134
-16
131
242
269
286
315
289
220
185
212
272
331
419
599
815
992
1199
1348
1123
533
17
-202
-273
-310
-318
-328
-338
-326
-332
-375
-411
-428
-462
-509
-528
-517
-498
-459
-360
-218
-110
-40
54
148
161
132
133
126
86
77
101
85
33
3
-3
-7
-10
-12
-16
-23
-30
-15
9
10
20
80
172
283
328
129
-201
-290
-120
-5
-33
-57
-23
3
-17
-37
-23
-16
-21
-1
20
23
50
102
129
146
202
268
292
282
262
222
163
99
36
-12
-28
-37
-59
-73
-63
-36
-10
-7
-12
21
64
56
15
-5
-10
-24
-34
-20
0
20
61
110
141
203
336
502
691
795
559
73
-215
-202
-171
-209
-215
-203
-213
-229
-241
-251
-257
-276
-298
-305
-311
-322
-317
-298
-286
-262
-206
-147
-111
-80
-34
10
16
-3
-9
-3
-17
-35
-28
-26
-59
-83
-62
-33
-23
-12
15
46
56
43
23
4
-15
-29
-32
-35
-41
-26
-20
-65
-50
80
174
298
542
478
-61
-413
-272
-121
-170
-183
-130
-125
-138
-124
-106
-90
-60
-32
-25
-11
41
97
135
189
264
317
336
340
334
297
215
110
26
-28
-67
-98
-135
-154
-125
-103
-132
-150
-127
-119
-130
-96
-30
-2
-18
-32
-41
-57
-64
-52
-55
-69
-37
7
-34
-50
106
273
328
366
264
-76
-286
-167
-44
-68
-72
-40
-55
-79
-84
-81
-65
-57
-66
-58
-23
17
47
78
129
204
263
278
273
262
222
156
89
12
-66
-110
-124
-138
-148
-139
-140
-154
-140
-95
-70
-64
-20
68
139
182
263
416
585
703
830
1092
1344
1200
600
0
-256
-295
-332
-366
-366
-366
-370
-372
-391
-409
-402
-414
-464
-490
-472
-453
-436
-395
-319
-216
-106
-1
89
144
160
146
102
49
13
-11
-22
-23
-34
-49
-49
-46
-48
-44
-57
-87
-89
-76
-113
-161
-142
-96
-97
-101
-56
-6
0
-17
-36
-50
-63
-73
-73
-70
-74
-60
-53
-82
-49
71
148
235
378
271
-127
-325
-184
-79
-103
-92
-72
-100
-96
-52
-41
-63
-69
-49
-19
14
47
89
137
190
253
319
366
388
394
383
346
292
225
151
95
63
36
16
20
21
6
25
79
84
43
53
106
109
66
22
-21
-41
-48
-75
-65
-42
-101
-87
28
-175
-593
-455
252
670
423
-62
-297
-232
-135
-141
-154
-136
-136
-141
-121
-97
-93
-85
-47
-16
-18
-1
62
122
168
227
286
316
323
328
320
274
189
105
45
-10
-49
-39
-22
-59
-99
-87
-75
-96
-119
-123
-95
-35
1
-28
-78
-109
-130
-140
-133
-140
-167
-150
-115
-157
-171
-26
126
211
326
241
-181
-466
-356
-223
-244
-248
-219
-217
-205
-180
-169
-156
-133
-106
-75
-48
-22
16
70
134
200
261
310
339
339
300
229
154
91
26
-41
-86
-101
-107
-110
-110
-117
-107
-65
-54
-88
-66
20
54
10
-29
-41
-63
-88
-80
-69
-93
-82
-29
-48
-78
-1
91
211
441
438
19
-298
-215
-98
-128
-144
-124
-119
-98
-71
-62
-47
-26
-22
-15
13
41
59
93
153
212
254
287
298
281
250
208
141
64
3
-26
-29
-29
-36
-41
-36
-29
-16
1
8
16
69
176
264
291
355
528
687
783
995
1283
1265
820
266
-124
-318
-364
-364
-390
-402
-385
-393
-421
-434
-445
-472
-507
-545
-586
-617
-618
-586
-523
-430
-321
-204
-82
20
82
119
126
98
74
73
56
16
-8
-10
-21
-36
-35
-29
-34
-36
-31
-32
-45
-66
-71
-44
-20
-23
-5
48
70
42
18
20
18
7
8
14
6
9
8
-31
-26
70
140
215
366
303
-98
-366
-267
-146
-170
-185
-166
-168
-158
-145
-156
-159
-144
-135
-122
-95
-65
-20
50
121
182
245
312
364
389
395
375
305
204
128
77
23
-21
-37
-40
-42
-44
-48
-41
-22
-2
17
55
101
109
72
37
13
-10
-13
4
-3
-17
-5
-14
-23
55
180
342
562
521
33
-363
-282
-114
-138
-157
-110
-107
-120
-115
-123
-119
-86
-66
-60
-31
4
30
82
161
222
258
298
334
339
309
247
162
70
-12
-70
-92
-89
-95
-121
-140
-140
-130
-117
-121
-140
-112
-30
18
-2
-37
-65
-98
-123
-118
-102
-111
-110
-83
-110
-131
-22
103
198
387
409
-4
-380
-316
-170
-207
-219
-165
-178
-202
-174
-161
-161
-127
-94
-87
-65
-26
3
33
81
139
195
238
251
235
212
181
120
37
-27
-66
-98
-124
-127
-118
-127
-149
-133
-93
-94
-108
-65
1
27
19
-8
-48
-75
-73
-62
-70
-87
-59
-24
-56
-49
61
136
242
495
512
80
-269
-221
-128
-171
-190
-162
-162
-169
-154
-124
-93
-79
-68
-32
14
41
71
131
178
193
234
294
300
270
250
199
112
52
22
-14
-37
-35
-36
-48
-45
-27
-19
-12
17
49
78
153
248
297
385
580
727
822
1106
1430
1308
741
186
-155
-340
-399
-392
-416
-459
-465
-451
-459
-481
-496
-520
-560
-592
-608
-618
-604
-552
-477
-376
-249
-128
-30
53
112
128
115
103
81
49
31
28
21
1
-28
-53
-50
-34
-36
-45
-44
-44
-58
-74
-70
-40
-20
-25
-17
19
48
41
15
-3
-3
3
10
14
8
14
30
13
15
98
191
292
411
299
-88
-305
-179
-54
-71
-79
-67
-86
-92
-86
-98
-97
-65
-41
-38
-29
11
60
95
138
214
287
323
347
369
363
335
299
224
121
61
52
33
-1
-12
-4
0
11
39
64
56
49
95
160
151
69
12
3
-8
-18
-19
-50
-73
-40
-48
-90
-20
124
264
434
407
-18
-400
-340
-154
-158
-196
-161
-148
-168
-172
-157
-127
-105
-112
-114
-86
-56
-30
16
78
144
204
239
248
261
267
217
111
-1
-73
-105
-140
-184
-197
-179
-171
-184
-194
-179
-156
-161
-173
-129
-58
-41
-87
-136
-160
-186
-213
-213
-205
-197
-169
-176
-219
-167
-47
87
365
561
210
-366
-496
-329
-310
-359
-324
-302
-321
-315
-289
-273
-259
-236
-211
-189
-159
-116
-69
-20
31
82
142
196
226
230
202
150
96
45
-2
-22
-20
-21
-18
-4
16
34
50
74
106
137
174
214
218
188
176
178
155
140
164
172
163
182
171
129
168
242
329
568
714
389
-43
-64
88
75
44
90
102
86
94
107
118
136
153
172
198
225
255
287
329
384
426
449
483
512
490
439
406
376
328
283
247
221
214
214
193
166
164
186
195
172
161
200
239
223
182
149
114
77
66
64
40
18
21
-4
-49
-27
36
134
350
445
110
-325
-398
-294
-304
-337
-331
-362
-396
-403
-429
-455
-457
-469
-492
-495
-487
-487
-482
-475
-472
-462
-442
-437
-459
-492
-536
-598
-670
-743
-809
-855
-871
-885
-914
-939
-955
-978
-990
-958
-906
-880
-878
-869
-838
-791
-733
-679
-625
-520
-341
-173
-118
-114
47
369
468
72
-453
-598
-452
-390
-403
-300
-142
-57
-14
30
59
92
144
193
220
206
166
165
220
287
365
474
596
721
852
948
980
988
1008
1006
961
938
967
982
992
1046
1088
1066
1032
1022
1031
1048
1053
1061
1133
1241
1304
1305
1256
1198
1203
1248
1258
1276
1334
1359
1298
1150
1012
1030
1083
1014
1030
1081
691
2
-336
-333
-393
-506
-579
-696
-813
-854
-903
-976
-982
-946
-936
-924
-893
-872
-844
-793
-756
-735
-704
-677
-668
-671
-705
-780
-861
-934
-1008
-1066
-1098
-1120
-1121
-1097
-1085
-1083
-1060
-1018
-921
-713
-443
-168
103
288
338
347
331
232
114
17
-102
-170
-157
-201
-213
-20
195
339
560
566
88
-333
-300
-204
-274
-300
-269
-288
-311
-309
-312
-299
-266
-248
-242
-230
-211
-177
-129
-86
-50
-12
24
53
70
66
55
52
28
-48
-134
-181
-205
-213
-188
-166
-181
-171
-108
-63
-55
-4
93
151
152
164
200
219
214
220
240
235
230
269
271
218
259
362
421
598
799
592
167
104
279
302
281
355
423
471
545
608
641
674
715
752
767
775
792
801
805
829
859
866
847
817
782
733
662
588
542
510
461
415
402
394
356
309
285
282
286
271
210
111
0
-134
-300
-415
-388
-298
-252
-168
-62
-202
-583
-843
-966
-1253
-1673
-1971
-2126
-2227
-2246
-2162
-2037
-1904
-1745
-1595
-1512
-1444
-1311
-1146
-1010
-879
-748
-660
-587
-459
-288
-148
-53
51
196
323
378
408
465
512
527
551
584
592
600
641
680
669
583
465
407
425
447
465
488
445
338
314
408
468
422
377
387
370
315
302
325
348
384
370
289
275
296
271
397
578
320
-194
-285
-41
44
10
51
108
147
178
158
119
104
93
100
138
148
126
147
215
280
326
351
349
339
318
267
207
140
46
-34
-50
-47
-87
-129
-119
-89
-85
-78
-40
-11
-10
6
54
85
69
21
-23
-42
-42
-43
-36
-30
-59
-88
-96
-109
-35
167
323
424
517
309
-208
-462
-314
-206
-251
-249
-199
-165
-122
-88
-89
-104
-116
-117
-98
-75
-58
-11
76
152
193
234
294
329
294
209
118
15
-94
-159
-174
-177
-177
-156
-125
-112
-127
-129
-91
-62
-70
-62
-3
65
99
83
12
-92
-184
-250
-308
-387
-479
-512
-493
-546
-612
-533
-425
-344
-124
-32
-435
-875
-845
-676
-696
-714
-660
-652
-648
-618
-610
-597
-542
-458
-327
-167
-46
56
194
320
399
496
604
629
596
595
594
545
498
464
399
345
364
416
443
467
496
498
502
555
616
629
622
631
633
600
544
509
504
474
400
310
218
148
98
12
-47
12
65
79
196
163
-318
-817
-882
-795
-848
-887
-824
-763
-723
-687
-667
-645
-601
-551
-515
-508
-517
-498
-438
-356
-243
-112
-36
-24
-14
-16
-73
-138
-173
-210
-231
-205
-179
-173
-145
-95
-55
-16
31
74
90
82
81
134
216
241
216
238
326
405
465
538
592
609
620
609
598
654
732
868
1194
1433
1171
719
607
699
719
775
888
916
894
899
894
890
933
1000
1034
1006
954
921
889
839
794
760
733
724
695
600
490
411
303
123
-63
-176
-237
-334
-496
-668
-807
-914
-989
-1022
-1028
-1020
-1012
-1014
-1033
-1068
-1126
-1166
-1150
-1150
-1196
-1191
-1137
-1135
-1154
-1141
-1114
-1000
-794
-619
-426
-228
-357
-743
-840
-627
-520
-541
-540
-578
-671
-737
-782
-836
-884
-913
-922
-913
-907
-904
-866
-780
-696
-648
-602
-553
-539
-554
-573
-622
-709
-787
-840
-879
-874
-832
-816
-810
-754
-677
-598
-474
-343
-250
-122
63
212
294
343
383
477
660
849
969
1040
1117
1236
1368
1477
1675
2004
2251
2346
2348
2053
1469
1133
1206
1285
1250
1268
1309
1304
1316
1364
1406
1426
1435
1444
1453
1459
1462
1453
1440
1403
1299
1259
1495
1861
1913
1550
1183
1151
1261
1106
677
300
78
-122
-318
-455
-564
-663
-696
-665
-644
-593
-384
-101
68
243
560
662
168
-667
-1302
-1564
-1626
-1647
-1664
-1672
-1677
-1677
-1671
-1677
-1697
-1709
-1722
-1751
-1776
-1767
-1740
-1707
-1619
-1449
-1256
-1073
-882
-725
-664
-641
-605
-602
-623
-591
-539
-534
-507
-411
-338
-332
-312
-249
-203
-206
-210
-171
-137
-157
-169
-124
-84
-77
-60
-30
1
51
89
80
79
134
202
239
241
224
215
210
208
245
290
294
301
303
287
339
432
540
810
1033
735
189
50
223
273
238
264
284
273
275
283
289
304
317
327
340
356
379
408
439
472
510
553
595
619
611
588
560
515
461
422
386
336
297
284
277
271
260
232
219
231
215
167
154
186
202
186
159
116
62
30
27
30
15
-6
-9
-19
-57
-53
-5
42
224
515
457
-38
-380
-318
-211
-234
-245
-225
-224
-221
-213
-212
-206
-193
-180
-165
-148
-124
-90
-53
-15
27
66
92
98
80
46
1
-64
-144
-205
-239
-266
-289
-300
-307
-316
-328
-341
-337
-316
-314
-323
-297
-249
-224
-228
-257
-304
-333
-331
-318
-308
-314
-313
-275
-268
-291
-209
-67
28
169
225
-88
-453
-421
-239
-239
-275
-242
-232
-235
-230
-244
-230
-174
-154
-154
-114
-70
-44
5
69
119
168
216
245
258
252
211
145
71
-9
-73
-103
-107
-95
-81
-82
-86
-79
-68
-42
-4
9
20
86
160
168
133
104
87
73
75
103
115
94
109
147
145
204
354
458
561
666
461
27
-94
107
201
171
195
220
214
236
261
247
237
258
271
248
231
259
300
320
347
401
467
510
507
467
408
321
221
141
73
5
-39
-50
-58
-74
-82
-84
-92
-90
-75
-85
-115
-88
12
92
117
144
203
314
480
614
732
1018
1351
1247
605
-77
-421
-517
-559
-605
-653
-678
-665
-669
-734
-813
-845
-860
-927
-1025
-1067
-1060
-1094
-1152
-1132
-1041
-945
-833
-694
-557
-435
-354
-339
