# session 44
-3
-47
-98
-138
-154
-156
-152
-147
-145
-139
-127
-134
-154
-149
-119
-96
-86
-81
-65
-22
12
-2
-35
-53
-63
-68
-65
-59
-59
-69
-67
-45
-56
-74
8
128
189
260
245
-44
-345
-306
-126
-94
-120
-100
-88
-91
-85
-88
-92
-76
-60
-57
-62
-61
-49
-41
-35
-7
37
68
105
169
226
240
240
249
227
160
87
24
-39
-84
-94
-94
-113
-134
-128
-108
-100
-95
-76
-65
-81
-99
-93
-73
-57
-58
-63
-31
33
69
62
42
18
15
37
38
28
41
30
12
40
25
-11
105
270
401
676
788
275
-325
-341
-135
-135
-158
-122
-129
-114
-78
-97
-102
-50
-27
-42
-28
-4
-1
12
44
71
103
161
227
284
332
366
380
372
335
267
176
88
11
-60
-110
-127
-146
-169
-167
-157
-159
-142
-110
-110
-125
-123
-117
-118
-114
-121
-139
-112
-36
10
-4
-33
-55
-73
-83
-92
-92
-80
-87
-93
-70
-89
-100
31
188
323
606
718
227
-348
-366
-164
-167
-199
-153
-150
-161
-142
-140
-138
-107
-85
-81
-74
-67
-56
-32
-10
15
61
112
158
217
268
288
304
303
244
149
68
6
-52
-107
-148
-169
-181
-183
-172
-164
-165
-152
-130
-122
-121
-126
-135
-122
-94
-105
-130
-103
-45
-12
-3
-7
-28
-44
-40
-26
-3
12
-4
-3
23
-11
-43
64
189
286
561
747
347
-246
-340
-140
-104
-134
-91
-69
-68
-48
-48
-54
-26
-6
-14
-2
31
41
41
69
108
134
159
198
250
305
336
339
344
334
266
178
130
94
38
-14
-52
-79
-81
-67
-62
-77
-99
-101
-81
-77
-100
-116
-105
-87
-77
-74
-58
-25
7
14
-4
-31
-50
-54
-58
-65
-50
-25
-41
-61
-33
-28
-53
5
116
204
312
290
-35
-345
-303
-142
-130
-151
-118
-119
-142
-128
-111
-114
-111
-97
-92
-91
-73
-44
-27
-25
-13
19
60
105
151
182
194
206
210
186
129
49
-39
-87
-90
-105
-139
-146
-132
-129
-119
-87
-68
-65
-57
-48
-45
-47
-54
-48
-23
-16
-24
15
78
76
23
-3
-3
-5
-1
7
16
23
14
12
30
13
0
75
167
249
380
341
-34
-352
-298
-143
-124
-127
-94
-84
-87
-80
-68
-47
-31
-32
-25
-1
22
38
52
68
102
147
182
219
264
305
343
373
368
333
290
219
124
56
31
10
-26
-59
-69
-72
-81
-79
-71
-83
-93
-81
-82
-108
-129
-121
-89
-79
-93
-65
3
17
-24
-55
-72
-90
-95
-92
-85
-76
-85
-87
-65
-88
-98
26
178
308
540
576
85
-418
-382
-159
-153
-197
-159
-150
-175
-169
-140
-123
-117
-106
-89
-74
-58
-32
-13
-1
29
83
139
187
248
317
361
364
347
302
209
95
-5
-85
-137
-161
-174
-191
-207
-207
-188
-174
-166
-152
-146
-148
-135
-122
-127
-119
-110
-140
-145
-69
13
31
3
-40
-61
-41
-29
-46
-36
-4
-4
-1
21
-1
21
174
328
497
744
664
71
-368
-264
-97
-144
-171
-121
-111
-117
-100
-90
-92
-86
-63
-40
-28
-11
26
57
72
99
151
214
279
336
371
390
404
388
328
253
178
93
17
-14
-19
-47
-95
-113
-101
-100
-110
-106
-96
-85
-66
-70
-109
-130
-104
-81
-97
-111
-83
-26
13
0
-47
-80
-83
-86
-99
-100
-98
-111
-93
-59
-94
-99
24
134
273
581
626
90
-391
-325
-140
-152
-165
-126
-137
-148
-120
-109
-119
-115
-94
-76
-69
-56
-29
-9
3
28
66
111
160
202
242
282
301
282
235
158
61
-12
-57
-98
-129
-147
-163
-159
-140
-140
-137
-110
-105
-128
-121
-89
-93
-122
-121
-96
-86
-90
-73
-34
4
24
22
1
-17
-5
12
2
-6
7
9
11
25
-1
-20
62
169
278
478
509
112
-302
-299
-129
-97
-105
-81
-73
-61
-40
-41
-36
-10
-3
-8
13
41
44
52
88
112
123
161
213
249
290
337
349
328
297
250
186
112
39
-3
-16
-43
-72
-68
-67
-95
-109
-99
-103
-117
-118
-117
-124
-130
-138
-148
-136
-105
-91
-91
-57
-6
1
-34
-63
-68
-56
-38
-31
-39
-52
-43
-9
-11
-51
-10
114
205
292
333
105
-249
-315
-145
-78
-110
-94
-76
-91
-89
-81
-88
-81
-60
-60
-67
-58
-48
-47
-35
-9
15
44
90
139
171
192
214
224
201
150
84
12
-46
-87
-124
-150
-147
-129
-113
-108
-110
-101
-77
-71
-82
-82
-75
-81
-91
-95
-86
-51
-12
2
8
31
43
29
12
9
19
32
33
36
49
45
40
56
31
-3
80
206
311
531
629
221
-291
-323
-123
-90
-118
-95
-86
-76
-54
-53
-47
-21
-16
-20
3
29
27
24
42
79
140
203
238
281
358
410
414
414
406
345
237
132
59
9
-30
-66
-106
-132
-132
-134
-150
-146
-124
-121
-131
-122
-112
-135
-163
-152
-124
-128
-149
-136
-81
-29
-21
-45
-72
-88
-90
-94
-109
-101
-89
-109
-98
-68
-110
-88
112
285
428
661
568
-32
-430
-293
-147
-196
-193
-162
-199
-210
-188
-192
-200
-203
-213
-216
-214
-206
-184
-165
-154
-123
-79
-35
23
83
113
132
154
133
52
-40
-116
-200
-284
-329
-323
-293
-278
-287
-276
-233
-189
-147
-98
-62
-24
40
99
128
160
215
249
245
262
321
354
328
282
233
177
147
148
148
159
188
203
230
270
247
253
392
527
696
1018
1006
351
-211
-170
-8
-41
-66
-62
-101
-103
-80
-96
-106
-90
-89
-88
-70
-58
-52
-44
-30
6
54
79
105
168
231
252
250
236
195
128
46
-44
-119
-158
-177
-200
-225
-232
-217
-196
-183
-179
-183
-184
-169
-159
-177
-199
-200
-187
-176
-176
-176
-151
-111
-91
-98
-114
-120
-116
-124
-131
-112
-102
-120
-109
-81
-101
-84
31
132
242
415
351
-70
-367
-279
-132
-125
-137
-123
-118
-111
-114
-129
-115
-83
-79
-87
-77
-61
-44
-19
4
31
74
116
157
213
251
270
297
293
228
159
114
64
14
-19
-41
-52
-50
-46
-45
-38
-31
-35
-39
-36
-36
-32
-24
-27
-39
-31
-4
12
10
20
53
79
69
42
10
-26
-46
-50
-58
-59
-54
-67
-60
-28
-43
-45
65
185
296
467
425
12
-295
-196
-44
-56
-60
-19
-18
-26
-15
-16
-20
-5
8
4
8
42
72
74
80
106
137
172
218
263
303
330
331
310
275
211
116
37
-14
-66
-107
-114
-110
-112
-120
-139
-150
-139
-133
-142
-144
-147
-163
-171
-171
-166
-143
-128
-148
-135
-49
13
-10
-43
-49
-69
-81
-63
-54
-45
-32
-52
-56
-27
-47
-8
172
299
450
769
720
66
-370
-216
-76
-142
-115
-59
-111
-133
-96
-106
-126
-104
-91
-100
-95
-85
-86
-68
-33
-8
31
104
171
218
274
331
342
300
226
128
21
-55
-96
-137
-176
-178
-169
-192
-214
-199
-173
-161
-151
-136
-123
-126
-139
-132
-105
-85
-79
-93
-105
-63
8
25
2
-9
-23
-52
-74
-84
-74
-48
-57
-68
-25
-29
-76
41
248
380
641
889
547
-124
-305
-90
-35
-98
-77
-48
-47
-26
-16
-29
-24
-7
0
8
17
12
14
45
75
104
158
210
230
261
309
325
307
272
206
112
23
-38
-73
-91
-103
-127
-160
-169
-151
-138
-136
-128
-125
-132
-132
-129
-145
-159
-146
-126
-127
-129
-93
-33
-3
-16
-35
-44
-46
-44
-48
-48
-30
-23
-32
-10
1
-36
13
147
236
426
708
563
-21
-322
-180
-87
-144
-145
-111
-112
-124
-129
-124
-122
-134
-138
-128
-116
-95
-69
-59
-45
-3
48
93
153
220
266
291
305
291
236
162
89
11
-58
-87
-98
-130
-155
-136
-110
-118
-134
-134
-114
-89
-84
-88
-68
-45
-55
-74
-66
-45
-40
-48
-36
-4
1
-28
-45
-52
-73
-77
-54
-40
-32
-17
-8
4
7
-15
27
149
261
424
594
418
-56
-272
-129
-26
-61
-71
-46
-36
-32
-34
-37
-30
-24
-13
9
17
6
15
61
94
87
92
158
232
262
275
298
298
267
221
160
98
57
14
-48
-93
-94
-90
-104
-109
-98
-89
-82
-76
-84
-89
-79
-77
-92
-101
-94
-81
-70
-66
-55
-21
12
4
-29
-50
-61
-63
-59
-68
-78
-67
-63
-60
-43
-67
-83
28
169
264
438
491
109
-333
-350
-184
-172
-196
-165
-159
-169
-159
-155
-157
-154
-144
-128
-126
-136
-117
-73
-53
-39
15
85
138
188
246
300
339
338
286
213
144
66
-9
-47
-64
-88
-107
-112
-114
-112
-101
-82
-64
-54
-44
-37
-51
-68
-66
-67
-78
-76
-74
-84
-69
-15
21
2
-32
-41
-43
-51
-49
-34
-23
-26
-11
27
13
-20
89
270
415
715
978
607
-115
-331
-115
-40
-91
-81
-63
-64
-70
-89
-83
-68
-86
-90
-68
-69
-62
-19
-3
-12
28
99
150
211
296
354
367
346
295
221
140
62
-1
-52
-93
-120
-137
-143
-135
-140
-155
-146
-136
-148
-144
-117
-112
-125
-128
-125
-114
-98
-114
-136
-89
-3
26
-1
-25
-48
-68
-62
-55
-56
-47
-60
-82
-57
-60
-82
46
223
309
541
774
418
-244
-406
-203
-170
-226
-200
-188
-195
-172
-158
-155
-143
-138
-137
-122
-103
-87
-66
-35
-7
21
69
147
226
276
306
336
345
302
219
141
85
23
-48
-90
-102
-117
-134
-132
-122
-129
-145
-143
-126
-119
-120
-116
-114
-108
-86
-70
-76
-66
-16
45
82
92
74
31
0
12
36
44
48
41
36
61
56
14
72
204
314
563
838
598
-27
-288
-140
-77
-127
-111
-98
-124
-126
-130
-145
-124
-92
-102
-119
-98
-66
-51
-25
16
41
67
123
185
223
249
276
284
251
195
146
85
12
-28
-47
-80
-96
-90
-101
-110
-91
-81
-83
-70
-58
-70
-86
-92
-92
-89
-86
-79
-66
-57
-36
4
18
-9
-39
-54
-61
-69
-85
-90
-76
-86
-104
-80
-75
-111
-66
61
183
331
357
25
-374
-397
-219
-177
-188
-136
-113
-135
-122
-82
-70
-69
-48
-23
-17
-14
-4
9
31
69
109
143
189
244
285
314
335
331
303
256
183
102
45
5
-33
-60
-76
-91
-104
-109
-104
-96
-98
-103
-98
-87
-84
-91
-98
-88
-63
-45
-41
-25
22
67
73
45
9
-10
-2
10
9
16
28
14
12
33
8
-3
104
226
359
599
619
151
-295
-272
-122
-143
-173
-142
-142
-152
-137
-131
-138
-136
-115
-90
-80
-82
-72
-41
-10
11
42
99
160
209
254
292
310
305
271
201
117
44
-14
-60
-91
-109
-116
-118
-115
-102
-89
-91
-97
-88
-75
-77
-83
-93
-101
-86
-69
-81
-78
-29
21
38
32
2
-36
-42
-32
-47
-56
-43
-62
-84
-51
-57
-101
12
218
329
470
554
192
-332
-400
-186
-136
-170
-148
-142
-143
-120
-110
-113
-104
-92
-85
-78
-55
-24
-15
-16
13
68
130
206
281
330
360
390
392
348
280
189
73
-21
-63
-89
-121
-154
-190
-204
-182
-164
-178
-185
-152
-113
-110
-125
-119
-104
-89
-70
-81
-103
-44
63
90
59
40
14
-6
12
19
7
26
28
-5
13
33
-4
57
231
375
588
749
399
-219
-375
-171
-129
-188
-160
-147
-156
-127
-118
-124
-88
-67
-91
-90
-61
-49
-39
-12
22
64
121
181
234
285
326
339
320
278
212
121
31
-35
-82
-117
-137
-152
-164
-158
-145
-145
-138
-108
-85
-73
-49
-38
-70
-89
-61
-44
-75
-98
-56
24
63
38
-3
-17
-20
-38
-62
-64
-51
-61
-71
-40
-51
-117
-55
114
199
351
599
449
-111
-391
-252
-152
-175
-168
-161
-161
-134
-134
-150
-123
-104
-120
-109
-71
-66
-68
-32
8
30
76
160
240
294
327
341
334
307
263
193
97
13
-33
-69
-111
-139
-151
-157
-152
-140
-132
-114
-80
-62
-60
-54
-57
-70
-69
-44
-22
-14
-6
29
81
101
68
23
8
12
0
-22
-7
25
6
-19
0
-4
-8
80
199
353
597
597
144
-259
-237
-108
-114
-128
-104
-99
-93
-85
-85
-74
-60
-59
-50
-31
-23
-19
4
35
60
90
141
203
250
278
306
326
308
256
202
145
72
4
-31
-47
-65
-81
-82
-74
-72
-76
-81
-83
-81
-79
-82
-90
-105
-122
-119
-99
-99
-108
-75
-27
-32
-70
-90
-114
-148
-152
-144
-154
-148
-133
-146
-144
-134
-156
-112
30
134
216
280
80
-303
-401
-209
-105
-123
-105
-79
-82
-78
-73
-72
-54
-37
-33
-24
-8
1
11
34
74
121
167
217
272
324
360
377
378
363
326
255
168
95
29
-34
-66
-70
-79
-90
-93
-102
-111
-96
-83
-97
-93
-39
21
83
185
314
478
681
795
766
709
575
280
45
-36
-199
-437
-485
-386
-359
-390
-396
-401
-420
-435
-452
-485
-525
-558
-586
-606
-606
-584
-547
-480
-377
-259
-144
-27
75
126
135
146
151
110
48
19
-2
-38
-45
-24
-19
-14
5
-1
-15
7
37
35
33
48
59
62
68
79
85
92
104
110
104
105
122
130
127
134
147
148
145
139
124
129
164
176
143
141
205
268
281
263
236
205
180
170
176
187
175
163
188
179
125
194
370
493
669
863
622
33
-219
-65
22
-5
13
12
-21
-18
-20
-43
-33
-8
-11
-29
-43
-37
-4
22
18
25
75
137
180
212
241
251
234
199
139
47
-54
-155
-261
-351
-406
-448
-491
-521
-532
-537
-562
-597
-604
-589
-588
-598
-616
-652
-671
-645
-622
-622
-570
-432
-278
-159
