# session 194
25
-516
-811
-876
-866
-872
-877
-832
-777
-807
-878
-871
-817
-820
-872
-907
-918
-936
-975
-1000
-978
-932
-906
-861
-739
-576
-454
-370
-261
-132
-41
5
25
25
11
-7
-29
-53
-69
-76
-80
-87
-98
-94
-75
-61
-49
-20
9
20
30
56
80
86
84
91
111
129
127
114
111
126
142
142
135
138
147
141
121
114
117
97
65
63
86
95
76
42
15
16
42
60
48
30
30
25
9
10
19
9
-4
4
15
18
17
20
20
6
-13
-11
6
4
-6
21
80
111
91
59
54
64
54
39
45
44
28
39
37
2
53
191
313
511
707
503
-12
-262
-147
-34
-76
-121
-43
-28
-129
-17
53
-233
-33
365
-832
-2406
-1543
328
514
29
234
370
225
298
388
354
398
447
421
427
438
382
310
257
208
160
107
51
13
-8
-28
-40
-41
-42
-42
-34
-29
-21
1
13
0
-12
-16
-14
5
23
7
-10
21
52
27
-10
-12
-14
-30
-28
-25
-45
-54
-49
-59
-62
-59
-64
-33
37
159
381
461
116
-321
-380
-237
-215
-245
-222
-206
-217
-229
-235
-223
-201
-194
-189
-163
-129
-107
-89
-61
-30
-5
22
60
106
151
187
212
226
221
198
163
116
52
-13
-60
-90
-116
-135
-139
-140
-149
-154
-144
-138
-144
-141
-124
-115
-124
-141
-151
-132
-94
-88
-111
-92
-33
-12
-42
-70
-81
-99
-115
-116
-109
-92
-71
-70
-60
-39
-66
-62
65
208
327
468
391
-5
-276
-181
-50
-62
-61
-14
2
-5
-3
8
10
-1
-5
6
8
11
35
58
60
69
106
150
185
233
303
357
370
377
394
381
327
266
210
157
114
74
35
14
7
2
2
6
7
4
-1
-6
-7
-6
-9
-17
-26
-37
-43
-32
-4
34
70
72
36
15
27
23
1
4
8
-18
-65
-111
-111
-86
-112
-98
47
174
283
485
446
-18
-336
-200
-55
-104
-125
-97
-108
-104
-85
-96
-101
-93
-94
-79
-47
-38
-43
-28
1
32
65
97
133
181
235
272
290
320
339
275
163
121
106
-22
-129
-58
-68
-167
-33
-55
-301
69
222
-538
97
940
-2553
-6289
-3650
-95
-1378
-2096
302
1111
172
315
687
442
455
568
425
395
448
388
365
387
368
349
340
340
344
304
313
428
517
681
1014
1010
441
-11
41
155
109
94
110
80
81
109
106
93
71
43
52
64
28
17
57
55
7
-12
-2
7
20
49
98
152
174
170
163
137
76
10
-36
-67
-94
-119
-143
-156
-155
-148
-138
-136
-143
-134
-118
-121
-119
-100
-106
-116
-98
-108
-151
-144
-103
-95
-103
-93
-61
-16
-2
-38
-73
-78
-74
-55
-25
-5
1
-6
-11
2
-12
-49
-1
88
155
347
536
305
-162
-291
-143
-104
-140
-113
-87
-86
-67
-50
-45
-33
-20
-15
-13
-3
15
30
36
55
92
118
136
172
203
215
255
311
314
275
249
222
170
102
34
-10
-29
-52
-86
-115
-133
-140
-135
-123
-112
-106
-103
-98
-95
-95
-91
-81
-77
-81
-80
-79
-92
-111
-132
-155
-157
-128
-111
-120
-99
-50
-31
-45
-65
-93
-110
-89
-62
-66
-72
-62
-64
-55
-24
-46
-86
-22
80
149
251
233
-61
-305
-236
-114
-117
-112
-81
-88
-80
-31
5
24
39
36
23
19
22
26
32
37
42
57
79
97
113
133
149
149
139
120
83
34
-17
-82
-153
-195
-202
-202
-191
-161
-135
-122
-105
-83
-60
-35
-9
16
24
16
49
141
248
402
632
833
951
983
862
746
850
828
315
-232
-307
-189
-198
-182
-112
-181
-296
-235
-112
-122
-194
-223
-258
-310
-329
-326
-318
-290
-251
-218
-184
-148
-112
-71
-38
-20
-4
12
16
14
20
28
33
30
20
13
21
25
9
11
46
51
16
17
49
32
-7
8
49
50
32
37
28
7
51
63
4
89
128
-77
98
448
-334
-1443
-916
285
336
-31
99
166
31
51
88
42
59
95
85
85
108
133
148
136
123
128
115
93
111
145
137
101
113
175
214
202
177
158
151
161
154
149
186
186
144
191
238
205
341
544
557
959
1332
-1002
-6009
-8249
-4927
-884
-93
-290
404
656
323
384
521
393
360
404
363
342
354
355
373
372
358
407
479
490
484
527
592
612
573
519
488
462
411
355
317
265
197
182
187
134
165
285
243
285
674
668
78
186
1247
1854
1450
686
35
-302
-303
-244
-256
-237
-191
-162
-142
-159
-218
-270
-304
-335
-356
-365
-382
-412
-432
-432
-421
-388
-317
-227
-127
-2
106
155
191
215
173
141
176
156
121
174
121
56
211
95
-172
277
288
-1402
-2624
-1810
-791
-426
65
311
104
122
248
154
122
173
125
88
99
73
58
78
64
25
5
-9
-10
13
17
-9
-19
-13
-7
3
-7
-34
-13
39
47
15
-12
-27
-37
-42
-37
-15
-8
-40
-53
20
118
134
76
28
26
38
36
9
-22
-26
-22
-24
-7
-10
-34
42
206
375
607
698
301
-222
-271
-62
-38
-86
-56
-47
-72
-87
-111
-119
-85
-53
-56
-82
-103
-82
-29
6
20
39
74
136
200
213
230
311
354
314
310
331
262
166
130
80
0
-33
-48
-83
-86
-56
-52
-57
-41
-5
58
126
227
473
772
947
1145
1385
1150
333
-314
-425
-472
-549
-366
-378
-938
-1182
-647
-241
-370
-439
-353
-416
-455
-377
-463
-564
-362
-415
-1466
-2984
-3483
-2247
-357
568
496
464
617
577
502
538
518
459
460
473
466
453
433
440
459
443
434
440
419
431
444
391
444
489
327
456
658
140
210
1238
-107
-3702
-4481
-1849
194
194
-978
-2279
-2916
-2929
-1853
349
1656
1511
1308
1151
1279
1732
307
-2264
-1771
1000
1833
1153
1219
1434
1241
1260
1327
1163
1076
1073
989
919
901
884
874
839
781
738
660
589
652
750
802
918
890
454
17
-2
114
95
56
9
-94
-170
-220
-304
-380
-416
-438
-438
-425
-420
-400
-351
-313
-304
-296
-277
-268
-265
-208
-83
30
76
95
117
115
84
53
24
-18
-63
-89
-99
-115
-139
-149
-153
-173
-192
-180
-160
-152
-134
-99
-54
26
165
370
602
774
905
1087
1105
627
-58
-393
-527
-683
-481
-499
-2151
-4348
-4106
-1645
-89
-220
-409
-267
-351
-470
-474
-597
-733
-760
-853
-981
-954
-820
-700
-593
-494
-399
-308
-302
-418
-562
-669
-778
-903
-1010
-1093
-1154
-1180
-1125
-991
-887
-882
-905
-903
-895
-856
-799
-826
-902
-916
-887
-825
-705
-612
-560
-440
-298
-212
-83
107
223
273
365
488
595
700
800
881
962
1061
1172
1269
1331
1378
1432
1441
1388
1342
1331
1323
1336
1398
1494
1626
1772
1878
1971
2093
2167
2219
2390
2610
2781
3010
3145
2902
2595
2660
2898
2998
3026
3085
3113
2970
2612
2314
2354
2544
2494
2074
1458
955
653
319
-147
-583
-917
-1151
-1253
-1309
-1399
-1444
-1424
-1398
-1304
-1131
-1033
-1065
-1108
-1121
-1202
-1374
-1557
-1745
-1947
-2101
-2193
-2252
-2251
-2225
-2258
-2252
-2132
-2043
-1971
-1738
-1471
-1309
-1065
-835
-1042
-1551
-1807
-1727
-1605
-1578
-1624
-1700
-1772
-1832
-1858
-1843
-1832
-1841
-1817
-1740
-1630
-1521
-1428
-1321
-1175
-1031
-900
-733
-551
-404
-240
5
290
537
708
796
824
840
861
890
924
943
928
866
726
526
366
291
240
170
104
61
26
-8
-27
-24
-8
19
37
39
64
123
173
230
352
474
491
443
425
439
446
450
474
513
528
508
489
482
479
491
514
546
620
720
771
764
746
731
738
759
746
733
774
823
857
874
811
769
889
1037
1189
1474
1488
894
352
399
565
507
458
450
378
324
283
192
153
182
161
100
60
25
-10
-26
-12
9
6
28
134
222
202
169
190
208
208
201
158
88
25
-44
-127
-196
-245
-281
-291
-272
-257
-266
-281
-282
-277
-284
-295
-310
-335
-342
-309
-287
-284
-210
-54
123
329
514
596
715
919
839
315
-234
-496
-604
-664
-641
-618
-669
-710
-710
-751
-800
-797
-812
-822
-798
-869
-900
-803
-954
-1036
-638
-875
-1383
411
3012
2187
-523
-993
-191
-309
-516
-301
-336
-462
-408
-429
-491
-456
-440
-458
-434
-406
-404
-394
-379
-382
-375
-342
-300
-264
-239
-221
-187
-129
-101
-128
-146
-114
-85
-100
-135
-155
-149
-139
-158
-189
-168
-102
-81
-88
42
322
518
517
467
461
435
364
295
274
272
206
167
285
420
532
809
958
555
59
49
233
236
201
226
222
206
220
247
266
248
199
168
160
149
138
136
132
129
141
164
187
216
253
280
281
278
289
286
244
196
155
74
-31
-78
-96
-144
-149
-90
-89
-165
-203
-148
15
223
302
228
169
170
166
186
238
279
392
613
741
756
908
1074
832
289
-80
-198
-258
-289
-280
-292
-319
-322
-320
-324
-323
-321
-324
-322
-331
-367
-407
-417
-407
-403
-386
-343
-303
-266
-200
-117
-35
51
128
174
183
143
80
37
-9
-67
-82
-78
-121
-172
-176
-174
-204
-238
-253
-250
-233
-215
-202
-203
-237
-282
-288
-260
-233
-210
-193
-186
-169
-140
-125
-124
-128
-137
-140
-131
-139
-166
-165
-122
-82
-72
-74
-66
-48
-27
-14
-7
11
29
29
40
57
40
68
187
304
460
652
545
85
-210
-121
4
-33
-92
-77
-37
-38
-66
-72
-70
-87
-86
-60
-59
-82
-81
-55
-36
-30
-11
40
95
133
179
241
298
342
368
362
337
310
265
209
159
112
65
33
5
-23
-29
-30
-48
-46
-10
29
97
204
326
547
859
1048
1164
1443
1579
1117
376
-56
-164
-198
-212
-202
-203
-222
-252
-280
-293
-309
-330
-338
-360
-409
-451
-480
-519
-547
-559
-572
-563
-516
-458
-387
-314
-253
-142
-26
-36
-15
210
336
137
-67
-61
-35
-74
-87
-86
-108
-115
-99
-89
-63
14
86
71
16
10
26
16
11
15
-6
-33
-40
-45
-59
-70
-76
-73
-73
-100
-125
-112
-93
-113
-143
-152
-145
-110
-54
-44
-87
-82
-11
18
-25
-68
-82
-82
-74
-70
-66
-53
-42
-32
-22
-46
-30
125
279
367
570
675
276
-238
-279
-98
-107
-175
-162
-163
-184
-180
-163
-134
-95
-61
-30
-3
21
52
81
103
133
167
211
278
323
329
371
452
489
488
504
507
464
414
374
306
207
144
143
138
93
42
10
-5
-15
-48
-89
-109
-125
-115
-50
12
117
393
673
785
983
1276
1120
452
-120
-333
-413
-467
-483
-513
-562
-581
-574
-566
-560
-552
-542
-525
-517
-534
-564
-586
-598
-603
-585
-530
-455
-376
-276
-145
-5
110
183
215
216
188
145
114
94
89
104
99
64
47
45
35
44
44
-3
-24
25
46
-4
-21
42
94
84
69
75
62
21
-32
-82
-110
-107
-92
-72
-44
-32
-44
-45
-24
-11
-22
-40
-32
8
28
6
4
37
52
53
57
27
-6
13
27
12
21
20
-1
30
56
58
149
257
363
663
827
396
-91
-112
-46
61
266
-178
-1164
-1409
-834
-423
-342
-306
-326
-316
-184
-63
-8
53
124
175
221
284
343
386
454
549
608
634
669
682
630
566
548
527
449
385
393
395
367
378
393
384
438
491
471
576
740
729
997
1593
1065
-1111
-2888
-2499
-830
262
331
176
228
241
144
104
116
113
86
29
-45
-127
-177
-198
-323
-471
-443
-520
-747
-511
-413
-2093
-4800
-5447
-3069
-203
850
694
707
744
563
654
692
419
682
691
-1156
-2763
-1458
603
710
55
-25
-83
-156
90
264
228
252
277
224
244
302
268
207
201
204
185
162
152
169
221
282
316
310
288
307
367
389
372
399
452
438
406
440
469
438
445
519
555
516
459
373
249
164
138
101
39
-21
-84
-114
-104
-135
-144
-21
136
295
464
302
-287
-684
-573
-413
-468
-502
-436
-393
-373
-353
-350
-321
-270
-190
-10
115
128
357
513
-8
-419
180
862
802
670
768
675
506
524
537
444
389
381
321
214
146
133
105
41
-27
-96
-154
-164
-160
-196
-217
-182
-164
-190
-189
-161
-161
-117
58
232
368
618
715
468
487
503
-967
-3137
-3157
-1121
160
17
-161
-29
-30
-111
-150
-201
-218
-185
-165
-165
-167
-155
-110
-85
-134
-168
-109
-36
-10
13
47
95
176
221
231
278
269
238
364
341
123
369
378
-1255
-2877
-1945
42
470
22
29
84
-49
-16
52
30
74
101
32
18
64
58
42
54
51
53
93
131
135
129
145
168
175
197
208
182
259
379
285
240
422
283
152
675
211
-2114
-3116
-1128
698
569
257
526
629
620
810
973
848
456
154
176
268
231
184
178
180
175
142
191
270
34
-347
-248
176
283
186
240
287
279
318
274
295
469
327
234
804
304
-2427
-4089
-2126
462
784
234
272
333
212
240
264
197
195
225
230
260
278
223
170
179
174
133
127
86
22
93
77
-87
101
39
-1361
-2597
-1668
-39
259
-27
40
142
122
-39
-47
397
-209
-2636
-3721
-1482
780
543
-224
-9
226
102
126
217
179
156
190
210
218
223
221
221
222
217
247
349
365
237
353
614
260
-335
-15
796
1024
877
815
880
1026
797
547
1108
772
-1681
-2775
-550
1323
902
445
654
529
359
540
768
1006
1255
1452
1758
1923
1440
583
63
-32
-54
-130
-206
-274
-340
-394
-438
-477
-532
-610
-665
-677
-710
-772
-833
-925
-980
-937
-995
-1041
-669
-642
-2188
-4078
-3691
-1372
78
-88
-364
-263
-357
