# session 237
1
-87
-143
-224
-266
-220
-222
-222
-159
-253
-299
-92
-257
-438
195
-352
-3429
-5908
-6272
-6340
-4909
-1171
276
-2261
-3834
-2048
144
750
574
504
565
582
557
564
576
539
472
427
425
447
452
426
415
431
423
412
435
431
439
557
711
955
1370
1537
1097
392
87
486
690
42
232
1115
-1116
-4880
-3629
588
632
-1709
-1699
-1183
-1675
-1209
-241
-261
-338
95
315
349
520
658
719
762
728
683
693
663
573
531
611
766
876
892
883
914
942
917
889
894
904
971
1059
980
907
1010
826
394
450
565
-220
-1559
-2691
-3035
-2029
-457
196
68
147
483
669
548
264
170
312
395
388
436
483
469
452
446
431
428
444
441
430
456
505
580
704
780
803
872
849
806
990
858
426
834
549
-2923
-5841
-3407
160
-731
-2993
-2727
-1834
-1716
-1231
-622
-548
-476
-262
-193
-114
14
54
89
144
151
173
247
314
341
338
346
341
310
419
597
627
896
1411
1231
572
332
40
47
856
-399
-3843
-3601
111
-189
-3896
-4139
-1799
-1121
-709
785
1342
861
815
941
794
762
811
766
720
603
404
295
271
237
176
90
43
105
235
375
474
486
473
491
502
509
496
438
491
617
570
564
647
445
492
850
109
-706
260
-312
-4398
-5976
-2240
768
312
24
783
690
95
32
217
343
462
521
538
594
648
666
715
826
894
872
905
994
1026
1114
1180
1071
1199
1385
937
923
1650
-299
-5825
-9459
-7224
-1467
2789
1328
-4522
-6843
-2360
2267
2542
1740
2096
2261
2122
2428
2799
2925
3088
3423
3669
3365
2528
1784
1459
1365
1345
1338
1326
1354
1312
1149
1073
1088
1035
890
498
32
-19
-224
-857
-556
-18
-2253
-7109
-10828
-9503
-3175
891
-2037
-4943
-3160
-2279
-3098
-1234
859
273
-129
522
487
300
582
643
558
648
681
669
727
713
658
703
759
717
674
716
747
689
650
693
705
689
718
707
753
889
692
441
812
523
-1968
-4741
-4735
-2234
75
717
456
513
866
1029
1218
1426
1064
352
134
360
438
371
399
416
369
411
462
391
429
565
482
527
779
429
319
1242
-136
-4741
-6280
-3125
-1975
-3638
-2610
810
2481
1151
-1639
-2548
-1193
-1306
-2342
-891
966
666
295
779
819
714
974
1083
1107
1327
1513
1678
1943
2089
2180
2540
2915
2716
1949
1155
677
469
402
411
410
351
292
265
263
257
142
39
129
14
-296
-2
87
-1587
-3451
-3320
-2713
-3115
-2667
-539
1074
1107
837
920
912
814
807
696
511
482
533
567
683
834
903
1055
1409
1719
1840
1819
1474
803
295
108
-15
-43
-14
-138
-116
62
-164
-295
96
-808
-4054
-7127
-7049
-3723
-153
199
-1836
-2511
-1749
-1553
-1075
229
711
415
542
726
585
577
680
657
636
671
694
674
620
628
682
636
553
565
580
515
448
430
443
451
420
357
314
349
363
214
198
449
97
-886
-622
762
2
-2950
-3676
-1179
690
484
175
362
319
187
215
222
226
263
234
184
166
141
150
195
180
145
186
206
177
269
422
535
846
1203
997
386
6
-8
229
240
-145
152
693
-875
-3309
-2721
219
1239
-750
-2339
-1101
200
-961
-1607
108
1175
652
587
949
838
744
827
734
631
621
542
441
401
365
305
242
219
252
256
222
267
352
359
421
636
868
1126
1387
1469
1654
1985
1627
757
418
-156
-1826
-3185
-3487
-3416
-2469
-675
141
-229
-349
-184
-315
-468
-489
-548
-561
-526
-552
-515
-332
-148
-18
124
252
335
396
362
287
397
521
424
486
829
1148
1453
1158
111
138
310
-2868
-6116
-3873
-474
-1220
-2245
-1363
-1764
-2512
-1298
-239
-435
-262
273
434
672
1086
1314
1482
1668
1700
1636
1569
1429
1252
1154
1083
954
838
794
769
733
688
625
594
614
607
560
546
542
486
451
494
488
401
430
351
-633
-2530
-3771
-2993
-1034
212
331
246
371
443
392
343
320
326
372
412
403
393
427
446
425
428
441
436
453
469
467
481
469
458
488
439
429
558
470
394
648
359
-41
778
480
-2307
-2939
-513
-607
-2833
-2566
-1559
-1999
-1406
-218
-872
-1619
-926
-538
-872
-806
-531
-443
-227
68
211
344
560
751
853
867
862
936
1027
1012
1000
1084
1084
1037
1136
1101
931
1059
952
553
1134
945
-2856
-6170
-3829
-200
-888
-3028
-3101
-2265
-1125
481
1167
790
740
1029
983
845
855
815
734
742
772
752
702
669
699
729
691
716
868
1026
1256
1508
1301
660
361
545
563
414
527
517
265
624
631
-2119
-5850
-5671
-2076
-495
-2012
-2621
-943
535
662
513
565
670
876
826
701
1163
1012
-601
-1243
224
1202
756
574
820
725
620
715
713
699
785
781
698
724
764
679
680
732
536
507
717
333
244
1175
-58
-3946
-4843
-2072
-1252
-2549
-2650
-2303
-1851
-112
1148
767
591
979
871
637
700
681
601
641
656
615
607
623
648
662
658
692
746
749
763
859
947
956
933
877
786
712
621
550
584
465
262
602
523
-2210
-6215
-6516
-2484
300
-970
-2561
-1544
249
676
124
-280
-266
-162
-133
-72
20
99
232
365
409
503
775
1170
1502
1349
536
-307
-583
-550
-600
-673
-700
-742
-757
-734
-751
-678
-310
178
456
495
407
363
449
372
231
469
480
178
822
960
-1638
-3460
-1267
680
-406
-797
556
830
245
377
588
471
665
1077
1283
1426
1685
1780
1402
825
467
253
146
269
128
-595
-944
-286
297
-129
-736
-569
-117
-90
-245
-253
-265
-302
-248
-159
-30
169
304
344
411
476
466
430
384
321
289
287
297
347
390
381
399
422
375
363
372
241
139
154
69
150
406
87
-119
588
-391
-4164
-5898
-2866
486
321
-1705
-2463
-1259
134
316
61
195
297
216
234
248
197
221
257
246
253
266
314
414
420
474
816
967
467
-79
-120
-31
-73
-54
-1
-26
-41
-40
-80
-100
-72
-50
-24
25
71
98
107
115
147
185
189
173
177
176
144
144
159
81
35
110
-34
-433
-483
-110
73
-31
-58
-3
-5
-14
-7
-3
27
66
54
5
-15
-2
-8
-34
-40
-40
-30
4
-22
-98
-56
71
165
332
442
126
-355
-432
-250
-223
-278
-254
-227
-230
-218
-214
-217
-183
-133
-121
-121
-85
-31
12
57
116
178
242
292
305
300
293
248
161
89
29
-45
-102
-121
-130
-126
-106
-96
-84
-34
26
94
294
644
936
1170
1609
2000
1648
639
-131
-308
-300
-350
-365
-344
-353
-368
-386
-431
-459
-457
-483
-531
-550
-562
-587
-575
-518
-453
-350
-183
-33
37
79
119
121
90
42
-28
-78
-75
-59
-35
10
26
-5
-24
-18
-25
-36
-25
3
66
219
443
662
874
1046
1010
744
469
321
226
107
-34
-141
-166
-151
-172
-221
-266
-310
-346
-372
-417
-486
-533
-552
-590
-648
-665
-641
-632
-621
-541
-416
-322
-254
-167
-78
-34
-10
42
73
52
50
88
121
164
204
237
370
505
410
349
705
1112
1068
809
655
485
312
292
234
-9
-182
-157
-128
-169
-189
-196
-227
-257
-275
-285
-287
-299
-314
-275
-175
-82
-25
26
85
148
210
240
237
230
212
193
189
136
77
125
106
-28
94
229
-494
-1921
-2777
-2220
-718
399
477
245
311
361
269
286
326
251
204
237
232
175
137
131
128
133
156
164
138
114
99
69
41
30
9
-9
1
23
33
30
10
-9
9
37
20
-6
31
103
113
58
25
35
26
3
5
10
10
12
13
64
177
306
514
642
308
-238
-342
-120
-84
-153
-113
-87
-120
-119
-110
-107
-73
-45
-57
-53
-8
40
67
85
126
211
296
335
360
393
376
313
274
235
155
84
42
-2
-43
-77
-107
-111
-103
-122
-129
-96
-81
-93
-71
-18
15
21
5
-31
-59
-69
-75
-68
-54
-31
7
-10
-76
-17
152
254
296
219
-118
-407
-338
-160
-96
-106
-167
-138
-87
-203
-88
103
-300
-171
645
-1076
-4671
-4420
-607
1006
197
241
746
580
511
645
517
380
344
230
141
131
99
77
92
85
66
71
89
103
98
81
102
168
216
205
159
118
102
94
77
75
83
74
63
64
109
242
388
538
764
771
280
-219
-233
-88
-116
-162
-153
-167
-164
-146
-165
-162
-125
-129
-153
-130
-77
-52
-51
-24
38
88
117
157
190
192
178
153
111
74
42
1
-36
-59
-75
-79
-79
-65
18
130
208
381
711
1010
1258
1521
1487
948
280
-139
-328
-386
-376
-371
-386
-407
-424
-429
-444
-475
-483
-485
-538
-599
-600
-571
-561
-535
-448
-306
-154
-36
35
68
77
68
45
16
-5
-13
-14
-25
-54
-79
-66
-27
-12
-22
-23
-19
-39
-61
-55
-45
-58
-70
-66
-66
-76
-66
-29
-3
-9
-7
37
93
111
87
58
46
29
11
18
16
-3
11
17
-2
69
175
238
418
567
267
-205
-284
-129
-100
-128
-128
-138
-133
-129
-141
-119
-99
-128
-132
-79
-40
-36
-14
47
121
174
203
236
283
319
324
294
228
152
92
43
-5
-52
-91
-106
-104
-104
-82
-29
33
182
484
800
1097
1519
1770
1316
391
-243
-387
-385
-423
-439
-411
-410
-446
-448
-430
-466
-533
-556
-537
-529
-552
-576
-549
-466
-358
-235
-99
16
77
87
74
53
32
33
45
29
-6
-5
11
2
6
-1
-67
-50
22
-180
-490
-379
-43
16
-55
-5
21
-26
-38
-29
-30
-18
-28
-56
-15
87
138
118
111
126
110
84
94
104
91
107
115
64
102
274
390
518
719
564
17
-251
-109
-19
-36
-20
-46
-75
-35
-32
-74
-57
-29
-68
-115
-94
-21
39
58
83
163
258
296
296
331
377
331
216
153
134
90
51
27
-17
-24
9
-18
-64
-25
3
-67
-95
-15
55
80
55
-17
13
67
-79
-57
224
-145
-990
-866
-7
267
202
424
600
588
474
127
-164
-91
26
-27
-51
-14
-11
-17
-39
-57
13
34
-72
-10
92
-111
-52
281
-56
-47
886
-296
-3051
-2330
-207
-2041
-3827
-1262
920
365
244
82
-1210
-1074
382
553
48
248
392
195
235
369
381
419
415
325
301
312
278
266
265
225
226
247
204
238
414
520
563
627
437
15
-128
30
76
11
26
33
-17
-29
-9
-10
1
19
-7
-22
33
68
62
124
192
207
320
402
308
441
629
35
-711
-370
319
240
-23
65
85
-19
-20
-29
-76
-42
5
15
69
189
387
675
942
1126
1366
1645
1598
1036
284
-226
-408
-447
-475
-493
-503
-520
-525
-525
-554
-602
-639
-662
-682
-723
-793
-843
-836
-790
-719
-598
-430
-272
-159
-66
1
1
-33
-26
1
-18
-65
-87
-92
-91
-67
-32
-15
-16
-20
-26
-39
-57
-65
-65
-65
-61
-54
-57
-63
-54
-32
-22
-24
-1
68
132
137
111
95
78
66
76
78
65
76
64
21
79
191
249
472
810
665
67
-219
-98
-63
-133
-115
-96
-116
-105
-104
-128
-124
-103
-86
-64
-47
-30
17
72
92
124
224
338
384
384
375
341
286
230
168
106
67
42
13
-10
-22
-35
-57
-80
-84
-57
-31
-35
-30
24
71
61
32
14
-1
-9
-1
18
57
140
267
407
574
765
863
874
958
919
447
-120
-305
-273
-304
-332
-333
-361
-358
-339
-375
-413
-410
-427
-482
-527
-553
-589
-639
-669
-669
-656
-608
-497
-355
-222
-114
-54
-39
-35
-33
-42
-52
-49
-37
-23
-2
23
40
43
48
73
110
126
127
161
223
241
194
144
123
98
75
79
69
41
56
67
27
43
132
248
468
605
296
-198
-322
-173
-123
-155
-155
-147
-135
-118
-129
-148
-141
-122
-109
-94
-68
-29
20
76
134
193
250
290
310
323
316
270
199
127
54
-4
-35
-57
-83
-99
-98
-99
-112
-94
-6
97
213
457
766
970
1188
1465
1391
790
118
-241
-348
-365
-372
-389
-390
-381
-392
-413
-426
-442
-475
-521
-558
-584
-612
-613
-564
-495
-407
-257
-84
30
80
104
109
97
76
57
35
0
-25
-22
-9
0
10
19
24
24
12
-3
-9
-12
-19
-26
-21
-6
10
24
36
46
65
96
122
184
356
561
671
770
934
994
871
712
558
335
80
-131
-259
-304
-320
-336
-338
-355
-409
-435
-426
-451
-499
-534
-582
-648
-686
-704
-735
-749
-710
-642
-568
-468
-344
-229
-140
-74
-23
31
93
144
164
155
147
148
138
140
184
247
336
456
579
795
1125
1278
1138
966
772
418
150
93
-56
-292
-310
-187
-180
-236
-232
-204
-196
-207
-245
-300
-343
-369
-369
-335
-294
-243
-145
-16
86
161
223
246
231
216
189
136
103
106
100
96
126
153
142
120
93
61
50
48
27
8
16
31
28
10
-8
-23
-39
-53
-58
-59
-52
-39
-30
-22
-4
17
29
41
57
68
73
74
61
28
6
17
28
12
12
52
78
61
42
22
-9
2
20
-22
-13
34
-50
-67
68
5
103
587
112
-1375
-1568
-342
116
-234
-186
-37
-155
-154
-71
-100
-97
-39
-19
-1
30
37
37
48
67
96
136
180
223
248
247
225
188
140
90
40
-12
-63
-99
-112
-110
-120
-136
-129
-112
-113
-96
-47
-35
-70
-66
1
50
27
-27
-49
-49
-66
-66
-32
-38
-65
-43
-54
-94
-15
121
249
459
491
78
-323
-252
-49
-98
-160
-49
-72
-204
-39
-20
-683
-1060
-416
183
76
-13
160
205
185
272
367
426
472
477
452
408
332
243
167
112
83
67
51
46
62
82
74
38
28
74
