# session 205
-1079
5526
3629
-2024
-1855
3354
6171
5559
5469
6171
5555
4366
4330
4488
3649
2557
573
-2407
-1597
3411
3938
-1191
-2815
-827
-1765
-2291
1223
1676
-4027
-7487
-3455
2076
1572
-2973
-3566
1069
4778
4849
4151
4366
4324
3663
3691
4054
2543
268
805
3051
3325
2499
2740
2756
2124
2404
2506
1695
1953
959
-3737
-5439
-1356
0
-2369
-806
2856
2502
727
1725
2834
112
-3459
-2138
1874
2670
1487
1734
2174
2037
2392
2408
1635
1246
1151
1108
1352
834
472
1878
280
-6377
-7831
-802
1541
-4097
-6206
-4307
-4779
-2971
1530
-1419
-8153
-5086
2665
1110
-4992
-3652
1767
3028
1980
2134
2172
1956
2114
1611
1678
2669
429
-3962
-3222
1583
2873
1400
2171
3102
1962
2810
4534
581
-4229
-2011
-842
-6269
-6839
-635
-167
-4602
-3343
1993
2578
-2999
-7007
-3617
501
-1884
-4420
-1000
2966
2142
-2015
-4790
-2572
1807
3269
2738
2596
2653
3214
2717
-111
-762
872
-2452
-7457
-3903
3004
2187
-1808
-835
2024
2819
1296
-3780
-8032
-4716
166
-1783
-4050
-16
3721
3003
2524
3133
2531
2646
3452
1508
-855
615
2894
2676
2161
2276
2176
2380
1959
1319
2732
2072
-3218
-4346
216
-399
-4422
-1867
2149
1314
1689
2743
-1754
-5224
-2196
-870
-2868
-706
3226
3096
2139
3095
3378
2547
2111
1899
1770
2021
1965
1635
1978
1899
996
1860
2425
-1761
-4587
-224
1608
-4503
-7737
-5072
-4320
-3572
94
-1240
-7554
-7523
-1720
-973
-4703
-4141
663
3398
3058
2629
2739
2599
2455
2480
2382
2258
2180
2033
1972
1961
1792
1735
1745
1470
1480
1699
1180
1353
2314
-852
-7046
-6453
509
2041
-2815
-4265
-15
3607
1002
-5582
-6572
-1130
-193
-4014
-2381
2962
4016
2593
2413
2172
1722
2025
2070
1696
1939
2073
1442
1727
2292
-1236
-7563
-7968
-1004
3229
84
-3064
-2103
-1968
-4191
-3448
1600
3915
-1631
-7779
-5106
323
-1562
-4692
-926
3516
3116
2178
2772
2706
2280
2421
2409
2130
2098
2191
2049
1862
2009
1966
1558
1877
2137
1169
1642
2751
-1575
-7503
-5687
-1301
-2437
-3080
752
2868
1732
1073
1855
2574
360
-3632
-2835
2102
3484
1510
1297
1954
1492
1419
1819
1522
1415
1724
1237
1093
2063
760
-3810
-7484
-8386
-6916
-2436
2103
2408
-261
-3106
-4352
-1818
1425
-516
-5866
-8563
-6240
-1335
5
-3144
-3044
1718
3804
2474
2305
2886
2585
2431
2600
2473
2318
2316
2270
2059
1932
2146
2072
1756
2168
2021
984
2004
2326
-2610
-5414
-1585
-1693
-6186
-3726
823
-510
-274
1402
-2477
-3966
431
-178
-3770
-769
3248
2284
1393
2282
2085
1643
1965
1937
1684
1818
1858
1595
1610
1869
1664
1480
1836
1470
1124
2425
961
-5115
-6351
-442
377
-5357
-5882
-1264
743
1700
2051
-2910
-7526
-4216
-656
-3301
-4046
530
3003
1935
1778
2317
1975
1808
2023
1895
1736
1760
1610
1374
1351
1375
1258
1235
1239
1000
1058
1350
806
638
1582
-727
-6231
-6204
-1105
-1022
-3279
-660
-294
-4372
-2615
1721
-1257
-4229
-110
3219
2152
1798
2526
2237
1991
2123
1984
1996
2086
1984
2054
2041
1978
2245
1871
1468
2709
1441
-5061
-7562
-1347
1929
-2831
-5714
-4304
-4022
-2822
-127
-2477
-7956
-7203
-1468
-202
-3649
-3734
687
3445
2994
2613
2941
2813
2543
2547
2530
2361
2104
1925
1944
2023
2021
1889
1784
1919
1964
1916
2322
2256
1245
1426
1420
-3241
-8322
-6387
-2670
-3508
-2299
2208
-56
-6218
-4559
-169
-2606
-5037
-929
3050
2802
2241
2697
2602
2317
2451
2556
2428
2328
2394
2161
1699
2109
2154
-1335
-6762
-8029
-3273
2021
2172
-1060
-2723
-3242
-3274
-17
2198
-2406
-5752
-1621
160
-4104
-4297
938
3431
2604
2514
2832
2510
2342
2310
2098
2119
2218
1932
1710
1974
2223
2253
2487
2731
2489
1870
1339
1472
1877
1234
-181
-1986
-5078
-6362
-2238
1993
1599
1443
1980
-2518
-7142
-4127
8
-2349
-5668
-3719
626
2903
2977
2682
2632
2391
2174
2369
2451
2182
2090
2077
1871
1925
1953
1556
1995
2354
-1311
-7133
-7813
-3331
157
1302
868
-1723
-2841
-85
214
-5234
-8624
-4916
-713
-2013
-4166
-1513
2508
3170
2337
2381
2427
2247
2175
1715
1391
1802
1905
1482
1528
1481
1089
1823
1662
-2811
-7064
-4868
279
3147
3425
-458
-6119
-5177
-255
-1376
-4425
-938
2930
-631
-6627
-6921
-1894
1022
-1824
-4311
-1224
2957
3590
2850
2950
3059
2874
2796
2782
2718
2530
2546
2701
2131
1942
3012
966
-5425
-6962
-193
3530
-976
-4454
-3551
-3704
-3030
1633
2449
-4437
-7762
-1914
1936
-1572
-2847
1492
3917
2841
2721
3612
3524
2871
2320
2019
2125
2178
1912
1851
1909
1652
1657
1810
1219
1273
2388
591
-4149
-4750
525
3807
258
-4276
-2693
1745
2064
619
1823
2023
-238
-389
478
-943
-1116
1461
2408
1372
1325
1778
1482
1253
1490
1433
1088
1342
1483
676
1131
2241
-872
-4920
-2230
1546
-2387
-7632
-6487
-4066
-4709
-3932
-492
-734
-6252
-8730
-3823
273
-2385
-4764
-1195
2973
3418
2765
2612
2164
1904
2116
2111
1933
1848
1767
1752
1722
1615
1674
1694
1497
1583
1604
1131
1562
2012
-1640
-7376
-7696
-3518
-2199
-3087
-637
3410
2338
-4317
-7902
-3401
787
-2122
-4526
-524
3524
2952
1158
1118
2132
2632
2403
2320
2194
1932
2346
2193
1375
2641
2758
-2417
-5354
-1840
-918
-3449
-2102
-515
-2075
-1204
1385
2053
2629
912
-3854
-3886
-306
-2133
-5286
-1944
2648
2887
2107
2485
2529
2279
2292
2230
2168
2217
2187
2139
2105
2058
2021
1868
1829
2013
1737
1524
2328
1374
-3711
-8036
-6179
-825
2407
2158
1134
2003
2465
-416
-2379
-747
-1135
-3938
-2597
1947
3476
1103
-1613
-1287
1456
2665
1882
1699
2044
1939
1849
1810
1788
1835
1442
1475
2216
-23
-5936
-8415
-4192
-98
-436
-1822
-2858
-3832
-1827
1562
122
-5046
-7918
-6601
-2493
144
-2104
-4142
-582
3602
3236
2135
3357
3126
260
-488
1849
3350
3094
2417
2332
3528
2564
-2488
-4261
342
3346
2782
2944
1229
-2721
-1562
3156
1633
-4148
-3542
1653
993
-2928
-300
3763
-914
-7495
-5410
-320
-897
-4132
-4700
-2363
1215
3402
3006
2410
2698
2522
2273
2443
2058
1937
2511
1329
-1039
-1574
-2479
-5781
-6727
-4014
-3009
-3255
-547
753
-4181
-8058
-3705
1633
-322
-3533
-603
3618
3704
2695
3050
3108
2684
2736
2748
2425
2442
2597
2262
2168
2466
1897
1728
2968
1289
-3047
-1796
2630
-928
-7577
-5516
-924
-2630
-3674
494
2983
1951
1836
2514
2228
2066
2323
2204
2058
2151
2101
2060
2144
1974
1806
1928
1731
1548
1977
1612
986
2323
1805
-3111
-4062
839
-261
-7164
-7224
-3002
-3401
-2988
194
-2764
-7924
-4760
-102
-2747
-4921
-685
3190
3019
2509
2852
2731
2551
2627
2492
2396
2434
2337
2439
2534
2136
2184
2521
1781
1878
3132
738
-2881
-530
1301
-4667
-7644
-2123
-301
-3508
-754
3474
-1512
-8000
-5186
-3
-1175
-4002
-4051
-3922
-2766
1266
3993
3357
2819
3196
2960
2802
2882
2484
2720
2417
-2102
-7075
-4438
1818
1470
-2412
-1921
-1111
-3770
-3341
946
506
-5140
-7561
-3793
1076
1190
-3187
-4666
42
3164
325
-977
2699
4864
3641
3349
4082
3640
3255
3765
3398
2834
4062
3532
-1796
-5029
-994
2085
-2176
-5531
-1190
3447
2540
2145
3606
-157
-5080
-1878
2506
-724
-4551
-4018
-3940
-3297
1121
4617
4343
3703
4159
4575
4185
3326
3403
1969
-4059
-7302
-1686
2424
-1091
-1903
1313
-848
-3672
698
3025
-3203
-7136
-2391
2579
1237
-3482
-5653
-2238
1659
-904
-4741
-1459
3894
4098
2781
3400
3296
2485
3155
2732
-2015
-7369
-6196
1057
4502
-534
-4665
-1068
2969
2709
2632
2227
-403
-3
2612
216
-4241
-4801
-4367
-3937
-440
3301
3769
2748
2233
3061
3366
-1342
-7137
-4619
2393
3414
552
-280
-931
-1428
-87
-1798
-6989
-6438
580
3527
-541
-4614
-4429
-1034
2685
4009
3396
3198
3438
3205
3007
3004
2722
2528
2597
2316
2209
2748
1014
-4735
-8376
-4683
57
319
1314
3567
623
-3334
-1616
-223
-3011
-4697
-4504
-3626
211
4410
4601
3222
3472
3946
3126
2711
3988
2906
-2770
-4811
1052
3162
-4177
-7324
-56
4170
356
-1079
-451
-4821
-6595
-648
1571
-2970
-4496
-3258
-3809
-1872
3164
5152
3983
3528
3932
3723
2841
3082
4172
1548
-2922
-717
3928
-316
-7017
-4340
1648
2872
2765
1109
-4482
-6507
-1790
556
-2696
-5079
-3573
43
3417
4583
3908
3363
3750
3884
2782
2965
4576
1271
-5064
-3890
644
-2615
-6411
-1317
4146
2534
-1722
-5725
-8009
-4547
1152
846
-3417
-4672
-3603
-3294
-3662
-4110
-2567
1995
5069
4228
3610
4241
3316
3015
4423
1953
-2431
343
4973
77
-7113
-4887
1692
4108
1615
-4073
-7416
-3870
169
-1740
-5153
-4795
-1349
2482
4124
3542
3227
3563
3422
3227
3265
3202
3190
2946
2806
3370
2474
275
1575
3629
-901
-6079
-3779
-409
-255
529
-1269
-6340
-5095
1810
3556
-379
-4101
-6135
-5121
-618
2912
3144
2640
2331
1635
1572
2276
2493
1965
1531
1914
1994
1000
1643
2874
-876
-4774
-613
2546
-3863
-7729
-1958
2272
1041
718
1032
713
1710
404
-4388
-4790
329
2835
1617
1381
1858
1373
1149
1496
1494
1382
1471
1410
1331
1444
1344
1217
1507
1041
-1224
-4191
-7004
-8945
-7366
-2942
-2045
-5831
-6428
-1267
2020
842
1065
2171
-881
-3611
-497
3007
2389
1534
2199
2224
1889
2117
2161
1904
1847
1854
1732
1591
1537
1474
1429
1760
2110
1906
1959
1866
-472
-3003
-2486
-2460
-5152
-5282
-3078
-4416
-5755
-1712
2281
2113
1534
1458
544
537
1655
2193
2020
1505
1811
2857
843
-3387
-2926
1614
3115
1537
1319
2083
1459
779
1922
1414
-3699
-6930
-2681
2398
1656
-1650
-3113
-2734
-3277
-6015
-5505
-112
58
-5437
-4056
1067
-1303
-4022
402
3679
2337
1835
2486
2458
2183
1888
2745
3347
45
-3389
-1454
2120
2929
1869
-411
-2005
-211
2572
2579
948
1478
3324
448
-5430
-4901
-349
-392
-945
1279
-406
-3817
-1245
2778
2272
1073
1862
2197
1649
1595
1972
2173
1976
1667
1808
1895
1407
1714
2446
-55
-4825
-4682
1451
4411
-355
-4249
-707
3736
3794
3460
3421
1165
-194
-229
-3551
-7432
-5646
-584
1092
-2075
-4952
-2984
291
478
504
1303
-982
-4059
-3300
-1094
-117
853
1508
1192
1229
1705
1765
1786
2009
2081
2025
1892
1741
1810
1746
1364
1288
1254
847
1233
1825
-88
-3920
-6893
-7790
-5484
-1798
-2092
-4640
-2280
2378
2287
1177
3166
1567
-4175
-3851
949
-94
-2938
437
4075
2722
2060
3746
2324
-1172
-997
1711
3026
3064
999
-3916
-7096
-6158
-4448
-1808
3123
4472
-441
-3540
-2037
-2557
-4617
-3596
-2454
-2511
-158
2894
3261
2392
2429
3570
3437
501
-1169
-263
-1273
-2285
1040
4067
3212
2491
3300
3246
2626
2895
3203
2402
2258
3522
1565
-4333
-6962
-5958
-6632
-4810
1290
1829
-2246
-362
2582
-639
-1084
3512
1610
-4685
-2991
2734
2740
1911
3611
257
-5376
-3856
-1107
-3273
-2455
2203
3299
2789
2431
-1262
-3338
737
3954
2902
2185
2270
1614
1532
1688
1428
1710
1415
803
2179
1331
-4792
-7099
-1706
954
-2304
-4394
-4576
-4280
-1275
1958
1655
757
1738
1904
841
1423
2192
110
-1467
326
1765
1760
1953
-366
-4008
-2613
1604
2195
961
1213
1536
1270
1114
1070
1243
1010
663
1696
1367
-3153
-6197
-2534
2414
1725
-2323
-2907
161
1126
394
1691
497
-4479
-3975
777
-1218
-5775
-2942
1891
1852
885
1550
1612
1235
1371
1367
1279
1391
1311
1250
1336
1152
1190
1448
897
970
2131
-799
-7482
-7260
469
2504
-2658
-4862
-4578
-5426
-3024
-554
-4810
-6871
-82
3265
-1823
-3357
1307
3370
2265
2515
3254
3144
3430
4030
3994
3230
2147
1677
1779
1346
1297
2107
672
-2672
-2483
952
1912
494
712
1643
836
584
1976
522
-3205
-2128
1109
-1835
-5910
-3217
913
1913
2037
-1375
-7456
-6895
-2032
-2216
-2355
1727
985
-3588
-1568
3379
3288
1878
2617
2820
2267
2352
2373
2147
2176
2173
2080
2067
2045
2055
1914
1721
2024
1958
1178
1850
2526
-1318
-6195
-5245
-2278
-3865
-5789
-2160
2444
1083
-3819
-6456
-7201
-6500
-1812
2277
-828
-5081
-2238
2950
3918
3326
3988
3841
2736
2719
2977
2427
2681
3206
819
-3929
-7260
-6810
-2565
2028
3215
2796
3034
1665
-1155
-1834
-658
-454
-1100
-518
1563
2842
2306
2373
3332
771
-5571
-7724
-2066
2725
-404
-5042
-3162
1982
3770
2967
3047
3214
2615
3317
3568
-730
-4433
19
5137
143
-6942
-3729
3862
5511
3912
3440
2658
2368
2999
1169
-1824
-2678
-3422
-3255
395
1043
-4213
-5037
576
1249
-3864
-6245
-6223
-5823
-2671
-686
-3044
-2823
1847
4104
3404
3275
3334
3663
3728
832
-2119
141
4328
3700
-1109
-4951
-6383
-6666
-4894
-451
3758
4551
1323
-2745
-1947
3256
4508
-545
-3820
-1598
-489
-3683
-4376
502
3784
3006
3804
4054
-1246
-4844
-1926
-509
-1745
1092
4715
3790
2704
4067
3020
-2110
-5485
-2033
4045
3880
-2834
-7547
-5645
-379
3554
3938
2633
3292
4025
1206
-531
1948
1515
-2892
-3489
-2131
-4101
-3807
1052
2997
1890
2958
2166
-3148
-4124
1121
1558
-3717
-3594
2218
4507
2771
2653
3829
2377
-617
-545
2315
3297
2079
2369
2942
-1268
-7743
-7593
-1229
2492
2837
3380
717
-4179
-3524
-324
-2029
-3643
-1000
-1254
-5374
-4888
-139
2224
3373
3624
-1918
-6772
-1724
3156
-1118
-3202
1843
3944
2733
3216
1207
-2573
-708
3504
3224
1930
2884
2585
927
928
1519
2029
3226
1149
-4692
-5253
1202
4094
264
-3160
-4043
-4401
-2539
1576
2981
-304
-4810
-7837
-8121
-4658
-1423
-3066
-4774
-920
3499
3551
2678
3237
3308
2857
2951
2867
2488
2629
2596
2114
2460
2535
1313
1938
3093
-1187
-6550
-5017
-1251
-1181
-2127
-2179
-1177
722
434
-1469
-472
2866
3694
-643
-5617
-3969
78
-2216
-5059
-741
3928
3405
2574
3374
3245
2934
3322
3025
2790
3582
2502
-2352
-7249
-7594
-4378
-2404
-2256
-945
-626
-3300
-3050
942
354
-4971
-7559
-5886
-2550
-780
-2808
-3740
1043
5902
6129
5564
5797
4440
2893
3040
3375
3369
3255
2557
2849
3663
500
-4870
-4724
1170
5027
1569
-5110
-5427
-4
476
-3189
-1428
3165
3521
2461
3109
3369
3090
3248
3167
3050
3076
2714
2742
2859
2008
2323
3378
303
-4296
-3227
1231
3334
2325
-1052
-2555
661
917
-4696
-6356
-3267
-3857
-5042
-1080
1344
-3151
-8102
-6699
-1623
-362
-3542
-3944
187
2769
2160
1826
2208
2097
1887
1824
1726
1509
1228
1438
1644
1205
1779
2722
715
-2013
-2541
-4245
-5715
-1845
1341
-1927
-3923
-402
1958
700
-292
446
1201
-310
-4111
-6494
-4538
-310
2147
2011
1575
1859
1817
1572
1845
1664
1190
1918
1513
-1871
-2560
1395
406
-7342
-8612
-1300
606
-3939
-3119
965
-1488
-7288
-8533
-5180
-1251
-589
-3704
-5488
-2037
3313
5527
4711
3841
3693
3419
3134
3232
3281
3085
3135
3270
3004
3175
3811
2768
950
1612
1931
-1304
-2047
2162
3234
579
1458
4603
6215
6358
2872
-1283
1034
5417
4356
-96
