# session 255
-45
-83
-88
-23
-77
-184
-49
-27
-248
53
247
-1445
-4291
-5705
-4470
-1188
1551
1233
-313
-84
627
106
-269
-33
-237
-489
-269
-187
-348
-344
-246
-203
-189
-214
-234
-232
-272
-326
-343
-365
-388
-339
-223
-104
25
200
363
450
468
438
426
445
341
244
428
528
477
949
1035
-673
-2051
-550
1650
1710
763
462
379
145
56
84
88
58
-15
-65
-72
-125
-198
-206
-194
-221
-277
-297
-243
-179
-145
-51
88
150
202
351
479
498
490
455
412
428
380
275
321
301
134
220
-31
-1329
-2100
-985
324
347
43
100
97
66
173
180
84
74
92
76
79
76
43
51
79
43
26
99
124
86
116
130
92
101
13
-52
163
73
-224
335
190
-2545
-4364
-2085
545
423
57
454
-131
-825
-155
562
397
280
456
433
322
296
250
245
301
285
274
387
521
714
1020
1010
436
-89
-88
64
34
-11
5
-21
-44
-33
-68
-90
-37
-26
-23
45
-23
-123
62
47
-638
-1399
-1696
-1449
-558
356
484
274
314
309
169
146
122
11
-29
-21
-51
-57
-37
-36
-15
32
91
203
328
438
688
1047
1276
1505
1917
2031
1385
417
-146
-223
-308
-552
-452
-157
-621
-1402
-1101
-225
-110
-351
-243
-205
-382
-404
-387
-527
-592
-473
-344
-247
-127
-59
-64
-35
-4
-80
-164
-135
-87
-100
-106
-61
-14
-25
-64
-19
70
49
15
75
53
30
122
-44
-161
338
60
-1971
-3297
-2166
-554
-25
105
206
156
203
314
278
226
238
223
203
231
270
270
260
291
289
233
298
466
607
935
1333
1112
380
27
182
309
201
111
298
309
-56
225
588
-969
-2541
-1016
786
-425
-1624
-337
847
613
553
841
799
837
950
776
810
901
178
-556
-130
465
236
-14
152
178
89
193
243
144
194
301
224
215
320
227
286
502
91
-63
751
-127
-2949
-3155
-635
-122
-1688
-2356
-2003
-1083
284
835
498
498
629
272
-6
130
248
220
212
220
220
236
246
234
232
275
309
264
258
358
380
404
579
522
406
902
583
-2371
-5211
-3871
-298
950
346
420
410
-421
-736
-713
-1097
-693
550
944
605
563
520
319
325
285
111
222
461
428
324
372
399
342
331
367
402
439
414
322
342
483
577
704
884
702
122
-170
71
216
-8
-36
133
-421
-1640
-2380
-2431
-2069
-1004
178
473
384
387
2
-258
280
763
674
663
832
810
700
627
524
432
355
240
179
203
158
66
107
152
59
67
135
17
94
303
8
186
1157
-177
-3910
-4080
590
2934
99
-2076
-808
54
-732
-576
348
325
48
270
303
79
42
46
-70
-168
-192
-214
-282
-360
-403
-406
-323
-154
-7
115
284
395
358
313
340
326
283
304
289
233
285
296
201
256
245
44
256
314
-947
-2017
-1012
433
477
151
291
303
187
287
360
298
268
252
231
276
313
254
196
235
273
239
222
240
262
336
340
217
292
471
452
768
1269
888
432
431
-1427
-4224
-3200
277
316
-2138
-2105
-26
854
344
-57
142
448
545
629
516
299
779
906
-839
-2105
-589
1159
1008
615
835
797
601
562
416
293
343
326
241
216
204
235
210
47
215
403
-1388
-5023
-5947
-2286
509
-847
-1935
-725
-644
-1423
-354
890
522
181
504
514
381
558
725
764
865
888
585
200
163
366
447
409
396
409
404
372
409
479
405
388
500
319
263
740
149
-1866
-2200
-43
1159
537
692
1198
-452
-2625
-1975
286
1004
531
558
725
566
643
652
298
551
785
-861
-2608
-1480
673
917
393
611
789
603
567
582
503
458
408
362
372
370
352
336
311
348
447
554
651
601
403
108
-663
-1842
-2345
-1736
-845
-259
64
135
30
28
156
152
95
218
164
-6
460
504
-1344
-2773
-1256
871
1039
590
768
832
592
513
522
408
321
375
278
103
328
320
-173
351
647
-2110
-4353
-1878
488
-1244
-2609
-1699
-1610
-1651
-102
888
423
263
582
601
588
709
699
599
581
676
791
965
1375
1634
1138
343
114
315
342
213
233
245
97
200
369
29
134
775
-764
-4053
-4285
-1022
1148
454
-1587
-3122
-2313
-37
625
-78
75
443
-48
-411
-244
-173
-113
161
385
464
522
579
604
583
552
565
573
534
514
535
550
561
571
562
545
504
445
470
514
426
380
436
337
321
502
286
227
1022
793
-1087
-1841
-1337
-1690
-1556
59
723
140
215
606
472
373
440
391
395
437
359
294
322
379
418
377
352
462
538
486
477
476
400
400
360
160
168
206
-99
119
341
-2003
-5084
-3781
-29
159
-1875
-1934
-1332
-1331
-163
1344
1180
362
82
-114
-250
-98
39
90
177
201
161
159
168
160
141
95
44
20
4
-13
8
96
224
332
418
514
614
660
609
545
545
473
368
425
244
-225
53
607
-194
-1056
-534
-748
-1684
-735
97
-1437
-1865
122
1018
414
416
665
474
457
555
418
353
459
470
374
317
343
408
413
344
353
453
475
473
478
325
299
487
258
124
731
322
-1387
-1679
-911
-1205
-1093
-89
-665
-2262
-2409
-1197
188
648
-17
157
975
-869
-3848
-2913
364
1134
302
478
803
563
542
677
641
698
795
740
755
873
890
911
911
725
738
815
303
262
994
-511
-4022
-4251
-821
1026
284
-141
-6
-716
-1726
-1439
-49
670
414
361
607
584
459
419
367
384
412
314
256
325
352
315
283
296
413
538
605
780
870
491
16
-16
129
133
108
64
58
168
127
13
134
62
-164
101
-147
-1579
-1933
-375
545
116
53
432
451
427
558
522
386
330
270
172
96
45
11
0
-6
-23
-39
-23
32
70
44
35
100
120
57
66
145
165
130
24
-30
168
76
-540
-376
399
-420
-1899
-1730
-1749
-2533
-1137
138
-2324
-3830
-1062
910
106
-11
676
503
283
454
388
282
348
338
316
361
364
374
401
367
354
417
470
498
536
591
652
661
639
681
656
517
471
320
-13
167
440
-610
-2093
-2007
-938
-359
-179
-125
-255
-262
-88
7
75
226
362
421
419
384
348
317
301
306
299
271
261
272
291
311
311
364
527
705
1000
1311
756
-305
38
621
-1668
-4421
-2961
424
826
-746
-995
-126
298
242
228
271
287
338
400
440
483
479
461
502
415
170
152
370
396
235
173
137
37
48
139
79
-1
91
78
-45
145
159
-599
-1008
-254
344
92
4
168
-52
-55
300
-420
-2045
-2269
-808
108
-295
-777
-794
-768
-703
-373
41
381
690
738
379
61
105
220
210
197
208
202
210
202
173
225
309
280
259
312
266
301
501
373
283
785
422
-1226
-1367
398
950
241
414
322
-1271
-2063
-712
497
-327
-1692
-1339
-31
358
408
547
-416
-1333
-263
1083
955
783
1404
1886
2036
2062
1668
986
486
185
-11
-34
3
-43
-81
-69
-116
-190
-216
-262
-331
-389
-523
-581
-406
-685
-1922
-2845
-2087
-571
83
-28
-68
1
8
99
268
333
317
347
394
367
311
318
342
302
260
273
266
247
300
333
304
343
361
280
290
273
172
358
367
-51
410
583
-2536
-5503
-2978
376
-1257
-2847
-698
-141
-1925
-1180
565
-19
-457
562
818
438
672
900
771
755
830
856
938
1231
1648
1568
827
291
373
509
446
402
397
394
416
404
361
330
326
384
365
251
369
473
161
127
473
-16
-1028
-1408
-1723
-1941
-824
683
894
429
134
-276
-657
-682
-588
-461
-211
16
162
280
330
329
357
425
521
614
708
927
1271
1531
1729
2120
2443
2041
1066
384
137
-91
-54
218
-929
-4312
-6664
-4548
-970
-616
-1495
-882
-1090
-1713
-156
117
-2839
-3452
-467
915
199
321
818
709
747
913
799
756
909
1037
1093
1137
1340
1724
1993
2013
1804
1395
940
374
-98
212
255
-1932
-4704
-4633
-2209
-152
628
74
-1246
-1492
-345
315
-347
-1322
-1445
-534
395
575
545
723
772
670
661
661
603
581
586
567
544
534
528
507
467
438
430
437
442
428
435
477
480
463
462
387
350
423
308
226
488
315
-44
640
398
-2546
-4062
-1403
1016
301
-1045
-1457
-1195
-183
672
532
290
458
475
351
397
440
372
325
321
327
333
313
286
284
265
216
232
296
247
163
261
368
315
303
263
121
275
334
-87
256
719
-1553
-4334
-2701
696
375
-1905
-2425
-1857
-1181
-183
323
106
85
276
253
237
332
351
338
367
380
377
392
416
424
420
419
442
524
646
713
701
724
815
853
796
736
703
617
475
397
381
283
183
236
217
59
99
64
-481
-892
-896
-1421
-1905
-606
807
-1261
-5040
-4926
-1067
1018
241
212
905
-465
-2311
-1438
543
876
428
479
608
681
858
973
1014
831
374
191
404
485
395
407
400
307
309
321
232
289
380
155
174
505
-383
-2158
-2049
-139
736
357
339
543
400
329
416
344
205
137
83
40
14
-33
-83
-97
-93
-102
-120
-130
-110
-52
-3
-7
0
85
165
160
139
134
96
64
76
61
39
75
87
65
70
-9
-103
23
150
87
172
303
20
-308
-192
-2
-42
-71
-17
-14
-47
-69
-89
-103
-114
-114
-90
-66
-57
-24
38
82
120
192
268
319
367
384
336
285
252
152
22
13
21
-93
-99
-29
-190
-184
-13
-959
-2613
-2482
-654
228
-191
-315
-9
59
17
57
49
21
56
87
77
84
108
94
86
100
65
91
263
408
601
990
1043
446
-59
8
130
20
28
179
122
4
126
46
-289
-16
320
-630
-1844
-2033
-2099
-1949
-511
828
713
446
778
887
740
736
667
481
390
353
285
242
239
250
265
264
243
233
243
258
262
263
296
316
261
292
434
381
276
411
304
65
469
457
-972
-1844
-832
514
759
-330
-1463
-957
-403
-1414
-1432
230
607
-93
151
446
166
307
416
68
352
590
-737
-1780
-599
743
561
270
538
578
503
634
675
687
811
788
746
871
724
536
897
210
-3115
-6074
-4724
-946
776
178
-718
-1517
-1667
-386
838
615
187
498
753
710
723
638
578
675
445
309
768
284
-1413
-1535
299
1249
894
849
1078
1028
920
893
1078
1352
1133
529
117
21
206
183
-244
110
566
-1514
-4208
-3120
40
708
-863
-1838
-1314
-261
121
-122
-167
-16
-12
-30
17
75
124
135
240
340
27
-353
-117
310
266
97
162
222
200
238
284
256
205
202
236
265
270
245
243
313
287
156
197
199
-50
72
272
-678
-1716
-957
296
232
-71
338
589
553
803
851
277
-179
-82
60
-6
-48
-5
35
28
-23
3
87
67
117
287
76
-377
-237
298
415
316
437
524
531
645
621
503
614
496
86
282
325
-1083
-2051
-916
193
39
-131
-218
-139
418
-478
-2695
-2479
-126
549
-115
62
354
136
215
420
252
183
517
836
826
721
738
569
370
827
1037
108
-25
682
-1239
-4158
-2932
146
371
-205
96
-982
-2184
-1012
384
192
-76
170
289
269
177
292
495
-64
-593
-152
-509
-1851
-1396
432
854
349
406
506
386
461
503
417
435
443
440
494
409
383
556
305
-284
-300
29
-170
-1103
-2284
-2253
-520
617
6
-340
274
455
200
268
397
356
352
375
374
372
385
469
568
740
1119
1230
647
87
175
351
214
147
225
201
145
136
137
196
147
-15
128
200
-496
-1014
-378
330
258
168
362
392
334
383
397
351
292
174
47
-2
-14
-49
-71
-48
-27
-55
-87
-83
-75
-52
-11
-66
-116
2
-19
-144
133
192
-255
225
548
-1955
-4177
-2106
128
-1595
-3357
-1968
-105
267
86
-27
-145
-219
-143
62
-40
-429
-135
458
-285
-1454
-875
451
587
234
347
459
414
460
497
479
469
489
535
515
583
773
635
584
1102
656
-1092
-1377
40
39
-1375
-1447
-168
584
543
467
519
529
549
721
1004
1213
1399
1848
2391
2345
1565
735
352
262
217
182
150
74
-18
-11
88
48
-127
-98
-12
-177
-122
73
-309
-217
667
-536
-3260
-2589
344
31
-2215
-2147
-643
556
1181
-38
-2147
-2228
-1132
-1085
-1122
-178
496
-276
-1271
-437
846
-101
-1288
-54
1356
1065
776
1109
1117
1065
1348
1522
1512
1603
1662
1478
1321
1485
1621
1308
748
361
413
627
183
-593
-450
-119
-1145
-2354
-1833
-352
405
318
112
152
88
-517
-966
-673
-913
-2550
-4478
-5542
-4722
-1784
367
-739
-2616
-2099
-82
1180
1322
1156
1127
1136
1112
1128
1129
1068
1035
1036
1000
959
928
880
854
809
694
703
759
536
501
791
-75
-2195
-2869
-1205
342
460
217
207
104
-84
-142
-102
-106
-160
-97
97
199
144
83
82
105
90
15
-23
44
109
103
92
76
17
1
74
94
17
19
91
47
25
161
239
374
733
680
-37
-579
-548
-212
-45
-975
-2491
-2312
-543
254
-224
-369
-89
-50
-96
-44
-17
7
67
125
169
188
219
309
373
372
381
380
314
262
260
223
145
118
152
165
143
127
120
139
144
43
46
265
-99
-1463
-2305
-1316
209
622
370
367
461
427
452
597
795
974
1083
1220
1390
1372
1190
1149
1201
983
536
281
253
169
139
260
180
95
294
75
-206
437
44
-2365
-2874
-691
-363
-1783
-1183
246
108
-207
157
233
161
359
420
332
394
473
444
422
432
414
369
324
284
261
232
171
157
191
131
67
97
-4
-72
119
-200
-1084
-1104
-609
-1498
-2957
-2655
-1069
-212
-293
-417
-419
-504
-571
-575
-645
-706
-639
-545
-435
-206
