# session 141
-161
14
-40
-528
-1248
-1761
-1970
-2047
-2084
-2093
-2088
-2083
-2091
-2096
-2090
-2102
-2141
-2177
-2205
-2238
-2281
-2320
-2315
-2238
-2083
-1843
-1569
-1351
-1182
-1022
-922
-862
-716
-469
-232
-37
157
336
462
545
641
780
924
1039
1138
1226
1298
1377
1498
1634
1723
1768
1830
1912
1955
1982
2061
2118
2043
1922
1852
1720
1436
1104
822
579
358
173
11
-155
-295
-392
-523
-647
-629
-564
-508
-313
-268
-779
-1378
-1452
-1307
-1362
-1442
-1415
-1426
-1504
-1560
-1580
-1593
-1609
-1585
-1459
-1242
-1008
-802
-628
-489
-399
-355
-309
-235
-183
-184
-193
-194
-224
-282
-327
-350
-363
-352
-298
-232
-199
-170
-100
-18
30
88
206
358
519
693
851
948
965
913
850
875
1016
1187
1299
1332
1295
1196
1079
1024
1141
1420
1488
1066
557
418
437
349
287
296
257
191
127
50
12
0
-72
-164
-208
-231
-237
-217
-235
-296
-309
-252
-176
-101
-41
-7
27
76
113
129
136
119
89
88
110
111
84
56
44
59
95
118
134
209
335
422
457
521
613
652
693
811
827
566
206
-82
-354
-572
-690
-777
-718
-526
-636
-1073
-1242
-1000
-841
-984
-1170
-1193
-1125
-1075
-999
-864
-755
-671
-511
-316
-217
-203
-189
-169
-149
-117
-92
-94
-104
-111
-131
-167
-197
-227
-298
-415
-512
-549
-515
-380
-194
-105
-111
-50
97
204
243
291
438
661
797
876
1143
1402
1121
364
-304
-675
-838
-799
-632
-487
-365
-211
-47
94
198
252
286
341
396
423
449
503
592
756
987
1140
1123
1029
954
882
818
821
941
1164
1339
1275
993
687
466
293
135
17
-66
-157
-260
-338
-393
-440
-473
-501
-539
-571
-585
-586
-589
-612
-647
-643
-579
-506
-478
-496
-508
-494
-500
-522
-496
-451
-444
-426
-412
-427
-339
-146
17
206
315
-7
-504
-582
-373
-320
-355
-312
-285
-295
-267
-241
-253
-236
-172
-123
-114
-101
-60
-20
19
99
195
249
300
371
392
358
331
300
235
172
128
85
50
40
50
52
34
26
52
91
141
206
296
483
789
1042
1165
1360
1623
1548
985
329
-67
-230
-293
-313
-320
-328
-337
-353
-376
-396
-413
-441
-488
-533
-561
-588
-614
-606
-553
-469
-343
-181
-46
44
141
223
212
140
104
109
100
70
64
82
78
61
82
99
63
43
70
53
-1
5
35
-3
-67
-85
-80
-83
-94
-110
-120
-103
-48
13
26
-9
-27
-18
-19
-23
-21
-19
0
3
-32
3
109
176
300
445
249
-212
-393
-261
-197
-228
-211
-199
-221
-219
-199
-202
-207
-184
-152
-141
-133
-91
-35
4
47
115
184
238
276
303
330
336
300
259
230
182
130
110
97
66
50
60
62
53
62
88
104
100
110
151
162
105
48
43
32
-5
-20
-22
-43
-48
-43
-74
-78
-10
74
203
325
175
-175
-290
-147
-68
-80
-61
-49
-63
-61
-54
-56
-55
-51
-41
-21
0
16
33
62
109
162
207
241
261
269
270
252
194
109
33
-12
-33
-47
-58
-67
-82
-104
-121
-123
-106
-79
-75
-83
-43
15
-7
-86
-116
-114
-147
-163
-146
-171
-192
-156
-184
-232
-130
10
100
239
173
-292
-639
-538
-391
-413
-406
-357
-353
-328
-274
-271
-285
-246
-197
-185
-162
-101
-59
-42
14
98
164
233
316
362
358
344
339
311
240
152
79
30
3
-14
-24
-26
-32
-32
-14
-27
-69
-34
67
101
68
42
19
-15
-24
-4
0
-27
-23
12
-15
-31
112
262
310
419
432
75
-263
-173
11
-9
-35
9
4
-19
-12
-20
-32
-23
-21
-30
-18
6
32
72
131
193
256
327
386
401
378
342
291
214
133
67
17
-5
-6
-19
-42
-54
-68
-70
-36
-13
-23
28
173
297
390
569
787
958
1239
1643
1751
1301
579
-25
-369
-497
-526
-539
-550
-567
-578
-561
-561
-609
-651
-673
-729
-811
-858
-867
-875
-878
-836
-731
-586
-435
-291
-154
-46
-3
-13
-18
0
7
0
-2
5
13
22
23
17
14
17
17
8
-3
-18
-50
-82
-80
-66
-82
-107
-83
-23
13
3
-31
-50
-41
-37
-47
-51
-42
-22
-9
-37
-24
94
222
360
528
436
3
-270
-148
-1
-15
-37
-29
-35
-23
3
4
-6
-9
-8
16
54
57
44
82
149
195
245
309
340
342
352
346
297
239
181
117
70
42
12
-13
-31
-57
-65
-35
7
67
144
218
379
658
854
936
1115
1232
923
355
-52
-248
-354
-380
-376
-404
-425
-419
-424
-442
-447
-456
-479
-508
-528
-528
-507
-481
-432
-318
-163
-37
50
136
200
197
160
137
110
71
53
66
106
171
219
279
441
601
648
791
1036
928
395
-55
-206
-265
-319
-336
-347
-363
-354
-331
-334
-369
-389
-377
-385
-450
-520
-547
-542
-516
-451
-344
-227
-116
-14
51
70
74
75
61
40
34
34
31
30
35
35
31
30
28
20
6
-3
0
2
-4
-10
-12
-18
-27
-31
-27
-21
-20
-20
-15
-6
8
23
28
28
45
63
63
61
67
70
65
49
18
-7
-7
-14
-57
-69
-1
60
42
2
-30
-85
-114
-71
-28
-8
43
50
-12
60
262
407
609
784
458
-154
-320
-130
-87
-138
-125
-130
-141
-125
-129
-115
-65
-49
-57
-39
-9
27
86
136
166
216
293
351
380
400
396
345
288
251
198
118
44
-6
-29
-35
-50
-73
-77
-63
-52
-52
-63
-44
39
126
167
200
257
366
541
676
750
941
1153
980
432
-41
-275
-423
-505
-488
-464
-488
-508
-499
-502
-534
-568
-582
-599
-646
-700
-734
-751
-765
-762
-701
-575
-438
-311
-167
-32
38
56
57
32
-8
-29
-27
-23
-28
-38
-40
-29
-19
-18
-19
-11
-10
-25
-27
-14
-31
-59
-27
57
120
120
71
33
32
25
26
55
35
-10
15
44
64
187
336
478
692
667
188
-210
-150
-13
-41
-61
-48
-63
-48
-11
-16
-25
-4
21
41
69
118
169
188
205
271
333
359
406
453
428
375
344
289
212
153
87
18
10
31
16
-10
0
35
85
152
229
336
527
783
968
1080
1305
1557
1426
830
177
-221
-392
-449
-463
-477
-502
-523
-525
-530
-563
-592
-593
-617
-674
-698
-697
-738
-763
-679
-539
-427
-323
-198
-78
-8
-8
-45
-56
-30
-14
-38
-84
-107
-104
-110
-124
-131
-140
-144
-134
-152
-199
-201
-156
-156
-205
-222
-193
-165
-150
-140
-123
-78
-36
-55
-103
-104
-82
-89
-94
-90
-126
-160
-155
-172
-175
-86
27
160
308
194
-228
-498
-419
-303
-301
-303
-293
-303
-317
-326
-317
-276
-233
-220
-221
-205
-164
-127
-107
-77
-33
8
72
131
110
161
512
981
1250
1384
1520
1519
1336
1143
1002
862
738
652
596
559
513
451
417
421
406
349
283
223
172
160
194
241
305
391
449
452
416
326
274
430
577
289
-236
-450
-394
-412
-477
-469
-467
-501
-519
-530
-550
-566
-579
-596
-614
-622
-610
-586
-564
-532
-477
-420
-380
-334
-270
-219
-200
-189
-165
-140
-138
-152
-153
-147
-153
-155
-147
-150
-152
-138
-127
-127
-96
-27
-2
-57
-96
-79
-89
-120
-105
-97
-116
-106
-125
-165
-62
105
202
381
500
151
-356
-414
-214
-189
-227
-176
-150
-168
-150
-120
-114
-95
-53
-27
-20
4
56
115
163
209
277
375
453
478
480
467
409
314
218
134
72
30
-6
-20
-7
-14
-37
-20
18
13
7
59
118
138
140
106
33
4
51
103
147
244
387
459
413
351
316
278
332
430
259
-123
-281
-204
-188
-215
-192
-204
-240
-223
-211
-238
-249
-241
-243
-238
-228
-224
-204
-169
-145
-121
-100
-97
-79
-43
-37
-42
-26
-27
-40
-18
-6
-34
-38
-5
2
-12
3
34
32
10
30
92
138
138
112
76
41
26
37
41
19
26
60
40
34
133
231
368
660
723
255
-203
-192
-45
-74
-154
-167
-134
-107
-129
-147
-113
-89
-108
-120
-105
-81
-58
-33
13
82
140
180
223
251
249
238
207
131
43
-17
-57
-83
-87
-82
-89
-98
-85
-57
-46
-49
-32
30
118
185
224
313
449
546
673
918
1044
797
308
-140
-404
-488
-502
-537
-560
-544
-543
-561
-559
-556
-584
-630
-659
-671
-685
-692
-675
-636
-570
-469
-341
-188
-33
61
99
147
188
156
91
73
82
68
39
25
31
42
48
54
60
64
71
73
59
54
88
123
111
98
135
180
176
150
131
113
106
121
132
113
102
122
123
106
155
241
321
458
510
233
-126
-150
18
53
13
21
26
9
8
14
20
36
44
46
62
83
90
108
152
193
222
269
327
351
340
331
321
283
216
146
88
46
18
-3
-27
-49
-55
-40
-9
21
30
54
139
221
267
376
544
650
783
1056
1191
887
322
-143
-397
-507
-549
-572
-583
-585
-592
-609
-626
-654
-686
-713
-747
-796
-825
-827
-824
-807
-739
-627
-500
-358
-210
-97
-36
-2
17
3
-37
-58
-55
-66
-87
-83
-65
-59
-54
-45
-44
-37
-20
-22
-43
-41
-19
-22
-41
-27
21
70
95
86
45
4
10
50
39
-20
5
85
53
11
147
302
406
654
776
362
-134
-146
20
-6
-48
-3
11
12
48
64
52
63
86
96
112
136
150
167
205
241
276
340
403
417
398
381
353
291
198
104
38
2
-21
-32
-40
-61
-74
-38
15
48
121
267
447
664
880
1022
1251
1650
1783
1262
412
-202
-438
-473
-490
-534
-545
-520
-529
-575
-608
-620
-622
-628
-677
-753
-778
-761
-764
-737
-619
-476
-345
-193
-58
4
28
46
36
-1
-30
-49
-65
-68
-66
-79
-81
-57
-47
-66
-78
-74
-62
-42
-36
-69
-96
-71
-42
-55
-58
-12
41
64
54
19
-19
-39
-44
-40
-52
-84
-75
-43
-68
-64
44
165
351
574
423
-117
-406
-263
-144
-188
-188
-147
-158
-174
-157
-144
-147
-134
-105
-79
-43
-7
13
56
128
189
261
350
379
360
364
356
296
239
201
146
92
61
37
27
35
36
39
68
90
79
80
121
146
114
67
40
14
-13
-13
-10
-30
-35
-22
-42
-46
32
125
221
338
277
-40
-259
-177
-59
-64
-70
-48
-53
-55
-38
-33
-38
-41
-36
-13
14
32
53
82
121
179
232
262
293
328
323
282
240
186
108
45
9
-23
-45
-44
-48
-70
-69
-33
-20
-47
-48
-6
17
-10
-52
-88
-116
-131
-128
-134
-160
-159
-143
-171
-165
-22
182
417
638
507
-26
-403
-368
-280
-305
-304
-280
-290
-296
-298
-302
-285
-265
-270
-278
-279
-271
-249
-228
-210
-169
-123
-90
-40
24
60
72
77
60
24
-9
-37
-52
-55
-72
-99
-104
-90
-87
-91
-78
-41
8
44
34
-3
-12
-8
-17
-12
2
-1
13
16
-17
36
182
303
463
585
326
-151
-287
-100
4
-14
-13
6
27
49
51
39
46
71
79
70
79
102
123
169
238
286
325
384
419
411
394
342
227
113
56
18
-26
-56
-71
-88
-102
-98
-83
-85
-102
-87
-21
41
52
14
-37
-60
-52
-40
-25
-2
57
174
291
385
490
513
425
407
377
92
-220
-253
-194
-226
-229
-193
-207
-218
-190
-182
-205
-217
-226
-247
-261
-255
-246
-239
-224
-203
-174
-133
-102
-88
-75
-66
-74
-95
-122
-140
-141
-137
-132
-123
-118
-109
-82
-53
-42
-36
-6
62
147
207
229
255
356
520
636
742
1039
1434
1478
975
267
-225
-412
-442
-451
-473
-482
-466
-459
-480
-510
-527
-526
-525
-559
-625
-659
-643
-630
-618
-546
-419
-290
-163
-14
134
212
199
163
159
150
104
67
80
102
97
81
78
76
68
67
79
82
69
57
59
60
62
95
146
144
87
49
51
54
57
53
41
55
67
39
74
177
237
370
584
462
-16
-256
-123
-43
-94
-80
-46
-76
-96
-80
-76
-80
-75
-76
-69
-32
-2
13
52
104
140
191
249
267
279
312
291
222
187
148
51
-19
-23
-32
-51
-48
-23
22
56
59
100
193
297
461
631
697
830
1093
1047
517
-23
-263
-358
-407
-398
-389
-404
-409
-407
-411
-414
-422
-439
-461
-479
-493
-501
-497
-464
-398
-310
-213
-114
-24
41
71
68
33
-24
-69
-85
-95
-113
-120
-108
-101
-97
-76
-42
10
92
171
274
455
609
701
936
1235
1145
621
119
-128
-231
-274
-282
-310
-364
-390
-378
-383
-426
-469
-491
-519
-569
-617
-644
-649
-635
-599
-519
-372
-194
-55
54
183
284
299
275
264
246
224
222
209
172
148
132
110
107
116
99
73
69
73
66
63
83
103
93
69
67
87
107
108
91
65
36
30
58
53
-1
-2
88
160
141
73
32
56
91
54
-8
29
117
87
15
100
255
380
568
599
180
-273
-272
-86
-68
-106
-96
-95
-95
-86
-81
-69
-68
-79
-66
-42
-38
-30
-4
27
85
166
223
255
283
287
257
200
120
38
-20
-77
-143
-175
-169
-174
-197
-193
-160
-135
-125
-108
-68
-22
-11
-49
-98
-130
-148
-155
-165
-183
-166
-129
-158
-193
-93
46
122
239
259
-57
-390
-334
-132
-123
-198
-197
-163
-140
-123
-117
-115
-101
-70
-29
0
7
45
142
217
220
238
327
405
410
371
330
281
191
81
20
11
-9
-42
-52
-49
-46
-35
-13
5
9
19
40
48
34
10
-22
-52
-60
-55
-61
-61
-47
-62
-70
10
106
188
369
458
149
-260
-304
-158
-146
-184
-156
-142
-174
-186
-170
-166
-178
-177
-157
-142
-140
-127
-82
-30
-2
