# session 160
-6
50
128
182
188
179
159
106
34
-31
-84
-135
-173
-185
-186
-196
-210
-204
-185
-176
-170
-141
-121
-128
-95
-15
14
-33
-68
-66
-76
-119
-149
-128
-101
-113
-108
-91
-132
-136
-8
135
309
529
424
-65
-344
-224
-129
-167
-147
-111
-134
-136
-115
-128
-149
-140
-118
-108
-109
-95
-53
-1
44
100
171
244
310
357
370
359
325
254
172
105
33
-42
-76
-79
-94
-107
-93
-85
-104
-110
-90
-74
-71
-68
-48
2
42
22
-30
-57
-60
-70
-82
-69
-52
-49
-43
-63
-101
-40
88
168
300
425
213
-187
-278
-129
-96
-122
-78
-54
-78
-88
-95
-109
-95
-63
-57
-70
-65
-39
-16
10
64
143
217
275
320
346
349
339
309
245
165
98
43
2
-18
-33
-48
-41
-26
-34
-49
-46
-29
-5
6
-4
-1
28
52
41
-3
-57
-73
-56
-55
-66
-68
-78
-76
-63
-93
-96
-2
103
225
380
288
-87
-284
-173
-98
-136
-121
-69
-54
-66
-78
-69
-57
-67
-68
-41
-17
-9
-1
20
78
143
164
177
234
288
288
256
215
150
57
-27
-81
-115
-139
-152
-146
-121
-99
-93
-89
-74
-53
-19
3
-13
-20
21
44
5
-44
-77
-107
-129
-137
-137
-142
-163
-162
-139
-165
-180
-86
18
110
270
252
-122
-425
-356
-225
-236
-238
-198
-199
-209
-202
-195
-183
-165
-154
-139
-121
-103
-70
-17
34
70
109
168
243
312
348
354
347
310
223
123
59
19
-12
-12
10
20
37
66
64
48
85
180
313
452
549
727
1129
1528
1678
1668
1406
689
-73
-371
-378
-411
-441
-441
-461
-472
-455
-457
-492
-533
-560
-585
-626
-665
-687
-700
-693
-651
-591
-500
-356
-190
-41
74
137
170
199
187
119
70
74
72
40
18
31
50
43
28
24
17
9
19
26
17
20
23
-3
-25
-18
-17
-38
-67
-98
-105
-90
-99
-124
-95
-22
22
10
-24
-48
-60
-72
-75
-60
-63
-66
-30
-31
-74
10
166
260
494
774
525
-99
-321
-147
-102
-169
-144
-121
-151
-146
-113
-116
-139
-127
-85
-70
-92
-84
-26
18
28
61
136
212
259
288
304
314
321
281
185
107
74
37
-3
-16
-24
-51
-74
-67
-46
-30
27
132
217
320
553
840
1105
1435
1664
1393
683
26
-320
-437
-462
-478
-496
-502
-520
-541
-524
-505
-537
-588
-610
-619
-642
-656
-634
-597
-555
-459
-296
-137
-37
33
104
143
118
72
55
39
12
18
45
38
24
37
35
24
53
89
104
186
380
606
829
1060
1162
969
611
386
319
221
40
-139
-263
-301
-278
-274
-297
-290
-262
-261
-292
-346
-411
-467
-509
-547
-582
-598
-585
-550
-495
-411
-303
-204
-132
-64
23
102
132
129
136
156
168
176
183
173
156
164
185
179
141
113
118
127
107
85
94
93
49
32
70
83
47
25
27
25
25
29
21
11
9
5
2
3
-2
-7
5
20
5
-31
-42
-14
10
5
-5
9
40
51
22
-15
-29
-39
-56
-54
-50
-78
-80
-44
-45
-44
45
173
305
358
124
-264
-356
-164
-61
-81
-68
-54
-81
-90
-80
-81
-81
-72
-60
-50
-44
-27
8
39
65
115
184
242
294
353
395
398
386
372
334
270
200
137
88
58
32
5
-9
-11
-18
-26
-36
-57
-68
-47
-30
-37
-25
10
29
24
-2
-40
-64
-79
-88
-48
13
38
82
144
180
314
557
743
954
1132
772
-21
-439
-378
-361
-431
-397
-366
-397
-400
-386
-391
-395
-404
-419
-425
-433
-454
-469
-471
-466
-447
-397
-323
-242
-158
-71
0
44
64
57
27
5
-5
-18
-28
-25
-20
-24
-35
-48
-51
-46
-38
-27
-30
-46
-15
59
85
41
-4
-19
-26
-35
-22
9
7
-15
13
38
19
85
238
327
364
311
24
-261
-208
-23
-13
-63
-37
-21
-47
-50
-28
-9
11
17
0
3
36
60
88
154
220
254
294
360
417
445
443
408
353
300
235
143
64
27
6
-15
-19
-12
-12
-9
1
-7
-30
-27
-10
-28
-60
-37
28
62
40
-2
-30
-38
-54
-75
-71
-75
-84
-41
-23
-76
-43
79
208
512
787
473
-135
-288
-145
-161
-200
-147
-156
-185
-152
-140
-158
-148
-132
-126
-116
-110
-97
-63
-31
-2
55
122
157
179
206
201
150
87
33
-12
-54
-96
-117
-116
-130
-154
-139
-100
-91
-99
-93
-94
-111
-104
-76
-70
-76
-51
-18
-4
4
-11
-61
-101
-105
-97
-92
-96
-97
-73
-76
-123
-101
2
108
292
462
248
-228
-403
-257
-196
-249
-236
-188
-188
-206
-202
-193
-198
-182
-132
-102
-112
-116
-78
-17
33
66
112
169
219
254
260
243
235
203
121
54
43
29
-5
-19
-15
-14
-9
9
23
25
29
33
30
44
80
97
88
102
145
159
132
98
74
58
48
48
52
37
24
34
16
-15
28
94
180
402
515
194
-211
-240
-113
-126
-153
-115
-110
-118
-97
-94
-107
-102
-90
-64
-26
-24
-41
-16
42
98
151
196
225
249
279
300
290
244
188
142
89
10
-53
-63
-56
-58
-55
-56
-44
26
98
173
395
685
842
1037
1348
1301
707
75
-249
-392
-462
-473
-489
-518
-524
-529
-554
-573
-578
-595
-634
-668
-686
-703
-715
-688
-613
-508
-375
-211
-50
72
149
181
173
142
109
80
53
37
41
49
43
27
25
31
29
25
33
39
25
9
13
24
27
25
17
1
-12
-22
-28
-18
-2
-9
-35
-49
-31
1
-3
-41
-56
-30
-8
-22
-43
-14
59
93
61
28
26
15
-8
-4
3
-2
24
38
10
75
225
326
517
757
552
-20
-239
-62
-1
-67
-43
-17
-47
-40
-12
-14
-16
-3
2
10
36
50
44
58
98
129
155
204
251
274
296
310
287
241
204
167
116
58
2
-35
-51
-58
-64
-71
-81
-80
-68
-70
-84
-86
-89
-114
-135
-126
-120
-153
-181
-147
-78
-44
-64
-106
-142
-164
-161
-144
-139
-131
-101
-114
-153
-98
-3
118
474
827
568
-76
-334
-226
-209
-260
-240
-233
-241
-209
-190
-196
-185
-167
-156
-134
-105
-78
-42
-9
21
72
135
178
205
230
243
235
205
152
91
36
-17
-50
-54
-65
-89
-83
-54
-59
-82
-72
-53
-65
-75
-64
-53
1
113
186
249
427
639
777
935
1042
816
318
-69
-209
-245
-265
-265
-269
-289
-294
-289
-314
-353
-380
-407
-444
-481
-518
-539
-541
-548
-543
-473
-350
-217
-74
81
203
273
308
308
278
248
234
212
173
153
157
151
135
136
143
135
123
119
121
114
95
84
83
68
47
48
50
36
22
12
5
10
11
-2
-2
4
-20
-47
-33
2
27
55
83
79
44
13
0
-16
-31
-21
-20
-43
-43
-32
-41
13
126
242
475
684
402
-191
-395
-216
-147
-201
-192
-176
-184
-179
-177
-188
-197
-196
-177
-158
-156
-139
-98
-65
-32
32
101
152
205
245
246
239
247
223
157
93
43
-9
-55
-86
-103
-119
-138
-146
-134
-126
-128
-121
-105
-101
-102
-94
-72
-24
46
93
86
60
44
15
-25
-44
-39
-35
-34
-33
-26
-16
-27
-55
-24
63
148
272
344
101
-308
-412
-228
-130
-157
-164
-153
-143
-127
-136
-146
-132
-139
-166
-155
-118
-96
-66
-22
0
27
111
227
329
412
464
458
394
303
223
163
99
37
4
-14
-41
-52
-36
-26
-41
-48
-37
-29
-23
-5
1
-15
-6
45
104
155
210
264
308
378
509
653
803
1073
1417
1481
1038
357
-113
-279
-345
-404
-404
-383
-403
-418
-411
-434
-477
-494
-503
-528
-559
-593
-629
-658
-672
-663
-634
-574
-463
-325
-197
-64
57
118
138
150
134
93
63
53
50
46
37
28
26
29
39
39
13
-4
15
24
2
-12
-11
-21
-37
-44
-43
-44
-55
-66
-63
-56
-59
-46
13
76
87
67
54
34
13
8
-11
-38
-25
-11
-33
-32
-26
-59
-21
91
161
305
504
345
-133
-334
-190
-125
-175
-152
-120
-151
-166
-141
-122
-122
-125
-117
-97
-78
-62
-40
-9
35
90
153
224
289
343
393
423
407
361
304
245
190
133
84
65
58
34
20
34
42
44
71
118
181
269
371
517
733
893
962
1125
1284
1041
452
-14
-200
-257
-271
-281
-306
-310
-313
-360
-400
-399
-409
-445
-468
-488
-541
-595
-597
-554
-507
-454
-368
-250
-121
-5
70
99
88
49
5
-23
-40
-59
-78
-92
-101
-102
-99
-103
-104
-91
-76
-71
-63
-51
-49
-47
-42
-43
-50
-56
-63
-74
-84
-90
-97
-100
-97
-90
-68
-35
0
31
40
10
-37
-58
-62
-84
-106
-98
-96
-100
-69
-64
-109
-65
66
167
289
329
37
-334
-352
-188
-153
-160
-129
-129
-126
-93
-85
-88
-65
-50
-57
-57
-33
-6
12
47
110
170
220
284
350
381
406
435
406
329
298
294
232
146
110
107
102
92
86
85
91
103
106
95
92
114
132
142
175
220
238
231
210
182
167
169
207
322
457
498
538
765
1008
889
422
8
-155
-195
-234
-272
-284
-278
-286
-311
-325
-339
-376
-401
-401
-425
-477
-505
-506
-519
-533
-509
-447
-363
-264
-167
-83
-7
36
31
16
-4
-61
-123
-141
-135
-133
-133
-142
-154
-147
-140
-151
-153
-141
-143
-151
-149
-144
-136
-113
-79
-39
0
20
12
-16
-49
-61
-48
-48
-61
-72
-79
-54
-15
-45
-57
73
201
321
601
678
185
-304
-248
-60
-90
-123
-88
-101
-106
-68
-61
-76
-71
-48
-19
-9
-20
4
68
108
124
171
250
338
417
449
435
418
380
295
194
103
26
-19
-40
-61
-79
-85
-82
-70
-54
-44
-34
-29
-25
23
127
229
306
401
546
716
857
982
1211
1503
1519
1034
311
-199
-371
-403
-445
-476
-468
-454
-453
-467
-486
-498
-509
-527
-552
-586
-628
-666
-699
-718
-689
-619
-536
-418
-251
-91
26
111
150
140
127
123
102
70
38
16
30
44
9
-20
2
34
45
40
33
42
40
-3
-28
-6
-9
-43
-42
-26
-44
-58
-21
32
59
52
19
-16
-24
-10
-12
-33
-21
10
-1
12
98
152
241
475
514
119
-239
-218
-116
-139
-149
-126
-141
-156
-139
-133
-147
-141
-109
-94
-89
-59
-43
-44
8
93
138
160
193
230
277
321
321
278
215
158
118
77
20
-20
-31
-33
-23
-13
-23
-33
-27
-14
4
9
-2
16
66
67
2
-46
-49
-50
-58
-62
-70
-55
-17
-41
-86
-14
104
179
278
274
-6
-263
-207
-70
-66
-86
-63
-51
-48
-45
-44
-43
-43
-35
-17
-12
-8
24
65
87
113
166
225
257
268
290
321
317
260
174
94
38
9
-3
-17
-41
-59
-58
-60
-77
-80
-47
-17
-24
-28
14
55
44
11
-23
-69
-97
-88
-97
-129
-111
-79
-116
-129
-47
23
162
483
565
98
-362
-350
-220
-262
-284
-231
-233
-262
-252
-232
-226
-223
-220
-211
-190
-166
-143
-115
-83
-49
0
63
125
170
200
216
215
178
108
38
-12
-54
-85
-107
-133
-143
-121
-118
-150
-164
-149
-143
-147
-131
-81
-27
-19
-49
-66
-74
-95
-94
-72
-71
-71
-67
-79
-25
98
208
407
609
379
-155
-324
-131
-73
-133
-98
-55
-63
-51
-29
-21
-4
10
18
43
67
75
95
133
172
219
283
342
382
411
413
376
323
262
184
99
34
4
-6
-21
-43
-46
-26
-6
26
102
179
260
481
839
1127
1365
1696
1849
1428
618
-41
-331
-402
-417
-431
-463
-496
-500
-500
-521
-543
-572
-618
-647
-664
-705
-742
-748
-740
-695
-586
-447
-303
-142
-4
53
66
84
74
22
-16
-28
-49
-66
-67
-69
-61
-46
-60
-78
-60
-49
-63
-53
-31
-41
-57
-49
-36
-36
-46
-60
-64
-62
-72
-71
-18
50
55
2
-30
-21
-23
-42
-45
-26
-5
-28
-76
-39
78
207
402
514
227
-242
-364
-209
-154
-193
-191
-190
-189
-153
-139
-174
-185
-151
-129
-132
-122
-76
-17
25
67
144
229
282
329
394
424
389
342
314
277
220
167
136
112
71
34
32
36
14
6
27
35
32
64
109
119
117
111
73
35
45
61
39
17
35
41
10
28
104
175
339
539
407
-11
-207
-111
-48
-58
-46
-55
-82
-80
-83
-104
-104
-81
-73
-84
-78
-51
-34
-22
12
53
82
118
163
191
188
166
138
97
36
-25
-56
-69
-91
-110
-115
-119
-128
-137
-147
-148
-140
-137
-121
-66
-2
37
85
171
249
303
440
702
962
1109
1031
612
42
-292
-359
-382
-401
-376
-366
-395
-407
-394
-411
-459
-481
-491
-541
-601
-640
-686
-720
-707
-678
-640
-552
-425
-288
-145
-7
116
214
243
213
194
186
142
98
93
81
52
63
87
79
76
75
37
26
69
75
53
86
139
162
165
145
109
91
80
69
78
110
127
90
87
221
373
508
746
783
302
-181
-166
-14
-38
-40
-6
-63
-94
-46
-36
-64
-66
-66
-65
-36
1
19
29
45
83
149
212
266
320
348
323
285
254
188
92
25
-16
-69
-110
-123
-146
-180
-184
-161
-151
-170
-173
-104
-20
-32
-103
-131
-145
-179
-168
-140
-179
-212
-190
-205
-223
-147
-34
168
513
591
131
-329
-335
-189
-189
-227
-220
-214
-223
-240
-245
-223
-202
-196
-174
-139
-118
-100
-57
10
78
138
198
260
308
326
313
284
248
194
118
66
63
59
27
8
23
42
44
41
45
58
73
91
