# session 82
-9
4
6
23
54
66
78
126
187
232
288
359
410
437
456
449
405
341
266
181
99
39
2
-22
-40
-51
-58
-58
-48
-35
-26
-17
-16
-29
-36
-16
10
14
8
34
82
103
85
59
36
19
11
8
17
26
11
7
20
-4
0
94
194
373
662
619
77
-336
-274
-142
-171
-198
-182
-186
-195
-194
-188
-181
-181
-171
-146
-135
-126
-95
-69
-56
-22
27
79
140
195
241
291
316
285
229
162
71
-14
-61
-97
-130
-130
-118
-134
-157
-156
-141
-131
-140
-160
-166
-151
-138
-135
-112
-48
18
25
-21
-50
-35
-33
-61
-57
-42
-79
-87
-26
-47
-97
45
238
330
535
654
213
-375
-431
-223
-208
-240
-185
-162
-176
-170
-161
-143
-110
-84
-73
-73
-67
-44
-15
20
62
89
130
227
327
373
402
431
412
338
244
151
69
8
-36
-68
-84
-97
-110
-107
-91
-94
-110
-110
-103
-106
-120
-138
-132
-101
-94
-106
-65
6
27
11
-1
-25
-55
-54
-18
5
-20
-38
7
18
-36
27
185
293
560
909
688
-23
-344
-180
-100
-150
-136
-132
-144
-107
-92
-116
-117
-104
-95
-83
-84
-86
-55
-13
15
51
93
122
164
236
300
319
304
286
244
150
47
-21
-70
-111
-133
-149
-186
-222
-220
-191
-175
-174
-160
-138
-132
-130
-111
-85
-71
-63
-33
16
41
26
-4
-21
-16
-9
-18
-20
-8
-13
-4
5
-31
-3
123
210
341
563
459
-36
-315
-197
-103
-134
-120
-90
-99
-102
-98
-95
-90
-92
-83
-60
-52
-41
-4
21
31
63
112
161
222
285
322
330
326
308
268
210
137
65
18
-9
-43
-74
-82
-79
-76
-72
-75
-83
-82
-71
-65
-70
-75
-53
-22
-22
-31
6
52
44
7
-13
-30
-55
-71
-75
-75
-84
-101
-98
-95
-113
-72
23
103
285
504
331
-178
-415
-293
-220
-254
-236
-203
-209
-214
-213
-212
-206
-201
-196
-192
-194
-177
-142
-120
-108
-80
-39
9
64
109
141
173
188
157
92
12
-84
-174
-236
-283
-314
-314
-314
-333
-339
-334
-343
-347
-329
-315
-330
-354
-342
-291
-273
-282
-167
126
430
641
823
1012
1191
1381
1534
1493
1218
907
760
698
555
449
491
518
589
834
760
111
-375
-287
-156
-234
-260
-228
-267
-308
-307
-300
-290
-289
-310
-308
-280
-269
-273
-259
-218
-163
-110
-52
34
121
154
159
167
140
67
-20
-128
-250
-330
-359
-380
-398
-404
-397
-371
-349
-362
-377
-356
-338
-341
-313
-268
-272
-288
-232
-147
-115
-116
-107
-106
-118
-114
-81
-43
-41
-77
-62
-5
-31
-59
67
223
396
721
786
222
-333
-306
-121
-146
-165
-107
-106
-116
-80
-53
-46
-35
-23
-3
21
33
55
88
109
144
212
270
307
370
454
502
486
426
360
310
242
138
50
11
-10
-35
-50
-51
-52
-68
-81
-54
-19
-30
-39
20
123
242
367
497
718
1018
1150
1054
917
685
240
-171
-319
-336
-356
-359
-361
-382
-388
-384
-397
-412
-422
-443
-470
-492
-516
-537
-540
-530
-511
-466
-387
-284
-179
-88
-13
48
80
84
74
40
-12
-37
-35
-49
-78
-90
-76
-51
-50
-76
-86
-67
-60
-79
-90
-82
-86
-105
-106
-96
-112
-123
-101
-89
-93
-78
-58
-42
-24
-30
-54
-51
-18
14
24
17
38
107
147
123
100
112
123
118
115
118
114
103
111
111
69
79
185
295
412
484
266
-145
-280
-120
-30
-56
-45
-27
-37
-30
-14
-12
-10
-1
7
19
35
54
72
96
138
200
254
286
313
342
364
383
399
390
353
313
258
172
92
40
-10
-58
-80
-76
-77
-93
-94
-62
-33
-5
67
161
301
560
811
946
1174
1448
1263
582
-29
-310
-427
-478
-491
-513
-523
-517
-540
-563
-554
-550
-573
-612
-658
-689
-714
-761
-748
-595
-420
-350
-306
-196
-63
39
112
152
157
135
97
63
32
-8
-30
-18
-5
-4
-1
-5
-24
-35
-24
-7
-15
-47
-56
-39
-44
-60
-58
-56
-58
-60
-76
-93
-94
-104
-112
-92
-79
-89
-86
-75
-82
-91
-106
-127
-107
-42
16
39
18
-28
-40
-24
-28
-31
-24
-30
-7
9
-48
-10
187
315
421
621
499
-50
-349
-178
-49
-118
-148
-114
-97
-109
-141
-154
-139
-138
-150
-149
-130
-84
-29
7
58
138
197
236
296
367
420
451
465
457
426
372
296
201
108
46
19
11
8
-1
-13
-6
5
-1
8
79
192
265
258
271
396
555
667
757
774
635
421
254
166
146
129
43
-53
-72
-100
-199
-206
-66
52
232
533
447
-192
-643
-559
-426
-456
-452
-422
-439
-449
-446
-443
-422
-404
-403
-391
-356
-308
-275
-270
-256
-206
-142
-82
-17
53
115
155
159
122
48
-42
-118
-165
-191
-201
-189
-137
-35
75
129
125
124
152
139
41
-67
-104
-102
-122
-143
-117
-63
-48
-85
-116
-111
-102
-106
-102
-72
-49
-66
-62
-26
-58
-88
23
149
276
583
711
246
-284
-301
-129
-126
-148
-122
-118
-112
-102
-110
-97
-77
-85
-85
-55
-37
-37
-10
40
72
99
165
255
320
366
401
401
384
373
317
211
139
103
43
-7
-4
-1
-24
-39
-42
-44
-40
-41
-49
-53
-45
-24
-14
-37
-32
31
60
29
6
-7
-18
-11
-21
-52
-53
-37
-19
12
-6
-41
34
153
253
415
431
79
-263
-232
-98
-106
-122
-99
-114
-128
-109
-98
-95
-79
-65
-61
-56
-45
-27
-3
27
66
109
154
201
247
284
304
304
280
232
163
82
8
-45
-85
-118
-138
-148
-153
-150
-151
-163
-175
-183
-191
-187
-171
-166
-163
-133
-97
-96
-127
-171
-213
-225
-211
-206
-200
-183
-182
-169
-135
-142
-118
36
187
303
480
433
-14
-341
-227
-70
-92
-95
-53
-67
-83
-60
-36
-20
-3
2
2
18
48
83
114
137
165
209
270
337
401
455
485
474
429
365
271
157
69
13
-47
-100
-113
-103
-100
-104
-107
-108
-106
-108
-107
-90
-83
-106
-97
-28
23
14
-8
-35
-73
-81
-73
-79
-74
-71
-88
-71
-50
-70
4
177
308
479
592
251
-305
-414
-190
-130
-181
-148
-126
-154
-143
-106
-97
-106
-97
-72
-58
-61
-54
-31
-13
10
64
123
173
234
301
340
343
316
254
169
85
5
-67
-112
-128
-137
-148
-148
-135
-126
-125
-112
-96
-104
-124
-108
-80
-102
-135
-90
-8
17
-3
-24
-51
-79
-82
-71
-72
-82
-84
-70
-70
-109
-105
-1
103
214
408
384
-66
-447
-364
-168
-171
-203
-155
-122
-132
-139
-124
-109
-115
-109
-72
-55
-58
-28
19
44
73
130
204
290
363
405
436
455
428
365
294
206
119
62
14
-35
-56
-57
-69
-78
-70
-66
-71
-72
-65
-46
-18
-7
-5
24
63
77
62
23
-20
-35
-33
-34
-19
-3
-30
-40
-2
-18
-52
35
172
305
501
494
70
-299
-232
-77
-98
-115
-70
-69
-77
-54
-44
-51
-54
-58
-54
-37
-21
-10
8
35
70
115
163
206
242
277
302
298
256
177
83
1
-67
-135
-190
-212
-210
-208
-215
-217
-210
-200
-200
-212
-214
-192
-165
-159
-153
-114
-67
-58
-81
-99
-105
-101
-96
-97
-85
-67
-75
-77
-62
-85
-75
64
206
329
549
552
70
-375
-324
-134
-143
-193
-171
-153
-156
-170
-189
-173
-139
-142
-159
-138
-104
-83
-49
-2
45
108
180
238
297
371
436
454
409
329
244
146
40
-21
-41
-86
-143
-144
-110
-91
-69
-39
-34
-37
-12
17
21
12
15
53
105
92
25
-18
-35
-63
-80
-73
-61
-64
-60
-20
-9
-38
50
229
364
594
806
482
-157
-327
-105
-51
-114
-75
-37
-52
-61
-65
-61
-53
-62
-50
-8
1
-12
11
50
72
97
140
185
234
303
373
392
354
297
225
133
38
-54
-123
-148
-164
-193
-204
-210
-229
-230
-230
-262
-274
-234
-216
-244
-239
-174
-115
-93
-95
-121
-157
-155
-132
-131
-127
-108
-117
-120
-91
-103
-93
32
138
251
528
596
123
-330
-282
-118
-145
-175
-141
-137
-135
-113
-113
-121
-102
-83
-91
-96
-70
-44
-37
-12
44
92
128
176
231
280
314
326
304
243
165
91
19
-32
-49
-70
-98
-89
-68
-73
-68
-48
-58
-75
-55
-2
58
114
197
323
441
562
734
837
768
623
428
177
33
-7
-152
-331
-338
-263
-259
-275
-266
-276
-300
-305
-307
-331
-367
-392
-406
-424
-433
-414
-377
-327
-244
-142
-49
41
125
177
210
233
218
183
168
145
90
52
47
40
33
42
38
24
32
43
34
40
54
37
18
24
18
10
28
16
-29
-19
24
9
-18
22
83
93
67
36
15
18
23
-1
-16
1
-1
-20
-15
-40
-90
-38
74
167
353
485
207
-249
-354
-203
-157
-191
-179
-161
-157
-145
-139
-130
-110
-99
-90
-67
-45
-33
-11
20
56
97
143
192
248
296
324
349
371
353
292
230
168
77
-10
-43
-58
-95
-125
-134
-149
-173
-196
-205
-189
-163
-162
-180
-171
-121
-77
-77
-91
-95
-103
-113
-118
-108
-78
-67
-83
-58
-34
-83
-43
154
296
404
544
356
-168
-389
-182
-43
-73
-59
-14
-7
-8
-14
-17
-4
-5
-21
-19
-21
-34
-10
40
63
82
143
222
295
371
433
454
450
412
318
204
116
47
-11
-42
-60
-81
-88
-84
-95
-107
-102
-104
-103
-76
-68
-100
-78
13
57
24
-1
-18
-68
-110
-114
-112
-112
-120
-133
-123
-136
-157
-43
146
258
413
501
149
-356
-417
-218
-200
-258
-237
-238
-268
-264
-256
-267
-269
-256
-236
-211
-198
-191
-174
-142
-98
-42
13
70
145
217
251
253
235
181
90
-5
-81
-140
-179
-197
-210
-225
-216
-178
-116
-28
69
209
480
803
1062
1390
1747
1638
912
129
-280
-409
-435
-410
-371
-344
-358
-426
-485
-505
-547
-615
-647
-650
-690
-749
-752
-697
-631
-531
-375
-223
-92
57
163
174
181
218
199
154
185
241
234
230
283
331
360
430
511
521
494
483
455
420
444
470
411
315
256
206
146
109
87
55
26
15
4
-13
-26
-42
-70
-87
-79
-77
-96
-95
-50
-2
12
-9
-42
-59
-57
-56
-51
-53
-88
-105
-66
-67
-101
-20
124
255
467
543
167
-295
-346
-203
-197
-221
-185
-176
-198
-201
-178
-146
-139
-155
-157
-136
-115
-105
-97
-69
-32
-7
36
94
118
125
161
186
172
150
124
75
25
-15
-65
-117
-144
-151
-150
-137
-120
-116
-123
-119
-106
-91
-70
-59
-58
-38
-2
4
-25
-53
-69
-80
-82
-78
-73
-78
-89
-84
-75
-98
-97
-12
105
234
325
150
-253
-435
-288
-165
-176
-167
-138
-139
-134
-119
-119
-117
-108
-99
-84
-64
-42
-15
17
47
84
139
202
254
301
351
380
370
337
282
192
95
27
-19
-50
-56
-46
-48
-55
-54
-39
-23
-26
-32
-9
18
12
11
47
74
63
36
6
-16
-12
-2
-6
-10
-19
-13
30
27
-10
90
253
342
570
819
515
-123
-305
-102
-45
-94
-62
-43
-69
-67
-46
-37
-43
-46
-27
-6
-2
2
12
31
79
127
141
176
263
332
358
385
387
318
219
131
40
-44
-99
-135
-158
-160
-158
-179
-209
-213
-191
-168
-166
-191
-203
-156
-85
-50
-49
-67
-97
-111
-106
-101
-91
-83
-87
-61
-19
-64
-121
15
233
317
398
452
140
-322
-370
-157
-131
-203
-180
-150
-145
-124
-138
-180
-166
-128
-117
-110
-101
-99
-82
-45
-4
37
81
148
240
305
313
302
266
171
53
-37
-110
-185
-240
-266
-275
-283
-302
-311
-277
-238
-245
-264
-252
-236
-224
-180
-115
-86
-103
-129
-143
-150
-156
-157
-135
-114
-147
-174
-145
-160
-169
-31
115
248
557
661
134
-418
-383
-185
-207
-221
-145
-115
-98
-58
-33
-14
15
48
103
185
278
371
455
536
614
666
687
688
661
619
588
539
440
332
241
133
17
-56
-89
-99
-68
5
64
65
32
49
137
222
320
526
772
971
1250
1546
1459
897
265
-133
-327
-402
-401
-387
-411
-458
-480
-489
-526
-575
-601
-607
-622
-659
-693
-693
-665
-618
-537
-419
-286
-158
-42
52
105
115
94
55
17
-1
-15
-45
-73
-78
-84
-108
-117
-100
-97
-121
-135
-127
-119
-123
-136
-145
-140
-130
-127
-125
-122
-122
-110
-74
-40
-37
-54
-49
-26
-22
-21
6
31
24
-6
-51
-89
-91
-79
-74
-64
-58
-49
-21
-17
-21
57
181
310
469
439
58
-284
-242
-84
-65
-70
-40
-35
-35
-15
1
16
36
48
51
57
64
62
64
81
99
118
154
202
242
274
302
315
315
305
273
213
152
106
52
-7
-30
-29
-41
-49
-41
-48
-76
-79
-42
-7
-1
0
29
62
55
14
-26
-45
-62
-86
-85
-59
-67
-85
-64
-77
-117
-44
96
234
445
489
69
-386
-369
-171
-166
-207
-171
-163
-180
-171
-155
-142
-129
-127
-120
-81
-35
-20
-24
3
71
136
181
238
309
360
387
401
372
282
177
84
-11
-79
-98
-110
-130
-135
-135
-133
-126
-133
-141
-116
-101
-116
-103
-49
-1
28
36
4
-37
-40
-27
-31
-34
-33
-34
-11
-5
-33
38
199
324
512
668
348
-248
-407
-191
-125
-184
-164
-147
-162
-140
-123
-142
-144
-117
-99
-93
-78
-54
-30
-2
29
69
132
208
281
341
377
388
375
314
219
138
77
12
-49
-81
-93
-111
-140
-153
-147
-149
-159
-148
-127
-125
-122
-89
-51
-31
-33
-61
-97
-109
-114
-123
-104
-79
-97
