# session 15
4
0
-10
6
25
16
17
46
63
65
72
78
85
104
129
150
173
205
249
294
324
344
367
381
358
305
249
188
117
64
46
32
8
-1
13
19
6
-3
-5
-22
-38
-15
15
-4
-30
3
50
40
-8
-38
-52
-84
-106
-80
-57
-81
-91
-72
-76
-55
35
128
238
302
86
-291
-386
-208
-115
-135
-125
-108
-115
-113
-106
-98
-89
-95
-94
-70
-51
-51
-45
-27
-2
39
93
139
176
213
236
234
212
177
124
57
3
-30
-57
-74
-72
-69
-78
-81
-75
-73
-80
-90
-92
-84
-82
-84
-78
-64
-47
-21
-7
-27
-55
-68
-83
-81
-46
-44
-75
-53
-37
-76
-5
169
288
489
703
421
-213
-430
-216
-124
-190
-182
-127
-104
-109
-130
-133
-108
-92
-92
-76
-46
-29
-22
5
43
67
105
176
233
261
299
319
283
226
176
110
36
-13
-35
-59
-102
-136
-135
-120
-108
-100
-106
-105
-70
-43
-65
-104
-101
-44
22
30
-17
-56
-76
-96
-91
-64
-72
-96
-66
-45
-80
-29
128
240
407
670
560
-39
-414
-249
-56
-88
-124
-97
-84
-67
-46
-52
-57
-27
9
14
3
9
32
56
72
96
156
237
285
309
340
344
294
236
156
32
-41
-31
-70
-164
-171
-128
-153
-183
-150
-125
-124
-105
-86
-82
-77
-80
-87
-51
31
84
53
4
7
-1
-44
-17
42
6
-22
30
20
-21
32
84
197
455
409
-139
-564
-581
-600
-685
-619
-496
-425
-344
-278
-261
-231
-180
-144
-125
-95
-44
-12
-1
58
147
187
239
342
388
369
386
391
319
221
125
52
48
23
-72
-89
-12
-10
-55
-16
51
58
35
27
62
101
70
36
116
223
223
172
152
138
103
86
107
115
97
113
112
63
135
333
455
592
747
493
-71
-255
-55
2
-81
-68
-36
-52
-48
-34
-41
-43
-30
-23
-32
-39
-16
18
32
48
94
152
194
217
241
272
278
238
161
75
-1
-64
-118
-153
-170
-199
-236
-247
-227
-209
-215
-221
-214
-214
-218
-207
-200
-220
-228
-178
-103
-77
-113
-159
-177
-196
-225
-222
-201
-208
-199
-184
-229
-200
-40
60
219
566
523
-154
-635
-507
-348
-419
-449
-422
-448
-464
-450
-452
-454
-448
-454
-452
-431
-422
-429
-408
-346
-272
-197
-128
-58
57
182
209
170
174
180
114
30
-4
31
113
158
156
223
342
388
403
483
568
596
589
571
587
656
681
632
631
694
712
686
672
622
486
315
196
147
126
136
160
110
49
103
152
176
355
423
6
-473
-492
-328
-329
-349
-276
-213
-165
-99
-57
-49
-33
2
25
38
66
86
85
111
152
142
110
139
206
225
196
189
204
186
147
102
7
-131
-231
-268
-282
-296
-304
-298
-286
-289
-297
-281
-260
-283
-329
-324
-275
-260
-282
-268
-221
-209
-231
-233
-211
-191
-155
-99
-80
-98
-92
-113
-198
-188
-71
-6
126
355
251
-204
-400
-236
-145
-176
-170
-178
-214
-202
-183
-190
-187
-169
-138
-100
-81
-61
-11
40
83
144
208
262
326
388
425
461
506
510
445
372
384
472
499
406
305
278
283
280
287
359
527
702
829
1031
1206
938
254
-274
-408
-378
-342
-355
-468
-605
-686
-757
-817
-827
-832
-864
-877
-863
-860
-866
-832
-745
-634
-520
-400
-277
-168
-80
-18
14
34
50
44
26
30
46
34
14
31
63
60
46
68
97
94
87
99
109
116
137
159
165
150
119
97
103
117
119
119
131
141
134
129
141
144
134
142
153
141
123
108
97
124
164
141
101
160
271
304
267
239
213
167
169
212
200
178
235
255
223
326
514
704
1010
1111
565
-84
-140
55
32
-27
12
9
-37
-53
-40
-12
-4
-40
-73
-80
-93
-97
-78
-60
-35
16
55
60
33
-69
-232
-338
-368
-465
-640
-735
-715
-681
-640
-570
-521
-501
-471
-436
-407
-360
-307
-301
-348
-334
-163
42
80
-39
-131
-58
162
403
558
650
765
880
864
700
514
383
311
259
165
138
270
386
506
773
734
99
-404
-324
-173
-173
-57
89
115
185
318
328
246
242
309
309
131
-199
-450
-437
-292
-209
-162
-77
29
118
183
242
268
177
6
-126
-249
-404
-494
-501
-508
-493
-443
-456
-550
-610
-575
-507
-495
-556
-633
-696
-743
-747
-717
-750
-863
-925
-882
-848
-912
-1000
-964
-786
-618
-517
-424
-398
-423
-330
-183
-83
167
381
38
-550
-647
-395
-293
-281
-200
-130
-83
-8
65
122
181
245
314
383
457
552
648
722
793
876
950
1022
1104
1150
1149
1156
1196
1242
1248
1186
1107
1087
1101
1107
1136
1188
1210
1222
1256
1198
990
811
769
703
531
392
323
240
166
158
147
76
-4
-52
-90
-119
-123
-130
-160
-168
-168
-208
-207
-119
-31
83
204
49
-353
-527
-386
-284
-300
-284
-246
-237
-233
-220
-205
-187
-168
-151
-130
-108
-90
-65
-37
-62
-198
-391
-545
-694
-862
-889
-713
-529
-461
-433
-418
-444
-456
-422
-393
-383
-351
-313
-304
-300
-273
-237
-211
-202
-200
-178
-160
-168
-156
-106
-89
-115
-134
-159
-207
-228
-207
-204
-237
-250
-233
-255
-287
-219
-109
-52
-8
-83
-409
-691
-635
-466
-432
-439
-417
-410
-408
-414
-446
-461
-456
-476
-503
-506
-493
-470
-441
-416
-377
-310
-238
-161
-73
-5
23
36
48
28
-30
-78
-92
-86
-57
-4
47
94
171
256
300
310
322
347
377
405
428
452
482
519
551
555
535
517
503
502
536
566
536
520
562
542
519
658
815
940
1226
1309
752
147
122
278
205
105
95
84
78
84
73
70
80
91
131
175
178
185
253
332
376
424
506
580
617
640
662
663
624
542
444
371
333
313
321
349
339
305
331
359
252
78
26
119
262
453
744
1066
1327
1578
1788
1652
1012
195
-367
-563
-583
-648
-782
-866
-891
-951
-1048
-1115
-1150
-1201
-1290
-1386
-1452
-1506
-1554
-1561
-1533
-1477
-1350
-1167
-1004
-864
-717
-590
-483
-405
-447
-601
-705
-702
-688
-695
-681
-648
-618
-578
-534
-500
-467
-430
-403
-378
-343
-303
-263
-221
-173
-126
-78
-14
54
111
174
254
338
422
491
534
606
738
830
814
757
699
595
475
419
387
324
298
289
205
179
284
343
450
704
592
-20
-358
-172
-49
-123
-100
-38
-59
-58
-24
-31
-27
20
53
61
74
86
95
122
172
223
259
295
335
362
378
388
374
337
293
236
171
119
73
29
0
-16
-26
-23
-13
-7
-8
-13
-10
7
21
14
16
47
76
67
30
-7
-36
-50
-42
-28
-46
-64
-33
-27
-66
-9
135
232
370
491
246
-220
-340
-150
-77
-111
-73
-41
-71
-74
-36
-17
-19
3
51
74
60
61
95
124
145
183
239
295
340
377
404
402
357
282
198
128
69
5
-49
-69
-69
-60
-41
-41
-64
-67
-65
-84
-85
-71
-99
-136
-128
-139
-212
-264
-264
-294
-374
-415
-382
-342
-321
-303
-325
-372
-337
-240
-156
-45
8
-182
-431
-410
-211
-123
-195
-300
-320
-259
-211
-186
-139
-100
-84
-51
-11
10
38
78
112
151
199
241
285
334
368
377
378
381
365
312
226
129
57
21
-3
-16
-7
-8
-37
-58
-61
-72
-79
-64
-54
-66
-64
-33
-18
-61
-118
-129
-132
-169
-186
-167
-169
-161
-128
-159
-179
-49
102
197
322
247
-178
-470
-338
-173
-196
-210
-154
-112
-86
-61
-41
-16
10
28
45
64
81
104
139
172
195
239
315
370
386
417
460
450
391
323
246
169
112
58
12
-7
-12
-19
-22
-27
-37
-40
-27
-4
3
-15
-9
48
98
101
67
12
-41
-72
-70
-40
-33
-49
-33
-46
-85
21
207
322
542
720
340
-302
-434
-203
-156
-215
-178
-161
-193
-183
-157
-151
-139
-124
-121
-121
-114
-77
-27
-12
-11
42
129
207
261
262
242
248
228
139
38
-33
-85
-127
-147
-140
-141
-170
-185
-156
-131
-143
-139
-94
-75
-103
-88
-6
57
57
27
-10
-36
-39
-33
-33
-44
-42
-1
8
-45
26
224
329
458
680
504
-106
-416
-275
-208
-299
-318
-300
-314
-318
-322
-334
-325
-286
-232
-186
-160
-133
-85
-34
9
65
144
217
258
285
319
330
291
220
139
55
-10
-42
-65
-96
-116
-123
-130
-130
-123
-127
-127
-104
-78
-53
-29
-23
-12
35
63
34
-2
-16
-32
-28
-4
-11
-17
25
26
-8
77
207
297
525
696
342
-212
-298
-96
-62
-107
-79
-66
-76
-62
-45
-36
-27
-15
7
33
42
49
76
110
138
172
217
256
282
308
330
317
271
215
146
72
27
-4
-52
-79
-66
-63
-80
-84
-89
-110
-112
-97
-90
-82
-73
-65
-32
12
11
-26
-47
-54
-71
-73
-51
-48
-59
-44
-41
-59
-5
89
177
337
403
97
-295
-331
-178
-152
-182
-164
-150
-148
-138
-135
-132
-113
-93
-79
-67
-58
-48
-28
0
31
64
102
145
185
213
225
219
192
144
83
28
-7
-31
-54
-70
-74
-74
-70
-64
-74
-106
-132
-138
-133
-128
-125
-116
-80
-45
-64
-117
-137
-136
-155
-158
-134
-134
-120
-66
-76
-104
9
151
225
372
397
7
-388
-330
-129
-126
-164
-134
-117
-106
-84
-85
-86
-71
-67
-67
-48
-19
20
71
107
134
195
285
348
381
424
450
416
349
290
221
134
59
11
-19
-39
-50
-54
-59
-61
-53
-51
-59
-47
-26
-35
-50
-16
47
84
72
35
9
-9
-36
-44
-23
-18
-7
18
-19
-30
121
278
420
711
755
169
-398
-347
-128
-152
-196
-148
-136
-159
-167
-160
-139
-131
-146
-138
-103
-80
-68
-48
-16
29
96
182
257
282
269
264
252
184
86
10
-49
-104
-128
-137
-179
-219
-197
-157
-162
-185
-185
-163
-133
-121
-136
-134
-81
-9
28
4
-51
-92
-118
-128
-109
-94
-105
-90
-85
-107
30
291
391
467
698
597
0
-369
-234
-103
-145
-150
-130
-136
-119
-109
-123
-108
-77
-85
-101
-79
-40
-20
-6
28
75
117
163
227
284
307
292
241
176
117
38
-54
-111
-139
-167
-179
-187
-205
-203
-186
-199
-218
-197
-159
-143
-147
-149
-123
-72
-48
-77
-96
-70
-59
-52
14
58
21
13
27
-16
25
173
263
406
609
423
-116
-344
-176
-66
-86
-87
-88
-89
-70
-78
-88
-59
-42
-47
-25
7
19
39
79
116
152
194
244
299
336
340
329
309
257
181
118
65
13
-6
3
-14
-31
-2
15
-11
-7
30
35
34
73
105
92
98
158
203
182
137
109
101
115
131
115
103
143
168
120
117
225
330
445
596
495
84
-160
-49
71
53
48
74
64
48
22
-188
-731
-1355
-1581
-1361
-1067
-892
-755
-604
-458
-338
-247
-162
-70
16
73
94
93
85
66
30
-9
-40
-57
-52
-43
-46
-35
-3
2
-22
-24
-8
4
29
54
53
66
115
143
128
101
80
67
66
66
51
35
61
88
46
43
170
294
421
614
534
48
-278
-168
-35
-67
-73
-41
-39
-24
-9
-16
-8
-1
-18
-5
39
54
45
59
100
148
190
239
305
360
375
379
385
344
243
143
78
31
-5
-25
-36
-40
-41
-51
-71
-88
-94
-85
-75
-75
-69
-51
-30
4
43
34
-20
-61
-90
-113
-90
-66
-102
-107
-75
-116
-103
80
222
344
607
562
-52
-506
-374
-186
-233
-264
-227
-230
-243
-227
-208
-191
-179
-181
-194
-193
-161
-116
-80
-42
8
62
138
229
282
289
292
282
217
123
51
-8
-67
-95
-85
-89
-126
-152
-141
-125
-134
-149
-136
-106
-94
-100
-93
-58
2
58
63
17
-35
-78
-99
-59
-3
-7
-11
8
-34
-25
150
311
472
786
786
152
-381
-295
-114
-163
-173
-117
-139
-150
-100
-87
-102
-77
-60
-87
-76
-16
8
21
79
117
122
190
287
312
297
300
282
218
147
83
26
-10
-33
-66
-90
-87
-86
-96
-93
-89
-99
-96
-72
-58
-69
-84
-66
-13
15
-22
-81
-114
-123
-117
-107
-119
-132
-96
-69
-110
-87
32
108
273
587
549
6
-362
-269
-166
-208
-190
-140
-143
-139
-118
-115
-104
-76
-50
-24
-3
8
29
61
88
116
159
207
258
302
314
301
283
243
177
115
59
8
-14
-14
-26
-39
-40
-36
-31
-28
-28
-19
-3
7
7
-3
-5
34
83
75
21
-18
-36
-54
-60
-55
-71
-83
-64
-73
-99
-36
89
191
258
150
-197
-432
-326
-159
-139
-151
-146
-141
-108
-77
-89
-94
-69
-49
-42
-31
-13
1
8
19
43
76
120
180
235
253
243
224
190
127
48
-15
-54
-84
-116
-136
-132
-121
-114
-110
-113
-125
-132
-119
-90
-66
-60
-51
-21
8
6
-30
-75
-105
-113
-105
-94
-95
-76
-38
-60
-81
33
191
329
536
553
111
-329
-317
-159
-155
-161
-132
-152
-165
-149
-157
-163
-141
-136
-144
-125
-95
-75
-50
-19
9
42
90
160
228
250
253
284
274
173
82
62
37
-17
-51
-54
-46
-40
-47
-42
-17
-20
-53
-54
-19
-1
-8
0
45
102
129
126
115
118
163
252
348
460
620
772
905
1185
1599
1688
1134
317
-189
-322
-339
-351
-344
-347
-384
-408
-389
-376
-407
-450
-491
-529
-544
-551
-600
-662
-679
-653
-601
-531
-446
-327
-178
-49
49
120
130
97
95
104
70
29
26
35
30
27
31
31
32
39
37
23
22
40
30
-17
-19
49
118
143
134
130
168
204
168
101
71
54
31
27
