# session 61
-6
24
33
17
-19
-69
-128
-187
-239
-279
-306
-324
-329
-324
-315
-296
-273
-242
-160
-45
44
199
479
729
930
1173
1194
739
127
-254
-433
-522
-535
-540
-564
-560
-544
-560
-589
-612
-642
-679
-717
-754
-777
-772
-741
-672
-545
-370
-187
-33
86
168
203
198
169
126
87
77
70
45
35
50
54
51
62
64
56
70
97
101
94
106
126
122
102
100
108
95
68
54
50
42
24
3
17
92
170
176
131
103
97
95
120
146
119
108
148
119
112
294
458
573
926
1092
494
-191
-184
40
-21
-89
-32
-17
-21
-13
-53
-77
-33
-1
-20
-36
-17
22
67
106
142
208
301
367
394
409
388
314
231
161
79
-7
-73
-119
-151
-164
-161
-153
-159
-169
-153
-105
-57
-11
61
183
373
620
825
940
1091
1328
1380
985
318
-208
-428
-478
-504
-529
-541
-544
-549
-565
-593
-625
-662
-720
-780
-810
-835
-886
-919
-889
-807
-682
-516
-340
-175
-39
40
51
28
0
-28
-52
-59
-44
-30
-35
-41
-27
-3
7
4
11
24
26
19
12
1
-5
0
-3
-22
-24
10
42
40
37
79
141
158
126
96
86
72
60
63
51
42
65
48
10
103
263
398
660
853
501
-97
-240
-44
13
-34
-15
8
0
0
-2
-10
0
20
18
1
20
74
102
108
146
201
240
290
343
343
310
303
286
199
90
37
10
-51
-113
-133
-137
-147
-141
-124
-126
-135
-116
-78
-70
-91
-85
-42
-18
-38
-64
-76
-93
-116
-119
-111
-108
-83
-67
-96
-76
29
118
218
302
114
-272
-400
-244
-153
-174
-164
-142
-143
-130
-111
-109
-105
-88
-68
-50
-33
-19
5
50
98
139
194
258
290
287
280
253
182
90
10
-57
-100
-117
-136
-161
-164
-139
-123
-132
-134
-109
-76
-57
-47
-17
53
133
186
224
266
337
478
628
716
897
1252
1403
1016
374
-71
-253
-319
-331
-328
-343
-359
-367
-386
-413
-441
-481
-531
-578
-621
-661
-702
-733
-733
-690
-612
-500
-350
-186
-40
74
144
169
164
142
103
69
63
76
76
64
67
80
87
85
74
75
103
115
75
29
36
76
81
39
29
97
150
113
62
57
53
34
41
58
41
38
77
54
-3
99
276
388
618
808
433
-198
-335
-130
-86
-127
-109
-119
-132
-101
-86
-86
-71
-61
-51
-30
-10
17
61
113
179
260
328
376
420
445
430
377
284
159
46
-27
-78
-127
-164
-184
-195
-197
-198
-215
-233
-209
-169
-176
-194
-159
-100
-66
-67
-95
-125
-149
-185
-191
-137
-111
-134
-116
-111
-150
-55
147
249
372
504
229
-301
-429
-219
-155
-207
-185
-157
-161
-145
-125
-110
-95
-85
-71
-51
-38
-25
1
40
98
167
236
305
351
345
313
276
196
76
-18
-61
-86
-107
-120
-131
-137
-127
-107
-97
-105
-104
-69
-36
-41
-50
-22
37
84
71
18
6
18
-21
-59
-23
9
6
11
-26
-51
66
184
272
579
791
371
-232
-327
-150
-110
-118
-108
-142
-157
-125
-115
-125
-118
-110
-104
-78
-43
-25
0
54
113
169
237
294
314
309
294
257
183
89
10
-50
-97
-116
-110
-116
-127
-115
-114
-133
-118
-69
-16
59
148
276
519
774
937
1184
1445
1240
566
-21
-292
-411
-456
-459
-483
-496
-475
-482
-518
-542
-561
-579
-594
-626
-670
-685
-670
-632
-551
-422
-276
-133
-3
100
169
192
157
104
81
63
20
2
32
53
44
40
37
24
26
38
39
32
22
12
9
4
-12
-20
-18
-20
-26
-26
-13
-5
-21
-29
0
28
28
38
81
126
139
119
98
92
84
76
80
68
52
81
89
41
77
218
359
557
686
385
-138
-290
-115
-36
-71
-73
-70
-76
-70
-73
-79
-66
-59
-58
-33
4
25
40
69
111
152
190
229
256
257
246
226
183
121
59
-3
-68
-117
-137
-149
-159
-157
-150
-137
-108
-86
-62
25
146
259
452
709
892
1100
1389
1374
852
238
-128
-318
-405
-404
-408
-439
-443
-443
-475
-515
-546
-576
-619
-681
-741
-778
-795
-787
-734
-619
-457
-279
-98
61
142
138
114
107
87
43
11
5
9
18
23
16
18
38
42
23
20
31
27
26
40
35
20
34
50
44
54
83
79
54
48
31
-6
-5
28
9
-57
-61
14
79
90
67
32
15
21
37
53
49
50
83
69
54
191
356
471
763
949
479
-186
-267
-42
-39
-102
-69
-75
-105
-73
-50
-71
-68
-42
-39
-49
-40
-13
23
68
117
167
229
300
345
351
339
303
229
138
49
-35
-99
-138
-170
-193
-198
-195
-198
-198
-183
-167
-164
-155
-136
-134
-148
-141
-98
-53
-35
-56
-95
-113
-108
-111
-111
-101
-104
-91
-67
-105
-92
72
200
329
647
690
97
-420
-332
-152
-206
-231
-172
-171
-184
-168
-160
-150
-132
-125
-114
-79
-46
-24
17
83
148
206
267
323
368
389
353
265
164
65
-28
-91
-121
-144
-169
-179
-177
-174
-156
-135
-142
-148
-117
-87
-101
-116
-94
-55
-28
-22
-43
-78
-99
-108
-117
-100
-66
-61
-54
-25
-33
-15
114
241
372
584
555
96
-267
-193
-41
-53
-69
-38
-30
-37
-40
-45
-40
-27
-13
1
13
32
62
95
129
184
258
313
342
370
386
358
293
212
123
39
-19
-50
-67
-77
-78
-76
-83
-80
-46
-23
-23
21
106
200
378
612
778
1000
1304
1263
721
149
-148
-302
-390
-396
-390
-409
-423
-439
-465
-487
-513
-553
-599
-648
-693
-720
-734
-735
-696
-596
-455
-303
-152
-12
86
128
126
97
57
29
9
-24
-46
-38
-34
-53
-64
-53
-44
-53
-67
-69
-62
-60
-51
-33
-27
-32
-25
-7
10
24
28
25
24
17
-2
-6
8
13
3
6
49
118
160
156
140
124
99
87
91
72
54
85
83
13
56
228
342
510
757
571
-68
-378
-187
-75
-137
-99
-39
-76
-97
-65
-48
-30
6
12
-4
12
49
84
139
185
202
269
384
429
399
389
382
321
240
174
93
-14
-97
-123
-123
-141
-171
-174
-140
-79
-20
6
63
281
603
797
921
1303
1795
1742
977
110
-353
-479
-510
-537
-557
-563
-571
-595
-619
-629
-644
-679
-716
-744
-777
-808
-810
-774
-704
-586
-415
-233
-75
48
120
129
104
77
49
22
7
4
8
16
22
21
22
29
29
14
-3
-9
3
7
-18
-43
-41
-26
-15
-11
-22
-26
-15
-18
-31
-31
-31
-35
-19
-6
-31
-47
7
87
110
80
58
57
41
20
26
34
34
66
77
24
69
238
348
533
842
711
46
-341
-196
-77
-142
-153
-123
-130
-136
-136
-124
-83
-49
-38
-20
0
9
43
106
158
196
245
299
341
359
349
324
289
231
150
80
26
-28
-71
-88
-95
-107
-122
-134
-124
-93
-82
-105
-113
-90
-79
-95
-93
-62
-43
-57
-89
-114
-122
-126
-124
-106
-98
-108
-88
-75
-116
-91
33
142
347
642
533
-36
-372
-250
-135
-175
-171
-134
-140
-139
-111
-91
-84
-76
-60
-35
-12
5
29
71
124
174
225
286
333
342
325
292
226
128
31
-41
-90
-131
-157
-166
-173
-186
-187
-167
-145
-140
-118
-40
52
151
353
613
774
917
1101
1010
538
73
-151
-265
-330
-329
-322
-333
-340
-361
-399
-418
-425
-459
-512
-548
-566
-587
-598
-570
-497
-385
-243
-92
40
136
193
209
186
132
72
27
-4
-29
-41
-36
-29
-26
-15
2
10
10
13
17
22
30
36
46
59
65
65
69
73
75
89
100
81
51
48
64
67
56
55
83
136
159
116
70
68
66
51
52
42
22
33
21
2
100
243
372
632
755
305
-284
-349
-134
-101
-156
-154
-152
-142
-116
-111
-103
-86
-90
-88
-60
-37
-20
21
83
135
177
238
325
394
416
407
366
275
180
117
51
-27
-76
-110
-152
-170
-155
-144
-149
-159
-159
-141
-122
-133
-157
-149
-104
-48
-18
-60
-144
-175
-155
-158
-155
-129
-149
-168
-113
-104
-128
9
195
259
360
391
25
-404
-394
-189
-154
-172
-144
-150
-165
-141
-118
-111
-95
-65
-39
-21
2
35
69
110
177
267
341
381
405
408
363
272
153
34
-55
-114
-159
-182
-188
-201
-209
-188
-152
-135
-140
-144
-112
-57
-52
-91
-84
-19
34
47
30
-8
-46
-54
-48
-45
-49
-49
-16
-3
-69
-69
87
216
356
659
680
116
-367
-298
-130
-163
-181
-127
-108
-115
-107
-95
-86
-81
-70
-51
-34
-17
7
41
95
167
230
286
346
384
378
340
275
183
82
1
-55
-89
-115
-133
-131
-123
-127
-116
-83
-64
-21
91
224
396
666
928
1165
1526
1771
1417
604
-57
-351
-463
-505
-505
-520
-556
-572
-573
-599
-638
-660
-689
-741
-766
-759
-772
-785
-726
-608
-469
-301
-122
10
87
136
152
119
73
48
26
-3
-10
-4
-13
-16
3
13
3
6
33
46
31
28
40
38
31
35
36
29
25
9
-16
-12
-1
-29
-57
-34
1
-4
-10
28
89
128
128
99
79
81
74
71
91
86
66
84
82
63
145
277
417
652
708
276
-208
-234
-65
-39
-54
-40
-57
-58
-27
-23
-30
-20
-11
-10
-1
10
15
35
78
126
173
225
268
289
299
293
251
186
126
69
4
-56
-89
-103
-119
-137
-139
-127
-119
-118
-100
-71
-38
39
147
242
399
654
851
959
1097
1112
775
273
-82
-263
-353
-381
-395
-421
-438
-447
-468
-490
-513
-548
-593
-644
-695
-726
-748
-773
-755
-665
-545
-414
-248
-85
17
74
101
81
40
24
13
-7
-6
12
18
19
23
23
31
50
56
54
56
55
51
58
67
71
71
59
62
93
100
64
46
58
59
55
53
37
52
122
157
112
66
53
35
30
53
45
15
41
55
8
70
256
402
628
877
612
-62
-332
-122
-12
-77
-85
-72
-84
-70
-55
-69
-71
-50
-34
-36
-30
0
34
59
103
168
230
291
350
373
351
310
251
160
61
-19
-84
-137
-162
-170
-188
-209
-214
-203
-199
-209
-212
-193
-166
-159
-164
-153
-113
-70
-57
-81
-124
-153
-165
-170
-155
-136
-147
-131
-83
-108
-110
43
181
310
620
690
143
-364
-295
-122
-166
-183
-138
-150
-150
-122
-129
-129
-106
-105
-101
-66
-30
-11
17
64
132
216
293
344
372
373
335
261
164
53
-42
-95
-116
-127
-127
-112
-110
-137
-150
-121
-95
-99
-102
-90
-78
-66
-28
51
149
223
271
372
547
662
723
997
1439
1497
942
247
-162
-324
-381
-396
-415
-437
-441
-439
-436
-442
-464
-482
-491
-513
-546
-571
-573
-563
-558
-527
-433
-297
-162
-41
63
151
207
198
144
105
90
75
55
38
26
18
22
26
21
27
52
66
60
59
60
49
33
24
6
-19
-9
32
32
13
55
112
111
91
70
26
3
12
13
16
27
33
41
34
39
118
214
313
499
534
155
-252
-251
-92
-81
-99
-66
-63
-76
-68
-68
-76
-67
-50
-43
-37
-19
4
28
64
109
154
201
247
280
293
275
222
153
80
3
-70
-134
-185
-218
-220
-205
-207
-221
-209
-185
-179
-174
-156
-133
-101
-66
-47
-28
7
23
-3
-41
-58
-62
-67
-68
-67
-63
-41
-24
-59
-70
32
152
252
409
397
6
-352
-292
-106
-94
-123
-102
-99
-110
-104
-102
-104
-92
-71
-53
-44
-30
4
43
74
120
195
268
321
368
407
405
351
265
172
84
18
-18
-44
-72
-80
-65
-55
-66
-83
-90
-82
-76
-81
-78
-60
-23
52
158
255
336
455
632
782
881
1099
1436
1476
952
216
-247
-379
-392
-421
-460
-470
-458
-453
-472
-512
-551
-567
-582
-622
-677
-731
-756
-731
-711
-716
-648
-472
-283
-129
-7
69
108
130
110
68
58
55
17
-6
22
41
11
-9
18
42
29
14
22
45
54
26
4
24
16
-50
-69
-1
25
-50
-95
-18
82
96
63
52
62
60
40
28
29
41
74
75
26
76
246
373
525
700
492
-64
-300
-123
-23
-62
-47
-26
-31
-11
0
-11
-12
-5
19
41
29
28
69
110
152
227
306
368
426
460
442
386
308
212
110
23
-42
-87
-118
-143
-161
-163
-157
-139
-101
-88
-127
-134
-73
-45
-88
-120
-94
-21
43
18
-44
-46
-55
-112
-106
-58
-89
-113
-53
-59
-121
-14
196
326
481
540
154
-353
-396
-172
-133
-189
-172
-149
-149
-146
-153
-149
-123
-116
-125
-105
-57
-27
-25
8
89
172
240
310
366
380
343
253
134
22
-77
-158
-203
-219
-232
-248
-254
-238
-215
-206
-195
-164
-151
-169
-163
-129
-129
-156
-140
-81
-32
-13
-39
-112
-154
-124
-99
-121
-142
-134
-107
-115
-159
-90
84
171
337
719
732
108
-372
-282
-136
-191
-211
-161
-150
-164
-163
-136
-96
-91
-110
-87
-36
-6
26
90
161
214
261
322
385
418
409
375
320
224
110
24
-36
-79
-101
-108
-105
-93
-83
-66
-28
4
51
144
228
346
627
914
1041
1303
1770
1813
1142
322
-156
-344
-412
-448
-486
-481
-447
-466
-508
-503
-505
-562
-607
-626
-665
-692
-664
-632
-592
-466
-289
-163
-70
37
109
132
142
123
77
58
42
11
20
54
49
35
46
43
15
7
26
46
44
30
30
40
31
12
10
18
19
22
24
16
12
19
14
-2
-3
7
-4
-43
-69
-46
-21
-42
-64
-38
-2
11
19
