# session 98
68
117
154
188
237
304
367
403
410
405
377
300
190
92
32
3
-11
-33
-52
-56
-62
-66
-41
-9
4
31
77
96
82
73
84
137
234
332
443
600
722
832
1136
1520
1450
762
-12
-397
-471
-475
-480
-482
-492
-507
-529
-554
-566
-585
-632
-677
-718
-777
-827
-837
-817
-757
-652
-526
-378
-215
-88
-3
55
62
28
7
-5
-25
-35
-29
-17
-11
-24
-28
6
28
7
18
93
157
156
121
94
72
47
42
52
47
63
97
68
73
216
343
465
705
675
139
-275
-180
-29
-69
-81
-40
-46
-53
-40
-44
-45
-26
-5
9
17
30
83
160
220
278
360
419
414
387
351
266
157
70
-8
-76
-121
-163
-195
-186
-154
-132
-132
-141
-111
-34
32
60
84
108
125
192
345
511
619
756
1063
1486
1729
1473
730
-56
-469
-548
-555
-585
-592
-582
-584
-593
-612
-646
-672
-694
-734
-777
-798
-812
-816
-767
-652
-504
-356
-203
-51
54
96
98
68
16
-21
-30
-28
-29
-36
-34
-15
-11
-25
-20
2
-1
-17
-7
35
82
98
76
40
9
-6
5
22
14
15
36
23
13
97
199
292
489
574
237
-189
-221
-49
-10
-26
-4
-9
-19
-4
-7
-9
22
51
56
61
82
128
190
241
287
347
405
437
427
369
298
236
154
63
5
-32
-62
-70
-76
-89
-80
-49
-39
-41
-14
49
105
131
153
195
279
415
543
635
794
1002
988
619
141
-169
-286
-313
-327
-344
-353
-362
-377
-392
-412
-444
-470
-497
-540
-570
-573
-577
-580
-535
-437
-325
-215
-104
-6
56
66
31
-14
-32
-38
-59
-84
-88
-84
-92
-93
-66
-51
-88
-123
-104
-76
-91
-99
-61
-14
9
14
1
-35
-64
-57
-25
-22
-34
-11
-20
-51
63
234
283
435
674
447
-140
-335
-139
-66
-99
-54
-39
-78
-72
-51
-31
13
22
-5
27
99
133
164
240
334
410
453
483
510
487
396
295
189
55
-41
-60
-70
-118
-157
-146
-114
-112
-134
-130
-67
29
112
170
213
272
389
562
741
933
1174
1350
1211
688
64
-330
-460
-503
-544
-536
-492
-516
-599
-622
-590
-612
-678
-716
-740
-767
-776
-776
-761
-688
-564
-414
-241
-91
-5
49
83
67
23
-3
-9
-18
-30
-30
-24
-20
-5
13
15
16
20
20
36
56
52
67
136
197
208
201
188
160
147
160
150
134
177
189
117
155
316
407
631
1040
946
222
-225
-124
-51
-99
-53
-50
-135
-136
-78
-69
-90
-97
-80
-60
-48
-16
40
95
150
200
230
261
291
274
215
135
40
-44
-100
-140
-161
-170
-197
-220
-194
-145
-118
-111
-94
-46
7
8
-35
-55
-51
-74
-93
-84
-91
-94
-74
-92
-74
56
157
254
459
429
-26
-360
-275
-155
-183
-201
-192
-198
-181
-159
-158
-163
-162
-141
-105
-76
-45
-6
31
89
175
239
272
295
280
214
134
50
-29
-69
-88
-113
-113
-96
-113
-133
-102
-71
-91
-94
-46
-17
-21
-14
-11
-33
-54
-66
-68
-55
-36
-22
-30
-52
-6
99
169
275
406
253
-154
-332
-197
-96
-115
-120
-99
-89
-86
-77
-50
-27
-25
-15
21
59
89
117
149
193
254
311
341
345
328
284
212
127
54
9
-16
-33
-42
-49
-65
-76
-52
-15
-17
-45
-24
47
82
44
-10
-41
-61
-68
-64
-88
-111
-88
-88
-114
-64
26
143
386
499
146
-306
-356
-211
-198
-222
-198
-197
-194
-170
-163
-163
-150
-135
-114
-88
-66
-28
25
73
130
198
239
250
266
263
189
73
-4
-48
-101
-136
-137
-147
-167
-159
-138
-122
-106
-102
-89
-17
57
54
18
6
6
27
86
172
266
315
332
454
684
842
872
815
579
160
-205
-344
-340
-329
-348
-362
-352
-343
-356
-377
-397
-412
-434
-475
-515
-531
-540
-536
-481
-393
-302
-189
-59
28
68
104
108
59
28
54
94
144
233
344
518
794
1070
1306
1602
1834
1681
1104
394
-132
-354
-399
-439
-483
-492
-499
-531
-573
-607
-635
-674
-725
-768
-775
-733
-642
-509
-349
-189
-45
82
166
186
175
165
143
115
109
101
74
60
74
84
78
68
59
46
31
24
35
44
24
-11
-18
9
21
-11
-44
-34
-9
-23
-57
-62
-44
-40
-37
4
72
105
80
41
16
7
14
2
-31
-16
20
3
36
156
242
435
756
653
38
-324
-189
-71
-113
-104
-74
-88
-82
-61
-62
-66
-56
-45
-29
-3
16
35
86
165
223
250
276
295
283
247
197
127
44
-33
-100
-147
-164
-176
-198
-212
-207
-177
-122
-73
-20
83
230
409
600
726
845
1069
1161
837
321
-46
-260
-385
-417
-425
-445
-445
-438
-447
-469
-515
-577
-616
-635
-666
-708
-722
-671
-570
-445
-296
-127
19
111
148
139
95
45
19
11
-1
-8
-4
-9
-17
-2
12
3
1
18
18
4
6
14
2
-1
29
56
53
71
134
173
142
101
101
107
97
103
106
92
104
118
98
130
229
331
505
635
373
-111
-247
-64
13
-32
-15
25
19
10
21
33
40
50
62
72
85
95
107
143
202
250
278
304
316
297
252
188
114
45
-21
-79
-115
-144
-183
-215
-215
-188
-156
-147
-155
-141
-96
-70
-88
-112
-121
-138
-155
-140
-126
-140
-126
-96
-117
-94
44
155
233
312
126
-308
-470
-280
-174
-213
-198
-164
-166
-144
-119
-119
-111
-92
-80
-53
-8
29
61
111
183
259
330
382
399
375
296
165
30
-63
-123
-179
-220
-231
-232
-243
-238
-204
-180
-182
-176
-129
-59
-15
-45
-111
-114
-85
-112
-134
-90
-60
-64
-67
-78
-9
167
281
346
430
256
-178
-340
-134
-9
-63
-83
-44
-19
-26
-44
-29
-6
-16
-2
52
65
55
106
210
311
376
404
433
461
421
299
180
114
50
-41
-96
-90
-89
-111
-118
-101
-71
-35
9
88
198
313
477
700
866
985
1255
1601
1587
1050
352
-129
-352
-455
-522
-539
-501
-490
-538
-575
-591
-633
-675
-698
-745
-802
-823
-826
-817
-763
-649
-477
-295
-159
-58
25
53
45
38
9
-42
-59
-37
-23
-24
-20
-13
-9
4
15
3
-2
16
5
-37
-39
-10
-27
-58
-21
55
107
125
104
58
33
41
56
54
40
57
76
46
87
237
352
551
853
701
25
-361
-217
-87
-116
-117
-127
-146
-107
-83
-97
-86
-69
-66
-39
-17
-17
23
107
175
225
293
357
367
336
308
266
180
91
17
-67
-119
-107
-105
-148
-163
-113
-49
-37
-56
-25
45
53
-6
-43
-50
-72
-92
-85
-74
-58
-35
-62
-95
-9
120
223
444
589
258
-236
-316
-154
-135
-174
-151
-122
-100
-93
-114
-105
-59
-34
-33
-18
21
71
108
135
189
260
299
302
295
283
233
130
35
-7
-44
-97
-106
-84
-106
-147
-145
-118
-97
-84
-75
-54
-29
-35
-60
-74
-95
-126
-126
-110
-105
-66
1
39
127
298
427
606
867
743
118
-332
-314
-257
-314
-302
-253
-252
-242
-220
-220
-214
-200
-198
-190
-172
-162
-152
-133
-114
-91
-51
-5
31
57
69
57
26
-12
-49
-79
-96
-105
-111
-128
-148
-139
-99
-79
-93
-87
-41
-8
-22
-62
-92
-107
-110
-98
-96
-107
-90
-74
-98
-50
88
182
279
375
174
-236
-350
-181
-107
-117
-71
-48
-62
-40
-17
-18
-9
7
23
56
85
110
170
241
281
337
431
481
473
456
411
310
201
123
74
36
-11
-51
-54
-46
-62
-86
-90
-72
-36
22
93
151
192
245
333
482
671
803
922
1228
1579
1471
813
113
-240
-320
-329
-346
-365
-383
-399
-406
-419
-447
-475
-508
-564
-620
-654
-680
-708
-706
-640
-532
-417
-275
-98
42
102
113
108
89
53
30
50
69
52
49
69
49
21
59
97
57
2
0
7
-10
-2
59
106
88
37
1
-31
-91
-168
-238
-277
-270
-290
-372
-351
-215
-155
-26
263
183
-392
-729
-575
-430
-434
-383
-319
-301
-253
-204
-190
-155
-116
-112
-85
-19
31
66
124
191
251
313
370
399
392
356
291
203
116
47
-20
-83
-103
-84
-93
-124
-98
-13
49
102
210
375
594
827
980
1140
1397
1463
1083
523
105
-162
-304
-325
-326
-362
-388
-388
-384
-384
-394
-418
-450
-484
-509
-520
-502
-441
-334
-193
-29
126
231
277
291
278
225
164
145
148
135
130
157
179
162
130
120
140
158
150
137
135
122
91
71
75
94
105
103
123
178
210
193
171
163
145
138
160
159
139
157
165
126
148
245
322
428
511
305
-92
-239
-119
-44
-63
-68
-64
-75
-83
-85
-76
-61
-63
-78
-78
-59
-35
-2
29
44
69
116
146
142
123
96
49
-22
-112
-194
-245
-273
-300
-330
-358
-367
-344
-313
-311
-328
-318
-267
-230
-260
-319
-340
-345
-359
-352
-350
-376
-360
-336
-368
-314
-153
-44
107
279
34
-531
-722
-517
-439
-502
-469
-413
-432
-443
-417
-410
-409
-388
-370
-346
-289
-234
-203
-145
-39
67
143
182
178
140
74
-29
-151
-249
-307
-334
-344
-356
-367
-356
-317
-271
-244
-253
-249
-168
-55
-17
-54
-69
-45
-50
-72
-45
4
36
81
128
199
399
641
812
1039
1142
700
86
-18
171
195
199
290
297
269
323
375
391
424
455
471
511
567
609
655
734
832
918
996
1080
1137
1141
1116
1095
1075
1043
1016
1024
1062
1087
1083
1086
1130
1201
1232
1214
1258
1388
1479
1489
1493
1490
1470
1498
1526
1419
1286
1341
1438
1338
1237
1282
1240
1199
1312
979
-80
-1006
-1306
-1499
-1870
-2169
-2334
-2494
-2622
-2565
-2289
-1972
-1818
-1859
-2050
-2369
-2683
-2753
-2586
-2520
-2684
-2829
-2892
-3058
-3216
-3096
-2794
-2561
-2410
-2280
-2185
-2094
-1956
-1759
-1491
-1183
-922
-713
-510
-312
-106
121
291
371
447
537
592
660
728
631
398
240
162
115
175
303
518
937
1165
780
326
401
652
704
751
872
925
941
999
1048
1050
1043
1048
992
825
664
639
677
674
701
825
947
974
942
893
818
709
595
502
432
384
367
382
413
436
451
485
536
555
531
541
606
628
569
510
486
469
464
461
431
408
400
353
323
389
472
574
717
625
210
-68
7
108
85
77
89
67
51
47
34
29
29
16
17
39
51
59
91
127
158
205
247
235
197
164
100
0
-89
-155
-205
-233
-258
-296
-321
-332
-345
-344
-340
-356
-356
-311
-286
-316
-346
-364
-408
-454
-463
-472
-493
-496
-549
-658
-655
-538
-443
-269
-89
-349
-909
-1087
-877
-767
-773
-707
-640
-621
-584
-534
-504
-478
-437
-380
-336
-308
-257
-185
-128
-65
31
133
209
238
214
158
82
-6
-69
-111
-165
-187
-147
-131
-167
-165
-123
-118
-124
-81
-25
15
46
53
41
30
5
-5
24
26
13
53
61
40
178
412
582
771
797
356
-140
-162
-2
-15
-27
38
28
-7
24
48
59
99
105
78
110
166
175
206
286
337
373
446
492
472
422
354
276
211
147
86
64
66
56
37
13
-2
29
66
47
45
132
234
289
342
407
491
647
830
968
1194
1601
1874
1609
889
186
-202
-334
-368
-376
-380
-395
-416
-437
-457
-475
-501
-553
-615
-659
-699
-750
-780
-766
-710
-600
-438
-262
-108
-10
18
35
64
45
-17
-48
-34
-7
-11
-57
-65
-16
-20
-72
-91
-149
-250
-240
-170
-202
-259
-195
-87
-70
-115
-125
-99
-98
-132
-186
-228
-186
-115
-135
-125
11
118
314
751
870
306
-223
-201
-69
-108
-101
-40
-60
-81
-46
-34
-56
-46
-19
-27
-33
6
48
74
122
183
220
254
295
312
286
212
109
36
-9
-70
-132
-157
-165
-178
-192
-199
-185
-148
-128
-148
-155
-108
-55
-57
-95
-123
-133
-131
-117
-103
-90
-55
-36
-59
-21
95
194
344
489
279
-172
-309
-137
-65
-94
-64
-37
-39
-17
10
20
22
28
55
99
135
161
197
247
303
351
385
410
415
384
320
239
155
89
45
12
-5
-3
-8
-31
-44
-24
16
40
40
47
87
129
125
76
25
-5
-38
-113
-249
-358
-334
-258
-240
-179
-33
90
291
547
403
-144
-439
-317
-218
-253
-246
-215
-211
-202
-194
-195
-183
-158
-131
-108
-89
-56
-11
30
88
175
248
277
287
277
221
133
44
-33
-87
-120
-141
-142
-129
-137
-161
-155
-109
-75
-90
-106
-61
24
71
43
-20
-28
50
140
195
234
275
370
570
776
859
797
567
249
38
-66
-189
-284
-296
-289
-272
-248
-277
-328
-330
-329
-385
-452
-483
-501
-524
-541
-539
-494
-402
-300
-194
-74
20
54
57
54
37
8
-19
-33
-29
-11
27
104
213
373
631
893
1062
1281
1580
1603
1127
436
-73
-296
-362
-400
-439
-459
-461
-464
-488
-529
-561
-602
-673
-731
-753
-768
-764
-689
-552
-384
-201
-41
67
134
152
120
96
106
95
64
70
93
84
70
91
116
110
94
94
93
79
82
109
112
76
70
141
218
266
371
508
583
710
943
1059
1034
1000
773
331
87
50
-164
-425
-410
-293
-300
-332
-335
-372
-407
-426
-484
-547
-569
-611
-681
-697
-662
-629
-568
-452
-314
-167
-14
108
185
236
247
225
228
255
251
225
221
225
217
214
220
238
295
363
421
544
734
867
963
1136
1241
1044
613
186
-105
-243
-283
-291
-288
-286
-305
-316
-302
-311
-363
-435
-510
-580
-622
-630
-605
-533
-417
-297
-191
-83
6
39
40
43
24
-21
-58
-69
-58
-40
-46
-72
-86
