# session 53
-27
8
4
-34
-82
-139
-218
-297
-345
-365
-376
-387
-405
-426
-428
-403
-373
-354
-341
-320
-272
-207
-174
-195
-228
-242
-255
-254
-220
-204
-197
-150
-142
-171
-68
84
149
344
568
299
-252
-390
-202
-149
-188
-161
-138
-135
-122
-117
-112
-96
-84
-69
-51
-39
-19
7
28
70
136
193
232
276
319
345
338
277
184
114
63
-2
-49
-44
-33
-56
-80
-61
-18
2
35
131
216
302
554
863
996
1177
1531
1533
935
272
-80
-249
-336
-350
-348
-344
-349
-373
-385
-388
-420
-462
-495
-537
-580
-610
-635
-648
-625
-566
-472
-344
-192
-41
79
149
169
163
147
127
107
89
69
54
50
47
48
57
59
55
52
41
29
26
25
28
29
0
-35
-23
19
22
-8
-5
37
79
94
61
3
-21
-9
-8
-27
-37
-15
7
-14
3
96
192
371
623
531
31
-281
-183
-70
-90
-84
-59
-68
-65
-43
-23
-6
5
7
14
27
37
45
59
85
117
152
194
237
266
276
272
250
206
149
87
30
-25
-77
-111
-129
-145
-157
-161
-162
-152
-131
-130
-134
-98
-56
-74
-120
-139
-156
-186
-186
-174
-189
-185
-170
-202
-175
-23
110
222
336
164
-276
-450
-269
-155
-184
-166
-129
-126
-125
-132
-136
-106
-74
-66
-54
-27
5
34
62
110
178
242
305
374
420
424
404
357
268
156
59
-5
-43
-76
-111
-136
-143
-145
-139
-115
-102
-117
-109
-45
25
45
30
23
44
87
151
232
326
452
609
728
855
1216
1746
1857
1214
308
-232
-377
-393
-391
-400
-429
-433
-424
-458
-505
-516
-528
-574
-616
-649
-701
-743
-755
-765
-766
-722
-642
-528
-373
-225
-121
-37
30
47
34
27
20
2
-10
-12
-16
-16
-17
-29
-30
1
24
16
21
80
152
176
147
116
104
90
79
94
95
84
117
118
62
151
334
403
601
934
736
36
-270
-77
8
-56
-34
-16
-52
-46
-28
-45
-50
-29
-23
-43
-53
-27
19
42
56
109
185
243
297
354
365
331
292
228
120
21
-45
-92
-115
-122
-142
-170
-183
-180
-158
-126
-124
-140
-108
-39
-13
-37
-52
-53
-62
-69
-70
-76
-70
-43
-64
-105
-27
99
170
357
552
289
-254
-422
-244
-166
-194
-172
-151
-159
-151
-132
-120
-105
-91
-78
-56
-34
-22
1
42
71
96
145
205
252
282
280
252
223
168
80
5
-47
-90
-107
-105
-117
-135
-138
-139
-138
-117
-98
-110
-119
-76
-16
-18
-69
-91
-74
-66
-73
-77
-78
-58
-40
-73
-78
19
111
220
440
462
57
-306
-256
-113
-119
-121
-81
-78
-76
-55
-47
-42
-24
-13
-9
6
24
35
50
78
118
161
205
248
274
281
282
268
214
129
47
-19
-57
-65
-75
-97
-107
-112
-135
-145
-109
-64
-24
46
152
319
578
777
827
978
1275
1254
744
177
-148
-320
-410
-427
-431
-447
-460
-476
-497
-518
-538
-559
-594
-649
-695
-718
-743
-763
-739
-663
-546
-389
-213
-48
94
202
253
247
210
162
125
111
96
69
50
35
7
0
27
45
46
51
34
0
9
48
50
22
22
43
34
2
8
72
146
181
169
131
102
91
90
95
85
70
100
109
44
82
259
397
616
900
672
-47
-391
-210
-108
-161
-140
-133
-180
-163
-118
-112
-108
-104
-115
-104
-73
-65
-58
-9
57
99
142
215
286
311
308
307
287
222
132
50
-17
-71
-106
-120
-124
-137
-152
-152
-136
-104
-63
-25
43
175
336
515
724
891
1020
1275
1588
1535
943
206
-246
-398
-446
-473
-477
-487
-516
-528
-529
-565
-616
-636
-655
-709
-770
-808
-839
-867
-853
-773
-660
-532
-370
-198
-63
32
96
111
86
59
40
19
4
1
-5
-10
0
12
15
29
48
54
59
77
97
99
70
32
17
26
38
34
19
36
89
112
87
58
46
35
38
57
57
53
91
103
67
131
277
393
660
961
701
21
-251
-74
1
-51
-30
-9
-34
-40
-38
-45
-45
-45
-43
-35
-33
-28
0
26
30
58
131
205
233
220
218
242
228
159
102
62
-15
-84
-86
-73
-110
-155
-152
-129
-143
-168
-131
-77
-91
-112
-58
3
-4
-41
-60
-73
-90
-88
-68
-64
-64
-48
-59
-72
8
119
196
293
255
-80
-377
-327
-170
-138
-141
-126
-126
-121
-120
-121
-100
-89
-100
-87
-59
-47
-26
3
17
50
121
187
219
239
267
278
234
161
99
33
-39
-85
-112
-137
-147
-135
-109
-80
-67
-70
-56
-28
-32
-39
9
79
119
153
193
244
359
499
557
673
975
1137
833
298
-74
-220
-252
-252
-261
-279
-284
-283
-294
-319
-341
-360
-390
-426
-451
-471
-497
-519
-527
-507
-456
-374
-266
-150
-46
53
138
178
179
148
54
-65
-102
-64
-44
-53
-29
44
118
168
247
377
510
707
1056
1318
1121
514
-73
-350
-341
-209
-111
-115
-180
-242
-275
-278
-284
-314
-349
-368
-376
-373
-363
-347
-309
-239
-147
-45
68
178
246
262
249
218
169
122
92
58
23
13
18
10
-12
-25
-13
8
6
-9
-4
1
-8
-9
0
-2
-8
-6
0
8
11
7
7
12
15
19
30
34
9
-24
-20
15
29
-1
-20
31
102
113
79
45
8
-8
7
0
-30
-7
20
-37
-26
157
311
416
586
492
-19
-356
-240
-130
-188
-167
-112
-155
-183
-149
-136
-141
-130
-122
-105
-79
-78
-72
-23
33
80
152
217
225
237
302
330
254
158
107
62
-14
-102
-165
-193
-209
-221
-227
-234
-234
-196
-135
-105
-112
-109
-51
49
90
22
-38
-21
-36
-93
-75
-39
-73
-64
-10
-57
-76
100
283
411
577
466
-62
-406
-277
-135
-188
-202
-146
-130
-132
-128
-139
-139
-112
-87
-79
-72
-42
15
65
79
90
156
258
327
349
352
332
276
196
100
8
-55
-95
-122
-130
-132
-141
-130
-94
-47
29
140
283
494
747
984
1299
1694
1819
1399
663
33
-312
-433
-454
-456
-468
-486
-502
-515
-536
-574
-620
-657
-695
-751
-812
-855
-869
-842
-771
-655
-491
-307
-154
-32
77
142
135
99
78
66
54
51
45
31
44
76
58
18
39
79
54
8
9
31
28
11
13
22
16
11
22
14
-15
-5
41
46
17
37
101
119
87
72
86
74
34
25
42
27
13
41
39
19
100
245
410
626
621
168
-266
-240
-57
-46
-71
-33
-27
-49
-37
-19
-25
-30
-15
-2
-5
3
31
57
80
111
147
189
232
252
253
268
272
225
168
126
62
-10
-49
-78
-105
-106
-108
-121
-112
-97
-94
-64
-26
-36
-56
-21
32
46
39
38
30
28
80
202
356
473
523
624
841
892
519
11
-213
-221
-244
-271
-261
-265
-282
-283
-289
-304
-318
-338
-365
-392
-417
-437
-455
-471
-479
-465
-417
-336
-236
-130
-27
56
104
114
88
48
15
-17
-46
-55
-55
-63
-64
-58
-59
-61
-63
-72
-68
-44
-30
-36
-33
-2
49
78
59
25
21
24
2
-8
4
0
8
35
14
18
138
263
384
578
528
46
-320
-214
-31
-36
-50
-17
-15
-22
-24
-33
-26
-12
-19
-30
-18
10
33
43
64
123
204
268
317
374
426
435
397
344
285
203
101
17
-23
-34
-50
-66
-70
-80
-96
-86
-63
-73
-93
-63
5
41
20
-23
-57
-83
-100
-97
-89
-113
-131
-100
-109
-171
-95
94
190
331
530
314
-253
-463
-267
-182
-240
-223
-188
-194
-186
-169
-172
-164
-132
-114
-118
-106
-72
-38
16
81
116
156
238
307
332
343
313
222
123
45
-30
-100
-149
-175
-174
-165
-172
-184
-187
-173
-138
-119
-139
-133
-61
5
19
8
-24
-58
-62
-72
-88
-79
-80
-84
-59
-81
-78
77
228
336
540
506
-8
-412
-310
-128
-147
-185
-163
-144
-131
-126
-132
-115
-89
-94
-102
-66
-24
-20
-5
56
124
175
240
318
371
386
372
327
250
163
83
17
-22
-39
-67
-100
-98
-83
-99
-112
-69
32
139
228
383
676
978
1189
1467
1793
1760
1181
417
-113
-327
-382
-418
-452
-461
-464
-477
-491
-512
-547
-589
-639
-693
-732
-761
-785
-789
-762
-701
-593
-457
-324
-178
-26
61
75
80
71
23
-2
12
-6
-39
-18
19
23
18
1
-36
-34
21
34
-13
-28
-4
-15
-45
-15
40
17
-52
-46
21
40
2
-2
58
125
135
97
62
49
38
42
63
60
53
71
55
46
152
274
373
577
624
197
-262
-256
-74
-73
-123
-110
-110
-125
-112
-95
-89
-75
-58
-60
-60
-37
-16
-3
32
83
131
189
242
261
266
286
300
280
225
161
108
38
-40
-67
-59
-70
-82
-75
-73
-73
-49
-16
1
1
1
25
64
80
61
30
9
-7
-20
-15
-8
-12
0
18
10
60
195
308
416
498
308
-92
-269
-180
-136
-171
-161
-140
-145
-140
-132
-131
-123
-114
-112
-105
-97
-98
-96
-81
-62
-37
3
53
99
140
173
178
153
118
70
3
-55
-79
-103
-138
-146
-141
-168
-200
-202
-191
-170
-138
-135
-147
-103
-26
-12
-57
-83
-79
-93
-117
-106
-90
-105
-96
-73
-92
-39
115
213
362
607
471
-97
-386
-213
-89
-132
-125
-93
-98
-89
-83
-90
-62
-31
-40
-45
-15
9
21
53
96
139
197
266
331
381
403
389
338
260
173
85
-3
-68
-97
-111
-131
-152
-157
-150
-150
-151
-151
-165
-176
-141
-73
-22
-12
-37
-64
-77
-91
-91
-66
-78
-121
-102
-88
-123
-18
188
276
395
565
328
-219
-396
-193
-101
-141
-125
-100
-104
-105
-110
-107
-84
-77
-76
-56
-42
-38
-10
32
68
125
208
276
329
377
388
348
283
199
104
32
-8
-29
-37
-48
-66
-64
-53
-68
-78
-37
19
70
146
252
443
755
999
1116
1423
1871
1840
1145
342
-151
-394
-511
-524
-497
-509
-540
-551
-560
-589
-618
-638
-667
-713
-763
-809
-844
-851
-831
-791
-706
-555
-380
-215
-72
23
72
100
101
62
26
28
38
30
23
27
31
31
29
25
22
27
38
46
52
48
28
16
22
12
-8
7
35
18
-6
43
128
148
111
82
57
25
17
33
30
10
24
40
2
8
136
265
391
556
451
-34
-366
-259
-91
-92
-118
-105
-94
-81
-57
-35
-30
-40
-46
-33
-7
17
29
53
97
140
181
236
288
322
345
343
300
246
206
153
74
5
-31
-48
-64
-75
-88
-107
-118
-109
-87
-62
-53
-65
-63
-25
13
13
-15
-48
-69
-75
-71
-59
-50
-48
-36
-37
-51
7
118
221
384
470
177
-264
-361
-201
-133
-150
-145
-147
-143
-114
-106
-123
-119
-84
-55
-50
-46
-25
-2
25
68
118
167
216
252
271
276
253
204
134
44
-35
-67
-73
-92
-109
-107
-109
-129
-140
-134
-128
-113
-84
-69
-58
-5
83
161
215
266
371
522
613
687
922
1170
1046
557
83
-172
-267
-289
-296
-324
-353
-355
-351
-371
-402
-428
-464
-512
-548
-577
-620
-661
-678
-679
-657
-582
-455
-312
-174
-44
67
131
146
135
103
59
28
29
38
25
6
24
59
54
33
43
66
74
79
75
47
30
49
65
57
64
114
165
174
144
114
108
113
122
132
115
85
107
119
70
128
306
410
584
878
715
29
-349
-186
-66
-138
-143
-101
-107
-115
-112
-122
-115
-80
-48
-42
-40
-20
7
45
97
144
187
247
315
365
381
353
301
230
126
26
-27
-74
-149
-195
-189
-187
-209
-226
-228
-223
-217
-217
-212
-187
-139
-85
-65
-106
-163
-178
-176
-177
-158
-154
-184
-169
-146
-192
-142
53
175
316
558
412
-180
-476
-306
-205
-262
-244
-206
-222
-215
-188
-176
-160
-139
-130
-117
-91
-63
-38
-5
49
116
183
243
297
340
359
341
280
190
100
26
-34
-74
-93
-104
-109
-102
-98
-116
-131
-116
-88
-67
-61
-81
-75
19
120
140
158
229
314
432
596
734
920
1308
1731
1742
1148
316
-217
-356
-380
-420
-415
-392
-412
-436
-428
-427
-454
-477
-493
-529
-574
-593
-593
-600
-595
-538
-439
-331
-211
-66
64
142
188
218
208
166
131
114
108
112
118
119
122
134
151
158
161
181
195
178
148
134
145
170
170
156
184
235
245
218
192
165
143
148
155
120
96
133
124
48
76
185
243
428
707
547
-34
-321
-189
-111
-163
-148
-115
-128
-124
-111
-128
-137
-116
-106
-115
-105
-86
-81
-60
-13
30
77
140
179
183
188
184
145
86
18
-62
-134
-179
-206
-229
-252
-273
-281
-284
-292
-292
-280
-281
-290
-281
-258
-243
-237
-254
-300
-335
-339
-351
-368
-368
-370
-365
-344
-361
-366
-257
-142
-84
-5
-82
-438
-679
-565
-411
-404
-396
-354
-342
-336
-315
-288
-258
-241
-234
-215
-191
-175
-147
-103
-50
15
82
144
209
270
303
306
279
221
152
94
49
19
6
-1
-10
-10
5
19
20
18
31
54
75
92
120
169
223
246
231
213
217
230
244
266
271
274
328
357
336
446
652
789
1071
1425
1176
417
73
239
304
228
250
280
257
268
281
248
243
282
298
285
285
289
286
299
325
347
388
458
522
559
583
578
517
421
339
275
206
138
88
59
50
48
64
122
190
272
480
794
1037
1231
1464
1480
1000
253
-314
-571
-669
-721
-760
-806
-852
-891
-944
-1010
-1073
-1149
-1241
-1320
-1388
-1462
-1520
-1542
-1520
-1433
-1290
-1137
-991
-846
-735
-683
-662
-673
-735
