# session 163
-9
60
118
179
241
273
266
246
220
178
126
68
-6
-64
-78
-77
-75
-67
-89
-131
-121
-83
-102
-142
-125
-78
-67
-102
-120
-74
-18
-17
-46
-74
-97
-114
-128
-121
-73
-20
8
42
98
193
348
499
663
957
1114
697
-9
-330
-276
-253
-288
-267
-248
-253
-246
-248
-265
-264
-260
-274
-294
-305
-310
-309
-305
-298
-277
-236
-180
-111
-31
47
102
126
130
131
126
106
86
73
65
75
89
74
54
55
52
41
35
27
30
52
59
57
87
116
97
62
57
60
38
7
10
33
23
5
24
24
-11
20
110
220
428
565
289
-164
-275
-135
-96
-114
-74
-53
-64
-53
-36
-30
-16
0
7
15
34
56
79
104
136
178
226
262
284
296
285
249
205
146
63
-18
-71
-105
-136
-160
-168
-166
-164
-163
-162
-161
-156
-159
-175
-166
-142
-157
-170
-114
-59
-83
-137
-168
-177
-169
-163
-165
-158
-148
-128
-95
-106
-120
-30
85
197
426
506
107
-335
-317
-137
-141
-172
-127
-103
-96
-70
-54
-52
-44
-35
-22
-1
15
23
42
83
137
194
255
327
386
399
372
340
292
199
91
26
-3
-25
-40
-50
-56
-51
-46
-45
-31
-21
-39
-60
-52
-36
-47
-67
-25
60
72
20
1
0
-27
-40
-33
-48
-65
-51
-18
-30
-105
-99
55
196
340
576
533
19
-361
-261
-115
-138
-133
-106
-136
-142
-133
-164
-172
-133
-107
-99
-83
-66
-40
4
56
112
184
262
316
342
353
343
287
205
130
50
-34
-85
-100
-123
-147
-132
-106
-116
-133
-114
-93
-102
-105
-85
-78
-86
-71
-35
-5
5
-17
-53
-63
-62
-85
-103
-98
-106
-115
-91
-90
-110
-46
58
144
333
475
207
-236
-330
-186
-167
-216
-193
-168
-180
-178
-157
-146
-146
-133
-101
-66
-35
-6
20
60
116
161
199
260
313
309
277
257
224
150
70
16
-15
-33
-43
-45
-38
-32
-29
-23
-16
-17
-24
-37
-53
-51
-30
-21
-25
-4
34
43
23
2
-24
-52
-57
-53
-60
-63
-53
-51
-80
-105
-58
22
106
330
570
384
-126
-337
-190
-112
-154
-145
-126
-138
-120
-101
-128
-123
-44
16
13
7
28
54
89
141
191
233
277
315
324
308
293
264
201
135
80
19
-27
-36
-34
-34
-26
-16
-9
0
28
91
138
177
349
616
769
898
1139
1154
696
130
-180
-302
-363
-388
-407
-426
-428
-427
-441
-470
-496
-511
-540
-583
-603
-600
-595
-580
-528
-436
-310
-167
-38
51
102
123
104
51
7
-6
-18
-34
-34
-39
-57
-56
-37
-38
-48
-56
-76
-93
-79
-51
-50
-69
-68
-36
-17
-28
-37
-36
-28
2
26
12
11
54
79
57
28
3
-9
9
4
-41
-37
39
89
87
69
40
8
-8
6
40
40
8
28
57
23
72
235
358
567
845
652
11
-293
-124
-27
-84
-83
-69
-83
-68
-57
-68
-70
-66
-57
-37
-37
-34
9
47
49
82
163
223
261
312
338
308
261
217
154
84
36
-6
-60
-101
-116
-120
-127
-118
-80
-34
-1
40
113
248
482
743
942
1195
1538
1602
1087
289
-283
-497
-536
-548
-564
-578
-585
-593
-609
-633
-656
-678
-708
-746
-783
-811
-826
-808
-740
-623
-472
-303
-139
-1
91
127
128
130
142
206
364
492
505
645
1012
1259
1231
1080
731
170
-225
-304
-320
-367
-370
-371
-403
-418
-419
-446
-491
-532
-569
-608
-644
-663
-639
-565
-461
-330
-160
12
122
186
262
326
316
254
208
185
154
126
112
101
86
76
70
59
51
63
70
50
57
86
61
51
153
276
366
423
279
-48
-201
-86
14
-1
-6
13
13
10
11
-3
-16
0
23
26
27
56
101
141
180
228
276
305
314
322
314
269
209
167
127
84
62
54
40
27
16
-9
-28
-12
12
13
15
48
86
97
90
82
91
130
193
289
403
489
601
827
1014
882
453
26
-202
-275
-308
-340
-368
-396
-426
-447
-468
-503
-544
-580
-621
-672
-714
-736
-751
-746
-697
-616
-524
-415
-297
-183
-74
7
31
25
21
18
12
7
-2
-15
-19
-23
-28
-20
-5
-4
-10
-29
-56
-53
-34
-53
-82
-72
-68
-84
-48
39
85
70
60
67
69
78
102
119
126
113
93
119
131
61
64
206
344
534
741
518
-76
-327
-134
-19
-75
-83
-61
-67
-57
-36
-33
-34
-18
15
37
41
58
98
152
223
289
323
360
419
452
426
367
307
248
178
99
26
-30
-58
-57
-55
-65
-77
-90
-76
-35
-42
-71
21
186
284
434
740
1014
1195
1428
1556
1223
525
-96
-419
-517
-528
-536
-548
-542
-528
-526
-535
-550
-572
-604
-649
-696
-730
-755
-772
-762
-709
-617
-492
-347
-204
-87
-12
23
28
13
-8
-25
-38
-51
-58
-49
-34
-25
-23
-27
-32
-22
-4
0
-13
-15
-2
-1
-14
-12
-6
-14
-18
-11
-18
-33
-21
9
12
-26
-49
-6
79
149
186
193
173
149
131
121
119
102
78
94
95
25
35
172
281
472
799
737
153
-218
-100
2
-57
-50
-17
-37
-35
-26
-44
-44
-32
-40
-40
-13
17
46
79
113
147
179
206
238
272
275
257
255
236
161
91
66
29
-26
-54
-63
-79
-94
-107
-122
-132
-149
-185
-220
-216
-179
-152
-132
-88
-45
-54
-100
-136
-149
-150
-146
-130
-102
-84
-74
-50
-51
-85
-61
23
126
294
368
83
-313
-378
-232
-191
-213
-197
-188
-179
-157
-153
-151
-126
-105
-93
-70
-43
-18
13
55
108
175
246
288
296
291
289
278
248
194
122
58
28
20
4
-11
-7
-5
-18
-18
-8
-14
-22
-5
30
62
74
80
108
133
117
74
41
23
12
9
15
39
74
110
148
174
182
236
371
562
771
776
362
-149
-299
-225
-241
-282
-260
-252
-259
-252
-259
-274
-279
-286
-281
-263
-265
-264
-235
-214
-207
-178
-141
-113
-71
-39
-49
-52
-12
11
-1
-5
-10
-37
-40
-16
-18
-40
-54
-69
-77
-80
-110
-153
-160
-139
-128
-113
-65
-6
22
14
-20
-49
-37
-18
-29
-34
-41
-70
-49
-9
-45
-26
137
265
354
450
261
-180
-336
-162
-77
-107
-79
-58
-79
-66
-43
-54
-55
-27
-3
10
26
48
75
117
177
240
297
353
400
417
407
376
306
205
104
5
-74
-98
-96
-109
-113
-95
-85
-69
-16
34
65
136
251
401
632
860
1016
1305
1664
1547
833
112
-240
-361
-405
-405
-410
-428
-428
-427
-447
-473
-501
-528
-547
-580
-634
-671
-679
-672
-631
-541
-418
-272
-124
1
112
184
174
131
128
127
93
63
46
25
10
6
0
3
13
15
17
17
1
-23
-38
-43
-38
-42
-64
-82
-84
-81
-75
-63
-61
-79
-98
-106
-116
-133
-132
-109
-108
-131
-108
-31
29
41
22
-6
-20
-28
-48
-58
-56
-61
-46
-46
-71
0
136
221
399
599
378
-125
-276
-106
-56
-99
-73
-57
-65
-39
-30
-44
-21
6
-1
7
36
51
75
119
149
172
222
281
324
358
390
407
387
329
258
189
122
67
37
25
13
7
5
-4
-15
-17
-19
-35
-55
-54
-29
-21
-39
-24
36
66
28
-29
-55
-54
-62
-84
-92
-87
-85
-58
-40
-94
-112
-11
96
245
492
470
22
-323
-266
-155
-180
-195
-177
-184
-187
-176
-176
-180
-181
-187
-184
-150
-98
-77
-73
-22
59
106
144
210
256
246
203
154
104
35
-48
-93
-83
-74
-86
-89
-78
-73
-65
-47
-35
-37
-38
-31
-27
-19
-6
1
8
30
43
27
-16
-63
-77
-68
-84
-96
-77
-82
-96
-74
-84
-105
-13
131
273
451
406
-18
-335
-234
-90
-122
-128
-87
-107
-125
-105
-104
-110
-91
-70
-59
-51
-52
-52
-20
36
92
156
230
278
296
323
353
339
281
208
126
50
5
-6
5
10
-5
-22
-26
-29
-28
-20
-30
-66
-90
-82
-70
-89
-110
-73
-4
10
-29
-64
-76
-74
-82
-103
-84
-53
-93
-110
-50
-69
-107
32
198
308
502
475
-12
-391
-286
-127
-167
-199
-170
-164
-177
-190
-181
-147
-138
-155
-150
-118
-88
-71
-50
8
91
153
189
215
237
266
294
273
191
103
48
11
-23
-39
-33
-28
-41
-56
-43
-8
27
81
145
207
378
681
920
1103
1418
1598
1198
458
-56
-276
-399
-450
-447
-470
-500
-510
-538
-563
-564
-585
-632
-661
-665
-676
-690
-667
-589
-473
-337
-192
-54
64
138
154
155
156
120
65
57
77
67
43
50
65
52
36
46
47
31
28
29
12
-3
-3
1
4
14
44
88
118
125
112
83
64
79
87
66
58
70
66
37
17
20
31
24
15
46
100
121
101
73
52
39
28
24
24
15
14
23
0
-9
75
169
268
484
561
205
-204
-223
-84
-83
-114
-83
-73
-98
-118
-121
-103
-86
-94
-96
-72
-52
-33
5
40
83
148
192
201
232
272
275
265
252
204
136
85
37
-14
-39
-42
-54
-71
-73
-71
-74
-75
-77
-87
-94
-89
-65
-54
-89
-84
-12
-25
-93
-59
-105
-243
-82
-19
-1070
-2936
-3886
-2806
-667
553
494
404
699
905
935
739
305
111
277
353
281
284
299
259
252
254
210
175
160
124
99
119
141
149
172
215
271
331
364
395
497
641
697
612
452
308
219
162
111
71
50
39
38
47
34
-14
-48
-36
-39
-84
-106
-85
-88
-119
-96
-23
18
7
-26
-59
-66
-64
-89
-99
-74
-77
-85
-47
-48
-73
28
182
286
399
334
-67
-367
-255
-91
-109
-134
-132
-172
-198
-209
-241
-245
-214
-199
-190
-168
-155
-138
-77
12
72
104
141
190
236
267
268
227
155
76
0
-71
-138
-195
-246
-291
-316
-312
-292
-273
-259
-249
-241
-238
-238
-227
-216
-230
-246
-208
-142
-121
-152
-190
-210
-219
-229
-239
-232
-229
-236
-210
-192
-223
-179
-42
62
239
457
284
-214
-399
-234
-154
-167
-125
-122
-148
-108
-78
-114
-112
-53
-27
-44
-48
-26
14
65
104
146
220
295
336
362
370
341
313
302
265
197
147
144
173
189
177
187
236
271
297
351
403
494
709
938
1080
1252
1367
1119
617
249
66
-58
-104
-100
-138
-172
-144
-125
-159
-190
-189
-194
-223
-253
-275
-296
-290
-226
-129
-41
60
178
246
289
370
387
280
221
268
248
136
81
107
135
138
126
111
91
71
72
84
76
62
44
5
-24
-29
-52
-92
-115
-132
-160
-174
-168
-165
-170
-168
-156
-150
-151
-144
-131
-136
-167
-200
-209
-217
-254
-282
-258
-229
-267
-327
-326
-292
-288
-294
-274
-247
-205
-121
-53
-27
65
240
395
615
912
891
429
43
-6
-32
-189
-332
-439
-555
-651
-721
-791
-851
-903
-942
-927
-863
-807
-760
-704
-680
-698
-703
-693
-708
-751
-801
-849
-903
-972
-1030
-1039
-1032
-1069
-1141
-1199
-1238
-1303
-1395
-1407
-1255
-1020
-819
-663
-530
-406
-266
-141
-79
-14
117
236
295
372
499
635
782
960
1130
1257
1377
1511
1612
1688
1754
1745
1734
1871
2078
2317
2628
2645
2172
1802
1907
2075
2067
2052
2069
2092
2154
2210
2218
2177
2118
2085
1957
1632
1308
1088
791
425
173
18
-87
-82
-42
-136
-364
-606
-798
-916
-959
-972
-995
-1024
-1052
-1086
-1118
-1124
-1103
-1083
-1074
-1064
-1053
-1054
-1049
-1018
-990
-993
-990
-939
-865
-829
-845
-866
-856
-833
-820
-796
-758
-751
-761
-725
-688
-678
-571
-391
-298
-187
-32
-193
-599
-699
-511
-457
-508
-476
-444
-453
-439
-418
-412
-399
-372
-318
-235
-182
-186
-200
-181
-141
-95
-42
6
20
8
3
-3
-36
-85
-124
-141
-134
-105
-61
-15
11
16
37
94
144
147
128
127
135
135
144
163
169
176
229
301
321
285
237
196
162
132
85
15
-57
-113
-165
-232
-281
-272
-261
-198
86
316
3
-583
-795
-688
-657
-709
-719
-717
-724
-697
-611
-487
-371
-276
-196
-126
-39
71
166
247
348
456
540
618
699
749
751
730
701
663
622
586
563
561
575
589
595
611
657
705
737
796
892
1022
1245
1511
1719
1958
2180
2004
1412
903
704
620
547
518
511
502
491
462
414
367
322
258
155
32
-62
-120
-191
-247
-210
-111
-38
22
111
182
198
180
148
106
64
32
9
-13
-38
-61
-80
-97
-119
-148
-174
-189
-197
-205
-217
-233
-245
-245
-249
-269
-296
-316
-329
-347
-370
-384
-383
-379
-389
-414
-440
-451
-455
-466
-479
-491
-522
-580
-617
-606
-595
-615
-621
-588
-573
-619
-691
-728
-745
-777
-798
-814
-870
-899
-859
-857
-833
-646
-458
-270
153
418
-8
-601
-680
-544
-589
-653
-644
-677
-736
-758
-778
-822
-816
-639
-322
-118
-185
-379
-498
-547
-594
-573
-430
-256
-132
-49
-2
-7
-51
-125
-230
-344
-446
-530
-596
-649
-681
-691
-697
-725
-771
-784
-736
-695
-719
-757
-732
-666
-673
-797
-893
-829
-703
-611
-454
-106
414
825
796
461
240
311
782
1606
2199
2229
2118
2061
1889
1759
1690
1390
1079
1130
1304
1348
1419
1542
1578
1571
1604
1645
1684
1755
1859
1985
2134
2274
2313
2190
1951
1664
1349
1099
969
839
783
1103
1616
1741
1447
1168
1018
833
612
449
345
240
122
26
-60
-163
-245
-308
-393
-453
-478
-597
-703
-448
102
462
483
391
247
5
-225
-383
-543
-718
-885
-1061
-1198
-1264
-1350
-1462
-1537
-1627
-1648
-1449
-1404
-1915
-2510
-2655
-2659
-2811
-2819
-2542
-2224
-2000
-1815
-1648
-1512
-1389
-1252
-1110
-984
-881
-808
-756
-681
-567
-460
-380
-307
