# session 264
21
18
42
90
124
148
190
209
193
192
173
90
26
4
-63
-150
-175
-168
-167
-152
-129
-121
-115
-104
-83
-47
-18
-8
12
46
52
27
27
67
96
85
53
23
-1
-19
-32
-36
-43
-57
-48
-31
-56
-65
5
106
260
416
274
-148
-358
-242
-160
-196
-191
-168
-177
-163
-130
-121
-116
-100
-90
-76
-41
-14
-6
20
71
106
122
154
196
207
190
173
145
94
36
-10
-44
-62
-73
-100
-138
-146
-118
-97
-94
-84
-78
-95
-118
-114
-101
-117
-134
-96
-35
-23
-48
-66
-56
-26
-12
-5
25
38
33
71
77
31
102
266
405
629
734
314
-233
-268
-64
-66
-99
-45
-59
-112
-94
-61
-60
-72
-86
-83
-63
-42
-15
32
93
163
224
274
333
381
377
338
286
205
99
11
-42
-64
-66
-69
-87
-103
-92
-64
-60
-96
-126
-123
-118
-122
-131
-153
-165
-128
-66
-19
-1
-23
-64
-75
-67
-77
-82
-70
-73
-71
-49
-66
-73
42
198
338
472
355
-87
-376
-291
-203
-245
-228
-183
-212
-228
-199
-198
-197
-141
-93
-107
-117
-75
-35
-15
33
109
166
215
280
316
285
216
131
27
-66
-122
-162
-198
-204
-176
-153
-148
-135
-105
-74
-55
-52
-50
-35
-20
-6
18
81
234
434
593
802
1087
1208
1133
1004
656
104
-164
-114
-178
-321
-304
-263
-295
-294
-296
-349
-371
-374
-421
-476
-512
-542
-561
-578
-596
-567
-481
-383
-283
-164
-24
110
186
194
194
218
260
357
506
601
669
906
1271
1480
1410
1076
507
-29
-254
-269
-278
-292
-296
-311
-327
-345
-371
-390
-412
-456
-504
-543
-574
-583
-567
-524
-413
-231
-60
49
121
167
166
136
113
106
98
77
50
35
24
9
9
20
10
-7
-3
16
29
9
-25
-12
35
37
-7
-32
-24
-15
-21
-27
-31
-54
-89
-97
-94
-106
-108
-88
-75
-68
-62
-63
-48
-17
-9
-6
21
37
30
31
36
33
40
46
39
39
46
40
32
29
5
-19
-2
11
-15
-8
39
44
30
43
17
-43
-39
-3
-16
-40
-28
-15
-29
-12
80
182
278
382
309
-20
-247
-162
-32
-7
23
53
33
13
10
8
20
35
38
48
64
74
89
115
144
182
223
252
269
279
271
244
211
165
105
47
-5
-58
-99
-117
-123
-132
-141
-142
-128
-105
-66
8
96
233
481
765
1004
1251
1332
942
273
-183
-355
-439
-467
-438
-415
-410
-421
-444
-449
-444
-466
-501
-532
-561
-569
-543
-492
-418
-316
-209
-123
-61
-23
-12
-30
-71
-115
-137
-134
-127
-125
-122
-114
-97
-66
-35
-20
-13
-7
-1
4
10
20
27
22
20
33
35
24
30
35
35
56
35
-1
58
27
-121
44
176
-484
-1089
-541
194
94
-114
78
184
119
147
181
145
148
169
168
191
212
212
223
202
185
283
420
564
785
757
246
-185
-125
8
-54
-77
-29
-33
-35
-19
-44
-58
-23
7
18
26
31
49
93
138
183
241
275
281
312
344
317
266
232
163
67
10
-24
-77
-123
-151
-173
-186
-195
-205
-202
-196
-210
-234
-228
-184
-160
-192
-209
-156
-102
-108
-145
-177
-177
-140
-109
-106
-109
-123
-140
-127
-133
-172
-113
34
134
236
276
10
-340
-330
-124
-84
-123
-93
-64
-70
-68
-55
-47
-47
-41
-17
10
22
39
81
141
198
240
286
361
427
414
341
271
193
102
39
-8
-68
-110
-124
-131
-127
-120
-119
-100
-73
-73
-72
-31
14
25
16
22
48
85
106
89
47
14
6
9
16
23
8
-6
17
11
-35
12
132
236
426
567
291
-174
-280
-142
-128
-165
-137
-136
-158
-140
-123
-127
-120
-105
-96
-82
-60
-39
-9
32
60
67
78
114
158
168
124
68
42
0
-76
-110
-96
-111
-139
-138
-140
-151
-150
-162
-177
-147
-108
-103
-103
-105
-148
-196
-194
-171
-170
-161
-114
-66
-61
-83
-100
-99
-86
-66
-34
0
16
32
60
44
28
97
187
327
628
745
324
-173
-215
-78
-103
-143
-107
-102
-111
-88
-82
-94
-82
-60
-49
-33
0
42
86
126
168
217
267
304
313
290
264
243
203
146
101
66
31
8
-7
-31
-48
-43
-31
-34
-40
-26
-9
3
93
330
644
968
1244
1302
1075
782
586
401
153
-102
-299
-398
-411
-405
-413
-418
-419
-418
-413
-417
-429
-442
-472
-509
-508
-485
-497
-508
-441
-332
-253
-184
-100
-64
-93
-108
-86
-83
-90
-70
-55
-72
-87
-82
-54
-21
-26
-66
-75
-50
-39
-35
-17
-11
-30
-41
-40
-51
-58
-43
-30
-34
-26
4
26
33
39
49
68
88
76
42
46
70
36
-10
41
138
159
117
102
115
96
55
54
66
51
70
104
52
21
147
291
398
527
416
-51
-365
-260
-114
-117
-105
-78
-102
-114
-96
-80
-54
-36
-35
-9
35
56
82
138
186
216
268
335
370
374
360
327
276
208
117
31
-27
-75
-121
-143
-147
-150
-141
-123
-117
-123
-119
-106
-111
-129
-116
-86
-101
-123
-70
2
1
-30
-47
-85
-133
-141
-120
-118
-143
-148
-116
-123
-154
-97
13
176
493
640
229
-294
-338
-162
-157
-204
-186
-181
-176
-140
-129
-154
-164
-138
-93
-54
-30
-13
7
29
57
102
155
186
197
205
194
146
80
18
-33
-61
-66
-69
-77
-73
-63
-64
-62
-42
-16
7
26
82
273
560
779
1004
1402
1622
1176
341
-179
-279
-304
-361
-367
-345
-329
-319
-341
-373
-370
-368
-400
-428
-440
-450
-439
-407
-360
-252
-92
22
89
186
277
279
215
136
66
32
28
15
-11
-20
-13
-11
-16
-16
-10
-8
-10
-7
-10
-21
-27
-33
-50
-64
-64
-60
-63
-71
-77
-73
-70
-71
-71
-62
-55
-55
-56
-45
-33
-43
-73
-86
-73
-71
-87
-91
-70
-32
2
3
-26
-46
-43
-31
-14
-13
-36
-24
13
-6
-13
74
164
303
579
617
151
-295
-294
-164
-178
-198
-167
-160
-154
-127
-111
-103
-83
-60
-38
-13
14
46
90
139
182
223
271
313
330
327
321
307
273
222
156
78
20
2
-11
-42
-66
-72
-76
-81
-84
-78
-69
-86
-113
-84
-27
-24
-36
18
81
83
52
34
33
53
104
187
271
345
470
622
702
848
1231
1492
1154
437
-88
-281
-345
-385
-400
-397
-392
-398
-415
-428
-439
-456
-483
-521
-564
-597
-617
-646
-669
-639
-552
-451
-343
-222
-106
-5
81
121
90
33
7
4
-3
-6
-11
-50
-96
-95
-82
-106
-117
-88
-82
-101
-83
-56
-64
-63
-42
-56
-78
-40
23
46
47
49
38
24
22
27
37
29
7
21
22
-25
31
205
326
448
553
312
-140
-246
-63
-9
-44
-9
1
-34
-32
-12
-8
-2
9
22
42
58
69
91
134
196
265
326
362
377
376
348
288
220
147
46
-54
-112
-139
-165
-171
-151
-149
-164
-148
-118
-119
-119
-81
-36
21
116
197
300
577
939
1154
1358
1684
1704
1103
308
-171
-334
-380
-404
-423
-431
-434
-443
-454
-467
-481
-488
-504
-548
-591
-612
-632
-651
-631
-552
-437
-315
-188
-53
58
91
60
46
65
37
-37
-67
-46
-39
-52
-61
-66
-61
-57
-81
-94
-62
-44
-61
-50
-23
-34
-53
-42
-25
-30
-44
-56
-71
-89
-98
-98
-103
-115
-128
-131
-119
-126
-152
-124
-27
46
51
38
37
48
56
54
64
86
88
95
109
94
129
231
315
525
843
731
148
-175
-56
16
-48
-46
-31
-65
-81
-76
-77
-79
-81
-73
-51
-31
0
49
75
90
142
206
240
267
310
339
336
318
286
227
154
88
39
8
-7
-20
-36
-51
-62
-68
-67
-66
-71
-75
-70
-69
-89
-117
-122
-108
-104
-112
-96
-50
-22
-33
-60
-89
-107
-97
-78
-72
-67
-63
-56
-49
-63
-49
23
111
330
674
653
101
-322
-263
-151
-205
-232
-203
-196
-186
-175
-168
-142
-123
-124
-110
-88
-78
-54
-7
46
102
155
197
229
234
204
160
110
41
-34
-89
-126
-152
-166
-166
-154
-136
-117
-100
-83
-66
-53
-45
-42
-54
-73
-70
-43
-31
-46
-31
32
67
42
11
-5
-17
-16
-22
-42
-38
-29
-45
-53
-50
-43
10
95
229
401
332
-58
-310
-206
-91
-111
-98
-62
-80
-89
-64
-45
-29
-5
19
41
63
82
99
126
166
212
261
312
352
363
342
302
250
183
108
40
-12
-49
-68
-75
-83
-89
-80
-61
-57
-70
-79
-68
-45
-42
-61
-63
-40
-29
-52
-79
-72
-47
-61
-88
-45
31
33
-15
-39
-50
-68
-76
-69
-68
-87
-88
-56
-64
-82
10
150
311
562
581
95
-363
-313
-124
-139
-170
-118
-100
-118
-116
-107
-111
-124
-121
-84
-50
-39
-18
30
81
142
221
288
327
362
387
363
307
256
186
85
15
-16
-56
-92
-100
-109
-130
-142
-138
-125
-110
-104
-116
-146
-168
-163
-153
-156
-173
-209
-225
-155
-60
-43
-78
-96
-107
-115
-107
-97
-81
-66
-66
-57
-44
-44
28
163
276
476
670
423
-119
-307
-151
-105
-157
-138
-124
-142
-126
-107
-107
-101
-91
-82
-55
-22
2
24
51
89
148
216
269
315
361
365
311
254
227
175
67
-21
-22
-8
-49
-84
-57
-33
-65
-89
-57
-29
-41
-51
-49
-75
-117
-137
-144
-144
-136
-147
-143
-66
21
32
7
4
17
33
43
35
25
9
-8
3
-1
-47
-18
96
212
436
659
439
-90
-274
-111
-53
-100
-78
-55
-60
-48
-52
-65
-46
-32
-45
-38
-18
-16
-6
30
65
89
126
182
229
236
210
172
122
54
-20
-94
-156
-191
-200
-196
-193
-206
-218
-208
-201
-215
-214
-187
-162
-148
-141
-141
-129
-96
-67
-47
-11
24
26
22
62
115
117
79
46
24
0
-15
-8
8
-2
-17
7
18
-17
13
110
214
498
859
715
100
-230
-121
-43
-84
-78
-64
-71
-49
-40
-61
-59
-38
-35
-33
-14
3
6
17
43
76
107
136
164
181
175
155
134
100
50
10
-17
-44
-63
-85
-120
-131
-111
-109
-124
-117
-101
-99
-106
-120
-140
-158
-170
-176
-182
-200
-213
-196
-166
-155
-139
-72
12
46
31
10
5
8
5
4
19
20
5
21
21
-17
28
148
293
565
742
389
-182
-323
-155
-110
-161
-172
-178
-176
-152
-141
-139
-127
-109
-87
-70
-49
0
57
97
143
209
269
326
381
413
414
385
318
229
149
87
35
-8
-32
-35
-44
-63
-67
-61
-64
-69
-76
-89
-99
-100
-95
-79
-74
-106
-136
-119
-90
-103
-114
-57
25
43
3
-27
-30
-35
-46
-39
-22
-24
-28
-13
-27
-72
-27
109
238
415
543
266
-256
-420
-247
-187
-228
-181
-133
-140
-126
-112
-123
-114
-88
-85
-82
-47
-7
13
37
97
174
232
270
297
301
279
246
196
114
24
-35
-67
-89
-101
-104
-103
-100
-95
-84
-66
-48
-39
-32
-33
-37
-30
-21
-35
-65
-83
-81
-76
-101
-141
-116
-29
16
-11
-39
-54
-76
-71
-46
-52
-81
-87
-61
-39
-56
-49
51
179
338
535
460
13
-285
-182
-49
-47
-20
11
-5
6
31
19
8
19
26
27
26
28
45
75
119
173
224
270
316
350
351
309
236
163
92
6
-70
-98
-113
-151
-177
-165
-144
-138
-136
-131
-124
-107
-87
-94
-119
-121
-102
-98
-108
-122
-142
-163
-172
-166
-145
-100
-32
20
21
-3
-15
-19
-26
-28
-29
-43
-65
-57
-45
-91
-123
-62
47
268
588
565
51
-339
-279
-156
-172
-158
-107
-97
-80
-43
-21
-8
8
22
40
61
78
95
122
154
185
221
257
282
297
295
274
245
206
134
35
-44
-65
-62
-91
-143
-159
-137
-122
-137
-153
-143
-127
-130
-126
-100
-93
-107
-91
-46
-24
-34
-34
-1
37
38
21
41
91
112
92
62
46
43
35
22
21
17
2
11
12
-22
-6
85
221
446
576
293
-171
-308
-186
-147
-176
-161
-146
-142
-129
-128
-122
-92
-66
-55
-43
-40
-37
2
57
77
81
112
162
199
219
227
218
188
148
103
45
-15
-53
-76
-100
-108
-96
-98
-121
-138
-146
-163
-179
-182
-182
-187
-188
-183
-178
-165
-154
-160
-168
-145
-109
-97
-86
-25
55
80
57
39
35
27
21
33
48
38
32
64
58
4
43
165
280
463
567
251
-223
-315
-146
-96
-127
-128
-136
-129
-95
-84
-87
-80
-68
-45
-15
5
26
73
137
194
240
296
372
442
468
455
425
366
277
190
119
51
1
-23
-45
-63
-72
-88
-103
-85
-59
-72
-104
-106
-95
-98
-92
-76
-92
-131
-142
-131
-136
-139
-99
-34
5
-3
-43
-79
-83
-77
-93
-104
-90
-84
-88
-90
-120
-114
10
167
337
517
390
-111
-414
-277
-133
-176
-207
-186
-181
-170
-147
-121
-86
-63
-60
-53
-42
-40
-29
10
60
108
160
226
291
333
343
334
299
223
134
63
3
-48
-78
-91
-93
-89
-96
-109
-98
-74
-73
-74
-54
-60
-99
-96
-63
-80
-112
-98
-96
-144
-162
-113
-56
-35
-41
-57
-81
-103
-109
-94
-66
-49
-43
-15
12
1
53
194
309
492
723
553
-10
-290
-150
-65
-123
-116
-82
-86
-74
-58
-61
-45
-16
-7
1
27
52
66
82
112
165
227
268
289
304
302
270
218
157
99
51
0
-59
-93
-91
-94
-119
-130
-112
-98
-100
-103
-116
-131
-119
-105
-124
-133
-121
-128
-125
-80
-58
-73
-37
57
112
77
9
-22
-14
-8
-7
7
13
1
-4
-1
-8
