# session 25
1
-36
-62
-66
-77
-109
-121
-105
-111
-133
-130
-118
-129
-141
-131
-114
-109
-115
-122
-124
-120
-110
-101
-92
-84
-82
-83
-78
-62
-48
-59
-76
-66
-55
-79
-96
-72
-55
-69
-72
-54
-46
-52
-55
-52
-45
-38
-37
-39
-36
-29
-25
-18
-16
-27
-48
-53
-22
6
-34
-96
-69
27
72
48
25
12
-17
-35
-22
-31
-55
-16
10
-46
-1
190
333
514
733
496
-150
-415
-180
-32
-68
-56
-50
-99
-113
-102
-101
-79
-54
-58
-66
-62
-57
-40
2
47
80
119
174
232
274
291
287
275
255
217
163
102
44
-13
-60
-90
-106
-114
-117
-119
-118
-109
-74
10
116
217
396
679
912
1098
1377
1486
1040
289
-222
-407
-459
-450
-408
-395
-421
-447
-451
-468
-514
-545
-547
-571
-618
-652
-662
-646
-600
-538
-457
-340
-210
-99
-10
51
71
65
45
15
-5
-12
-16
-5
6
-24
-66
-65
-42
-30
-24
-16
-10
-2
5
13
24
35
40
16
-56
-149
-208
-230
-242
-241
-222
-197
-165
-122
-75
-36
-15
6
38
64
79
99
118
126
135
143
147
158
169
150
120
138
173
156
136
188
262
276
248
226
217
203
188
201
231
232
235
265
252
247
373
547
692
826
716
268
-50
14
127
118
135
187
213
246
281
298
318
344
358
367
377
383
362
294
209
154
126
105
75
18
-65
-168
-296
-416
-512
-629
-768
-880
-998
-1129
-1138
-964
-752
-622
-527
-407
-293
-210
-125
-35
20
70
186
333
466
669
961
1198
1373
1603
1724
1434
840
349
125
40
0
-7
-21
-35
-30
-109
-359
-654
-863
-1034
-1227
-1414
-1579
-1738
-1891
-1971
-1875
-1604
-1292
-1014
-750
-496
-285
-131
-29
25
47
52
56
73
96
114
132
150
132
62
15
49
98
111
139
192
207
191
204
243
258
240
235
256
254
223
219
234
224
211
218
218
207
194
172
164
173
154
125
144
176
149
108
134
201
252
274
251
200
172
163
153
166
170
145
163
178
133
205
419
574
772
1000
737
54
-233
-37
50
-31
-29
-10
-38
-27
-2
-18
-30
-12
7
21
46
75
100
129
167
213
271
341
418
485
518
522
519
512
488
441
378
316
259
207
182
179
165
156
169
156
137
183
236
172
-8
-213
-387
-538
-676
-706
-562
-345
-87
277
586
726
965
1356
1425
966
338
-155
-498
-726
-889
-1041
-1162
-1247
-1347
-1456
-1531
-1597
-1650
-1611
-1472
-1338
-1247
-1155
-1053
-959
-850
-711
-554
-375
-175
1
127
232
321
361
358
354
365
386
410
421
432
459
475
473
491
515
512
506
510
506
507
502
459
427
441
441
415
411
384
271
110
-50
-208
-350
-460
-542
-611
-691
-785
-852
-861
-795
-665
-536
-444
-365
-292
-231
-158
-84
-30
35
87
80
108
246
407
581
738
588
137
-103
37
185
193
198
214
203
198
197
189
200
214
210
212
235
255
259
264
288
326
364
409
466
511
533
551
555
534
501
458
400
347
294
224
165
142
120
87
81
86
53
28
58
69
15
-11
20
31
13
10
8
0
16
44
38
0
-34
-59
-88
-103
-92
-104
-163
-211
-235
-306
-392
-402
-402
-388
-221
-107
-387
-764
-748
-512
-425
-423
-372
-327
-308
-282
-261
-247
-220
-195
-177
-148
-105
-71
-43
-1
44
81
136
222
302
361
409
430
405
353
281
180
74
-3
-51
-89
-124
-141
-143
-162
-179
-156
-131
-135
-130
-126
-147
-150
-130
-145
-168
-132
-65
-27
-26
-53
-81
-79
-70
-84
-70
-28
-36
-50
3
7
-33
97
307
446
708
896
462
-226
-358
-124
-90
-155
-113
-85
-112
-118
-117
-124
-108
-84
-74
-63
-44
-20
10
36
65
134
234
310
368
444
500
495
461
412
324
209
104
28
-19
-55
-83
-87
-95
-129
-138
-111
-108
-134
-135
-116
-107
-105
-108
-131
-154
-126
-55
-11
-20
-54
-87
-108
-112
-111
-123
-147
-156
-107
-50
-90
-114
36
197
306
560
646
134
-436
-434
-222
-226
-264
-221
-212
-219
-202
-189
-172
-146
-137
-132
-113
-94
-77
-43
4
46
92
156
236
320
385
410
394
354
300
218
112
28
-14
-48
-89
-108
-93
-81
-113
-154
-137
-88
-84
-101
-90
-75
-47
40
127
180
346
676
949
1084
1310
1630
1668
1218
511
-85
-381
-446
-451
-463
-465
-458
-451
-454
-468
-479
-497
-544
-591
-607
-621
-658
-684
-678
-645
-575
-463
-329
-195
-66
44
117
147
139
100
61
47
43
34
37
52
53
44
38
28
19
28
35
20
14
31
30
8
7
5
-37
-59
-21
7
-9
-12
9
4
-26
-39
-20
6
15
5
22
79
122
120
99
79
67
66
70
82
88
63
60
97
75
26
83
196
328
536
550
142
-265
-261
-106
-94
-118
-89
-70
-69
-59
-47
-44
-45
-40
-26
-11
-1
6
22
49
72
104
156
206
238
272
302
302
289
271
222
146
82
32
-22
-67
-86
-98
-117
-120
-106
-107
-128
-138
-128
-117
-121
-144
-169
-163
-129
-118
-136
-127
-82
-55
-71
-108
-139
-148
-146
-153
-153
-137
-125
-104
-80
-103
-98
31
189
329
468
338
-135
-425
-278
-102
-117
-129
-91
-86
-92
-88
-88
-80
-68
-70
-71
-52
-32
-14
18
61
106
162
231
304
378
445
484
488
461
403
323
232
141
67
21
-15
-56
-79
-77
-75
-73
-64
-73
-97
-90
-67
-92
-147
-147
-99
-102
-155
-147
-76
-46
-68
-90
-120
-150
-146
-129
-116
-102
-111
-116
-87
-101
-105
44
207
340
643
768
231
-393
-392
-153
-160
-199
-141
-143
-167
-137
-121
-129
-124
-122
-113
-80
-56
-50
-32
0
38
93
175
267
342
388
416
431
399
308
206
126
54
-13
-59
-86
-107
-123
-134
-137
-134
-133
-124
-111
-109
-110
-99
-92
-99
-102
-105
-112
-106
-75
-28
1
-20
-73
-94
-91
-120
-143
-122
-125
-138
-84
-78
-149
-60
150
276
507
788
519
-161
-411
-204
-101
-126
-91
-78
-109
-100
-77
-73
-79
-86
-77
-53
-46
-51
-40
-15
14
58
125
212
287
333
366
385
366
311
242
160
69
-8
-50
-61
-73
-94
-98
-80
-69
-68
-57
-46
-59
-84
-79
-45
-46
-95
-110
-71
-67
-93
-58
12
28
2
-19
-33
-36
-51
-87
-85
-49
-50
-47
-14
-37
-58
25
129
322
680
728
176
-324
-288
-121
-142
-181
-161
-151
-143
-130
-127
-118
-103
-99
-92
-63
-35
-29
-22
15
63
97
136
202
273
318
338
349
336
284
210
140
82
34
-6
-34
-52
-59
-59
-56
-55
-60
-71
-72
-60
-67
-94
-97
-85
-102
-136
-140
-121
-116
-121
-95
-48
-36
-61
-82
-95
-117
-135
-133
-116
-112
-131
-114
-68
-83
-92
17
148
267
440
401
-21
-359
-277
-111
-103
-102
-66
-76
-93
-90
-100
-116
-118
-116
-114
-104
-82
-58
-40
-14
30
73
113
167
228
270
294
311
295
241
183
132
69
10
-12
-18
-43
-74
-82
-76
-75
-73
-66
-74
-86
-74
-56
-68
-91
-95
-95
-106
-114
-103
-81
-66
-67
-51
3
48
43
6
-32
-49
-44
-44
-56
-46
9
96
138
115
173
352
502
676
853
612
9
-249
-75
7
-63
-56
-31
-57
-70
-71
-76
-72
-72
-65
-40
-32
-42
-28
6
43
88
139
186
236
282
321
367
387
329
238
170
83
-47
-147
-190
-218
-241
-255
-266
-266
-266
-283
-289
-268
-242
-229
-224
-221
-222
-233
-241
-230
-208
-198
-210
-220
-180
-88
-14
3
-16
-46
-65
-65
-66
-65
-62
-87
-99
-73
-96
-102
61
246
400
695
772
221
-354
-330
-123
-134
-143
-89
-113
-139
-100
-74
-62
-36
-31
-35
-6
30
50
70
98
136
182
227
284
356
405
415
418
418
375
288
203
127
58
21
7
-20
-44
-42
-41
-52
-58
-50
-30
-5
11
15
9
-4
-24
-69
-133
-157
-132
-124
-155
-162
-112
-52
-34
-54
-85
-103
-99
-90
-89
-77
-63
-55
-22
-1
-37
2
149
253
411
695
632
59
-342
-235
-77
-109
-135
-104
-97
-102
-100
-100
-93
-83
-89
-95
-81
-59
-44
-21
6
13
28
90
172
231
258
274
289
263
183
121
84
-17
-147
-206
-218
-228
-224
-239
-287
-306
-294
-297
-301
-285
-262
-251
-251
-246
-229
-225
-234
-230
-221
-214
-181
-133
-113
-91
-22
36
24
-13
-26
-35
-40
-21
9
14
3
25
71
59
37
120
255
433
695
714
244
-200
-170
3
-4
-33
13
31
17
24
40
40
44
59
63
60
76
99
111
128
163
200
230
266
326
390
426
425
400
356
286
200
119
48
-14
-62
-90
-106
-117
-118
-109
-104
-100
-86
-73
-65
-57
-56
-36
46
182
366
596
817
1053
1312
1311
1027
1022
1261
914
30
-461
-435
-436
-514
-499
-488
-530
-540
-535
-564
-615
-670
-723
-761
-798
-849
-893
-902
-889
-867
-825
-751
-651
-541
-443
-350
-243
-144
-90
-65
-38
-6
8
-5
-7
28
57
56
63
91
108
104
101
107
115
122
119
107
100
96
76
53
48
48
43
41
36
25
24
29
29
42
70
79
69
77
99
98
74
62
74
88
82
54
41
89
174
219
214
177
129
113
130
111
66
61
101
115
50
26
176
360
499
730
764
245
-299
-293
-104
-128
-165
-114
-102
-107
-90
-110
-142
-115
-59
-41
-58
-60
-38
-18
1
39
89
136
192
264
330
381
394
357
317
293
227
120
34
-23
-63
-89
-120
-147
-149
-140
-132
-118
-101
-78
-35
45
149
239
372
615
851
1028
1310
1556
1333
684
85
-253
-411
-472
-500
-528
-534
-533
-542
-546
-560
-604
-650
-674
-691
-726
-781
-822
-851
-886
-871
-761
-601
-433
-260
-99
37
133
166
150
124
95
61
31
12
12
18
12
10
17
7
-6
5
16
19
38
52
47
40
34
22
17
6
-17
-20
6
33
46
61
85
101
100
106
126
123
99
106
129
117
78
46
24
29
46
39
25
37
45
27
-2
-33
-59
-68
-61
-39
-32
-46
-13
34
16
68
237
364
606
1004
900
155
-309
-156
-17
-103
-141
-121
-122
-98
-77
-92
-95
-83
-76
-65
-48
-28
-1
22
43
83
135
180
232
296
345
366
364
337
295
259
214
136
60
15
-24
-69
-96
-104
-113
-125
-133
-132
-114
-87
-57
5
94
172
316
564
753
847
967
956
618
190
-66
-226
-354
-403
-425
-465
-480
-476
-492
-517
-531
-545
-565
-583
-608
-639
-654
-647
-631
-594
-505
-371
-232
-111
0
97
152
154
121
81
45
13
-16
-29
-25
-17
-14
-12
-9
-3
11
25
27
26
35
36
30
40
60
58
48
58
70
63
50
45
53
73
76
45
35
61
63
41
42
57
55
23
-25
-25
36
68
38
26
73
125
133
108
86
83
82
67
55
57
50
47
76
88
82
158
292
424
566
520
117
-264
-249
-90
-77
-104
-90
-94
-100
-82
-74
-75
-68
-63
-58
-45
-27
-11
5
27
59
95
132
178
223
253
272
275
248
213
193
164
105
40
-7
-39
-64
-83
-114
-157
-153
-113
-139
-146
-55
-91
-157
88
98
-547
-713
200
900
792
810
1127
1028
513
77
-172
-320
-370
-362
-370
-395
-400
-380
-373
-390
-403
-409
-439
-487
-524
-554
-589
-608
-595
-556
-490
-381
-235
-92
26
130
200
208
188
172
142
110
107
101
69
63
97
110
100
106
117
109
112
135
138
121
111
110
115
126
125
112
109
106
87
75
83
79
56
54
73
63
23
-1
-1
-3
-2
3
2
22
73
112
103
66
41
32
6
-24
-4
22
3
-12
-48
-140
-102
99
236
360
490
210
-396
-599
-362
-241
-281
-254
-216
-217
-195
-173
-169
-154
-142
-137
-114
-87
-64
-34
-14
5
57
122
171
229
299
348
372
370
342
312
274
188
76
5
-23
-56
-95
-112
-118
-135
-140
-110
-68
-30
29
119
214
352
603
882
1052
1204
1434
1487
1094
439
-87
-340
-410
-416
-425
-440
-440
-430
-432
-458
-496
-529
-565
-613
-658
-705
-763
-797
-793
-760
-663
-487
-302
-147
1
127
194
210
195
158
112
70
41
32
40
35
13
7
21
18
0
9
25
7
-7
15
18
-9
-7
11
-11
-26
2
4
-36
-38
6
13
-25
-36
-20
-29
-52
-51
-28
-8
-2
8
42
82
100
109
114
105
93
80
68
67
61
46
49
35
4
67
207
341
511
556
209
-234
-287
-100
-28
-31
-3
4
-12
-12
-11
-12
2
15
10
11
34
52
44
49
99
149
174
203
241
269
295
311
293
257
221
173
120
68
7
-50
-86
-111
-138
-160
-157
-133
-128
-152
-159
-138
-128
-130
-123
-116
-117
-106
-47
46
129
179
215
288
407
474
495
662
909
841
382
-72
-274
-331
-362
-373
-374
-380
-378
-372
-381
-399
-405
-409
-429
-452
-461
-467
-480
-486
-472
-454
-428
-365
-266
-170
-72
49
146
171
169
177
152
104
92
98
72
44
36
22
15
41
57
40
35
46
40
32
40
49
55
58
39
6
-10
4
32
51
63
98
152
170
142
108
86
67
49
44
55
60
53
71
84
49
85
235
373
576
831
667
56
-272
-99
53
16
14
63
50
-52
-202
-327
-436
-590
-717
-727
-669
-590
-478
-376
-318
-251
-137
0
