# session 92
68
98
134
136
135
185
244
287
360
460
540
590
613
588
504
390
274
160
64
2
-48
-98
-123
-127
-139
-158
-170
-179
-184
-150
-54
60
165
353
658
909
1066
1335
1653
1581
969
221
-255
-432
-473
-480
-484
-495
-504
-513
-524
-535
-565
-626
-674
-699
-739
-783
-797
-789
-742
-615
-440
-271
-116
5
75
105
93
59
45
35
3
-18
-2
31
48
29
-8
-16
1
0
-21
-31
-36
-39
-31
-34
-48
-31
-4
-18
-47
-47
-37
-40
-54
-61
-19
64
106
74
35
25
16
10
35
51
26
25
44
10
17
139
258
437
711
620
45
-327
-218
-104
-163
-174
-132
-126
-130
-124
-125
-124
-116
-103
-84
-68
-47
-2
52
94
152
235
301
335
362
385
374
312
223
148
93
26
-40
-65
-63
-68
-72
-60
-48
-51
-59
-54
-19
23
21
-14
-2
53
67
33
4
-21
-44
-42
-29
-33
-46
-36
-25
-55
-64
18
119
232
396
357
-31
-336
-248
-83
-82
-105
-81
-67
-57
-49
-53
-39
-14
-13
-5
33
60
68
101
159
214
265
306
332
347
347
316
251
159
65
-6
-52
-88
-115
-127
-137
-147
-148
-142
-146
-162
-162
-130
-96
-94
-102
-75
-39
-47
-87
-125
-147
-162
-171
-172
-174
-176
-158
-153
-179
-133
-8
86
213
344
157
-268
-416
-260
-177
-199
-177
-154
-165
-157
-133
-118
-107
-97
-94
-88
-65
-35
-3
42
106
173
240
313
368
383
379
348
247
117
37
-4
-54
-104
-136
-152
-153
-156
-171
-180
-189
-205
-196
-166
-162
-163
-106
-34
-13
-27
-44
-55
-51
-54
-64
-55
-48
-44
-16
-31
-63
54
237
351
527
600
196
-307
-312
-78
-48
-90
-46
-11
-11
5
24
21
16
32
57
67
72
102
143
167
207
302
401
446
457
449
393
284
169
84
7
-79
-119
-110
-121
-141
-124
-110
-129
-132
-100
-49
31
114
186
363
700
1002
1175
1435
1758
1683
1038
249
-253
-433
-458
-468
-502
-534
-547
-552
-565
-583
-615
-672
-731
-762
-790
-839
-875
-857
-791
-686
-537
-359
-197
-74
15
60
52
22
-1
-18
-27
-34
-56
-69
-48
-13
5
7
9
15
13
3
3
14
17
12
22
44
54
46
34
23
12
6
4
-4
-6
23
80
121
109
76
66
52
23
34
63
34
10
40
26
7
111
231
355
623
696
213
-314
-329
-146
-137
-174
-157
-149
-142
-122
-108
-81
-48
-35
-21
15
52
75
104
149
200
255
312
360
398
411
383
331
268
178
78
14
-19
-51
-80
-89
-78
-71
-78
-80
-69
-69
-68
-46
-35
-65
-86
-51
-8
-14
-44
-56
-59
-70
-78
-62
-40
-31
-14
-9
-35
-3
105
209
365
515
326
-134
-334
-195
-98
-125
-120
-85
-78
-82
-80
-70
-56
-48
-46
-39
-20
6
33
72
133
202
250
281
312
328
298
229
155
84
6
-60
-92
-104
-124
-140
-133
-124
-138
-148
-148
-163
-180
-161
-131
-132
-135
-102
-68
-76
-108
-133
-143
-147
-146
-132
-121
-131
-123
-101
-118
-101
22
123
182
279
192
-173
-387
-257
-132
-148
-141
-112
-123
-121
-101
-96
-92
-80
-69
-54
-42
-26
16
69
112
161
222
266
296
330
342
295
200
101
11
-74
-136
-149
-126
-117
-132
-136
-134
-141
-133
-118
-126
-124
-89
-79
-98
-67
15
59
44
18
8
8
18
47
65
50
61
99
66
46
173
302
438
753
841
289
-288
-292
-117
-128
-133
-86
-99
-111
-82
-52
-28
-19
-29
-21
17
59
87
112
162
237
314
390
453
465
427
368
293
193
89
-6
-89
-134
-130
-128
-151
-164
-162
-161
-149
-140
-130
-57
54
131
287
604
900
1102
1358
1542
1295
641
-17
-406
-543
-569
-587
-619
-646
-656
-660
-684
-734
-785
-828
-876
-915
-927
-931
-932
-898
-805
-663
-479
-270
-82
50
128
162
155
119
90
85
82
62
55
82
102
88
83
103
119
119
119
120
121
120
113
105
109
116
110
97
88
71
46
37
44
37
21
28
62
97
115
100
62
44
53
52
50
59
64
84
88
44
95
253
330
465
755
668
70
-280
-129
-15
-81
-81
-42
-52
-44
-19
-25
-43
-43
-24
-4
6
24
50
71
112
187
249
278
315
359
368
334
275
196
120
60
-1
-47
-60
-81
-111
-99
-75
-80
-76
-70
-94
-102
-66
-52
-74
-64
-18
6
-3
-32
-65
-85
-104
-110
-85
-84
-113
-100
-94
-136
-103
5
112
322
481
202
-265
-363
-224
-211
-236
-198
-203
-224
-190
-163
-164
-153
-152
-159
-131
-91
-78
-55
6
70
124
192
262
293
283
259
225
167
86
12
-30
-54
-79
-91
-85
-87
-96
-91
-92
-118
-137
-118
-85
-84
-100
-79
-23
1
-21
-55
-79
-87
-91
-97
-89
-88
-102
-81
-56
-85
-65
61
176
260
263
0
-358
-403
-215
-138
-157
-132
-101
-100
-91
-71
-54
-41
-29
-8
22
48
79
124
169
211
276
363
435
465
460
437
391
306
192
95
45
20
-6
-27
-36
-35
-34
-38
-44
-46
-53
-66
-73
-70
-71
-69
-37
10
11
-28
-39
-33
-58
-79
-54
-34
-41
-11
24
-18
-14
133
274
425
677
636
85
-354
-277
-104
-119
-142
-111
-108
-117
-105
-93
-98
-107
-102
-84
-68
-56
-38
4
72
143
206
274
336
358
330
269
197
109
0
-91
-145
-200
-247
-249
-241
-254
-248
-223
-224
-237
-224
-205
-198
-191
-191
-189
-140
-78
-85
-124
-126
-133
-167
-160
-115
-109
-117
-96
-113
-128
5
181
272
447
577
234
-297
-379
-173
-127
-163
-133
-122
-137
-125
-102
-79
-67
-76
-79
-54
-19
8
39
91
163
228
283
348
399
397
359
308
216
94
5
-43
-81
-96
-85
-98
-131
-130
-96
-75
-69
-41
30
116
179
298
565
878
1139
1452
1768
1744
1245
557
2
-305
-403
-409
-428
-456
-455
-452
-493
-548
-578
-598
-642
-710
-763
-780
-793
-799
-726
-574
-403
-222
-43
80
150
197
198
167
153
133
81
56
78
77
40
33
50
38
23
44
58
41
31
25
6
7
26
22
4
-3
-1
1
-18
-61
-82
-60
-49
-68
-58
3
53
58
47
25
-6
-9
9
1
-20
-4
25
-10
-71
-17
96
163
374
682
541
-38
-330
-193
-110
-155
-132
-100
-120
-116
-82
-67
-65
-57
-45
-31
-20
-4
26
62
102
153
204
250
284
299
298
282
246
197
141
72
4
-38
-61
-81
-94
-100
-108
-107
-99
-109
-133
-134
-107
-91
-112
-125
-83
-32
-33
-64
-94
-112
-104
-89
-88
-73
-53
-53
-68
-89
-60
49
151
257
384
268
-136
-360
-231
-101
-111
-110
-86
-84
-78
-69
-68
-62
-50
-41
-30
-18
-4
24
62
103
158
224
284
333
367
365
320
248
170
91
23
-29
-66
-81
-69
-53
-51
-51
-46
-54
-76
-93
-95
-85
-68
-51
-28
9
33
14
-19
-25
-33
-73
-83
-43
-49
-88
-66
-60
-103
-28
121
213
400
545
206
-325
-401
-208
-199
-243
-185
-167
-198
-183
-159
-163
-157
-141
-127
-99
-66
-38
10
81
134
182
268
358
407
424
400
323
221
119
34
-28
-86
-133
-140
-123
-119
-127
-135
-121
-84
-43
15
110
245
472
766
986
1192
1526
1683
1240
425
-179
-397
-441
-465
-485
-507
-537
-540
-519
-537
-600
-651
-687
-734
-778
-807
-834
-843
-797
-698
-561
-380
-186
-49
28
91
122
85
32
31
47
17
-39
-40
17
53
45
45
62
67
69
88
93
73
71
92
94
81
81
80
69
67
75
73
53
27
22
38
33
13
43
120
170
163
130
104
89
82
92
105
87
82
100
64
58
202
343
501
879
1028
458
-201
-254
-77
-98
-141
-112
-111
-109
-98
-123
-125
-80
-59
-71
-63
-42
-32
-3
56
113
165
228
274
280
280
282
237
155
98
48
-26
-81
-107
-148
-185
-169
-138
-135
-137
-116
-63
26
135
276
502
776
1029
1302
1494
1273
644
50
-262
-402
-454
-451
-465
-492
-493
-500
-525
-539
-557
-601
-649
-686
-727
-771
-780
-731
-641
-517
-352
-190
-68
33
100
83
27
9
-6
-42
-50
-44
-66
-71
-49
-64
-94
-73
-32
-51
-105
-105
-57
-43
-56
-44
-35
-50
-43
-15
-17
-37
-41
-43
-64
-84
-64
-15
-4
-24
16
103
131
108
104
118
122
122
125
122
119
148
184
154
122
208
345
507
752
780
327
-135
-136
22
4
-33
11
19
-3
7
19
13
11
17
29
45
61
77
97
130
177
231
287
331
346
348
350
327
274
216
157
89
26
-16
-39
-48
-56
-71
-79
-69
-61
-76
-96
-87
-60
-56
-60
-31
7
10
-23
-67
-96
-109
-117
-113
-106
-123
-124
-101
-128
-138
-35
79
222
463
422
-112
-548
-486
-322
-327
-338
-310
-309
-305
-294
-292
-269
-251
-253
-225
-177
-160
-133
-60
12
75
168
261
316
356
379
345
257
151
42
-49
-104
-138
-161
-160
-156
-166
-168
-156
-155
-160
-140
-129
-156
-163
-101
-29
-8
-22
-56
-97
-106
-96
-103
-91
-66
-74
-65
-28
-17
59
225
337
449
546
293
-185
-295
-82
-26
-87
-36
13
-30
-52
-24
-10
-5
13
25
31
55
96
137
191
263
341
422
507
562
562
522
442
314
180
93
37
-31
-96
-131
-146
-154
-149
-139
-139
-142
-130
-107
-92
-85
-61
-22
12
34
27
-11
-40
-50
-72
-81
-66
-69
-59
-32
-67
-63
91
235
379
653
653
108
-354
-295
-140
-167
-186
-145
-139
-158
-160
-143
-133
-147
-138
-100
-86
-84
-48
3
57
130
199
248
299
337
317
243
150
63
-16
-106
-199
-256
-273
-287
-303
-298
-280
-274
-275
-247
-195
-173
-194
-193
-138
-76
-49
-60
-96
-117
-108
-105
-108
-95
-95
-96
-61
-71
-104
-5
125
207
459
663
307
-248
-331
-158
-143
-171
-142
-140
-133
-110
-118
-115
-82
-61
-48
-23
1
25
57
101
168
248
309
349
388
416
402
340
253
156
66
7
-30
-57
-55
-43
-64
-84
-64
-47
-50
-39
8
101
191
268
489
822
1006
1155
1458
1479
915
263
-82
-269
-389
-400
-393
-422
-438
-445
-460
-475
-497
-537
-583
-618
-640
-660
-675
-655
-577
-458
-326
-190
-58
57
145
185
164
126
110
84
43
32
37
19
8
21
17
7
16
20
7
7
22
23
5
-12
-6
22
38
23
4
3
-6
-30
-21
19
21
-2
34
102
100
46
24
28
13
-5
3
13
16
35
30
-14
6
99
183
345
525
351
-116
-326
-200
-110
-125
-114
-101
-101
-80
-66
-66
-52
-35
-25
-6
16
34
67
116
165
215
275
331
369
390
392
368
321
252
165
82
20
-32
-80
-104
-97
-95
-116
-130
-133
-148
-160
-146
-134
-141
-132
-100
-82
-102
-145
-180
-188
-197
-215
-207
-185
-186
-169
-144
-172
-133
40
163
257
432
335
-163
-453
-295
-163
-210
-205
-166
-182
-176
-135
-122
-128
-109
-55
-4
8
16
64
137
214
288
345
401
477
526
494
394
271
138
20
-48
-87
-135
-180
-195
-173
-147
-153
-168
-151
-129
-120
-107
-105
-102
-45
27
45
23
-13
-53
-62
-53
-45
-30
-37
-53
-32
-39
-42
87
257
396
562
482
-18
-400
-314
-160
-178
-179
-136
-139
-151
-147
-136
-113
-89
-70
-55
-47
-29
6
45
104
188
266
337
404
427
394
337
257
145
32
-49
-106
-152
-181
-178
-163
-168
-174
-139
-88
-49
22
133
248
423
703
998
1292
1645
1879
1668
1006
260
-237
-427
-463
-481
-499
-499
-505
-533
-561
-580
-610
-659
-715
-767
-813
-848
-858
-828
-742
-592
-416
-253
-102
26
89
89
83
77
42
13
31
46
18
7
36
39
7
2
19
21
22
34
24
-2
-2
19
27
24
31
48
50
29
0
-16
-11
-4
-20
-27
14
60
63
51
41
17
-11
-20
-6
10
10
25
42
14
33
149
247
429
752
720
137
-299
-224
-95
-133
-138
-108
-111
-98
-100
-139
-136
-99
-93
-88
-51
-22
-10
16
64
119
160
184
221
268
269
220
182
149
72
-16
-66
-100
-137
-154
-162
-176
-177
-159
-148
-155
-148
-90
-11
55
200
459
691
887
1118
1128
704
160
-158
-300
-367
-365
-353
-368
-373
-374
-393
-412
-431
-461
-494
-525
-556
-576
-580
-571
-524
-420
-286
-153
-16
105
165
168
156
125
77
52
37
13
33
121
247
391
485
570
841
1199
1316
1175
878
398
-58
-238
-264
-294
-283
-256
-270
-280
-271
-292
-339
-365
-369
-400
-460
-470
-422
-378
-329
-224
-75
75
208
310
376
407
400
364
327
307
305
302
283
265
257
239
219
224
230
211
196
190
163
132
127
131
128
122
112
99
85
77
85
95
80
64
69
70
59
58
60
50
33
16
9
15
8
-26
-43
-34
-42
-72
-83
-90
-112
-137
-166
-184
-163
-163
-235
-269
-179
-89
-114
-178
-197
-222
-270
-278
-260
-259
-249
-264
-301
-210
-30
92
300
493
161
-488
-685
-487
-442
-509
-478
-455
-483
-477
-461
-457
-432
-405
-399
-381
-341
-308
-282
-232
-155
-81
-14
53
108
124
108
94
76
19
-58
-110
-162
-224
-240
-211
-204
-211
-184
-145
-116
-57
54
181
319
538
834
1103
1357
1614
1599
1118
480
72
-98
-166
-163
-121
-96
-98
-90
-53
-17
-1
24
31
-10
-24
16
34
70
210
