# session 256
182
-264
192
94
-1157
-1470
-213
554
298
283
533
532
543
613
533
462
459
388
286
210
184
213
171
80
108
112
38
122
132
11
292
388
-28
662
1145
-1976
-5022
-2390
1385
119
-2671
-2396
-754
105
372
304
159
199
205
131
135
118
34
19
59
37
-21
-38
-60
-114
-102
-27
46
162
258
324
558
638
372
654
785
-1880
-5608
-4796
-398
787
-1435
-1549
522
1119
547
598
769
620
626
667
555
532
598
610
597
573
563
613
606
503
504
564
505
532
589
381
482
845
368
206
1232
-110
-4022
-4375
-1212
-631
-1684
-393
992
486
290
810
769
722
1081
944
328
110
270
302
245
262
266
263
320
354
314
288
312
305
288
335
342
328
452
431
207
463
737
-478
-2302
-2216
-464
634
591
428
401
297
221
206
162
167
232
240
218
218
184
191
269
207
151
313
231
83
558
374
-1414
-2321
-1020
124
19
-460
-1491
-2675
-2377
-806
256
372
360
498
561
555
423
83
-101
70
208
171
186
229
240
284
278
276
353
267
195
412
319
103
622
387
-1499
-1858
221
896
-450
-1082
-1331
-1908
-1142
469
776
302
310
373
227
270
400
393
368
411
456
479
523
568
629
893
1202
1274
1636
2324
2207
1646
1396
-458
-3623
-3528
-349
423
-1745
-3069
-2734
-1665
-263
416
110
-63
64
-37
-161
-141
-182
-183
-42
92
218
435
644
712
702
722
672
547
569
546
329
453
592
81
252
905
-1224
-4605
-3779
-445
-123
-1574
-1239
-35
451
583
612
493
426
442
459
463
467
490
498
487
518
536
472
455
562
577
436
435
507
331
331
603
299
124
936
177
-2835
-3371
-648
-53
-2087
-2196
-321
501
295
340
429
325
321
356
304
321
394
389
397
487
542
537
531
515
536
557
502
571
685
536
615
905
478
393
1311
76
-3219
-3375
-897
-590
-1139
64
797
230
192
458
276
217
316
264
292
387
373
405
502
515
489
461
407
370
330
314
423
439
299
460
621
273
543
1157
-1165
-5458
-5522
-1207
660
-1486
-2784
-1453
93
543
509
514
525
473
433
414
357
322
345
354
352
387
408
421
519
630
627
641
767
768
645
690
679
450
514
557
115
444
812
-2091
-5861
-4529
-700
-528
-1628
-173
1116
551
350
746
651
593
807
724
524
545
574
527
524
506
499
599
607
467
540
771
796
851
959
596
190
298
230
182
699
-575
-4525
-6151
-2866
41
-1098
-2991
-2586
-842
534
940
797
832
986
969
997
1086
997
870
872
869
800
736
658
559
502
476
452
439
398
362
419
431
348
393
380
203
363
420
-54
415
936
-1965
-5561
-4154
-818
-833
-1359
254
1106
485
435
713
544
535
792
838
856
1195
1420
976
335
224
382
350
281
306
296
241
230
263
233
183
274
277
133
317
388
-31
438
873
-2024
-5555
-3948
-72
-213
-2555
-2594
-931
338
824
709
524
631
689
601
604
632
586
545
506
475
490
467
379
352
397
425
467
532
531
476
429
398
403
384
346
442
419
173
464
502
-2247
-6058
-5457
-1298
113
-1267
-886
665
727
352
615
665
529
680
761
673
692
727
648
565
547
555
547
540
596
685
688
630
652
730
726
706
730
611
456
534
422
129
531
343
-2784
-6199
-4987
-972
265
-1203
-1679
-626
361
737
746
700
743
751
711
718
683
556
473
503
524
477
488
549
530
548
679
812
1062
1303
1058
549
189
-11
438
641
-2045
-5853
-5352
-1527
-110
-1144
-1365
-890
-401
509
1032
796
758
959
934
926
980
899
867
951
942
868
869
824
669
556
481
423
484
427
247
453
494
-1
464
717
-2543
-5736
-3300
184
-871
-2359
-1522
-1524
-1588
476
1945
1512
1482
1950
1643
1145
1022
877
653
484
319
214
186
198
235
191
148
231
142
-20
168
128
-243
139
232
-1504
-2572
-1073
212
-1
-45
-565
-2243
-2596
-883
323
125
-63
190
345
367
380
344
352
413
404
399
470
467
417
467
488
435
475
442
320
444
451
170
447
606
-686
-1530
-409
-141
-2059
-3228
-2255
-687
385
771
679
657
726
654
672
784
753
870
1189
1034
402
160
396
441
300
359
395
268
323
395
265
388
401
-24
460
717
-2522
-5990
-3914
31
-110
-1775
-1862
-1789
-1144
816
1774
1213
996
1153
975
827
808
706
660
649
586
597
642
614
640
768
876
1018
1312
1625
1861
2213
2447
1762
581
415
230
-2628
-6120
-5248
-1168
226
-1856
-3267
-2368
-754
269
513
373
297
288
238
231
257
269
359
522
622
663
754
841
810
711
651
656
672
639
608
610
580
587
593
421
419
750
21
-3003
-6214
-5685
-1737
571
-703
-1944
-988
460
1121
1248
1136
1037
1025
927
752
623
575
565
500
430
482
536
435
270
164
113
77
9
-61
-32
15
-48
18
282
273
215
698
229
-2916
-5974
-4654
-623
624
-1463
-2571
-1035
767
1235
1104
1104
1111
1063
1067
1077
1063
1082
1170
1331
1484
1602
1835
2075
1883
1245
675
441
367
286
240
237
164
106
179
59
-182
117
-50
-2688
-6023
-5690
-2179
-288
-992
-1265
-350
321
566
834
1014
1059
1048
971
919
930
880
739
627
620
653
628
547
518
577
616
631
710
765
761
840
954
1118
1264
830
288
638
-168
-4025
-6630
-3928
-296
-869
-3156
-3059
-1145
314
658
461
413
523
341
-40
-123
68
141
97
156
271
329
389
481
548
586
624
621
552
519
572
567
477
519
613
510
448
541
507
604
742
258
247
1136
-283
-4081
-4912
-2236
-895
-1144
-125
1410
1707
1397
1338
1192
925
1069
896
-305
-702
299
-45
-1598
-1185
423
568
89
268
345
112
85
119
77
89
67
24
93
118
100
267
313
169
458
608
61
467
1078
-1551
-4730
-3190
-520
-1783
-3166
-1190
805
818
631
752
612
550
665
608
501
534
557
498
465
484
495
484
493
511
471
414
442
488
497
588
725
806
1042
1373
1111
277
35
449
220
-78
711
-69
-3920
-5623
-2496
-242
-1619
-2184
-409
761
690
657
723
719
838
916
836
821
917
939
834
737
700
613
494
456
415
337
327
294
220
257
284
269
313
126
61
647
-90
-3761
-6629
-4674
-681
606
-646
-1746
-1437
-125
821
777
614
772
786
669
688
704
680
837
1085
992
526
231
304
372
335
361
357
321
358
312
290
421
233
59
563
223
-1503
-1533
354
261
-1520
-1720
-1046
-826
-4
913
760
533
771
699
417
349
276
159
178
231
236
246
241
214
196
161
156
218
204
176
322
316
109
249
251
-214
235
560
-2214
-5206
-3566
-703
-1676
-3439
-2090
202
916
817
719
438
216
369
597
599
472
359
296
282
316
373
377
326
340
416
417
371
402
450
443
467
536
564
600
666
623
544
560
421
180
277
246
-465
-841
-218
277
137
139
351
349
288
379
611
924
1187
1525
2025
2099
1368
431
-120
-263
-247
-384
-433
-164
-358
-733
-60
-247
-3052
-4552
-2095
147
-645
-2111
-2468
-1837
-612
143
58
73
353
352
201
172
155
127
149
172
192
215
195
192
268
302
237
225
281
262
225
271
282
243
293
287
153
207
283
85
204
384
-838
-2460
-1861
57
597
134
178
395
326
314
380
392
421
389
307
340
386
339
352
421
385
313
354
467
576
697
927
1184
906
19
-137
609
-605
-4504
-6366
-3401
302
730
-939
-2212
-2164
-856
546
877
650
699
802
753
799
842
692
677
928
809
220
108
635
829
519
400
527
515
429
377
265
340
583
397
190
528
342
-22
940
690
-2184
-2626
135
317
-1163
326
2090
1171
272
502
343
53
154
123
-2
8
-43
-123
-108
-114
-171
-200
-220
-265
-308
-325
-322
-291
-233
-174
-73
109
269
331
364
407
426
390
341
374
345
147
181
340
-393
-1979
-3019
-2750
-1483
-44
600
455
386
501
355
208
351
297
78
352
395
-529
-743
102
-751
-2893
-2504
-19
996
537
478
663
571
557
617
541
509
567
507
507
799
924
888
1409
911
-2689
-5924
-4348
-1178
-985
-1530
-297
724
551
484
646
585
565
618
569
549
594
578
548
576
601
614
656
679
666
682
684
620
563
527
463
404
383
358
327
321
311
273
266
283
247
252
294
178
144
372
222
-550
-1527
-2719
-3329
-2005
39
586
186
240
396
180
29
172
355
462
610
658
324
-82
-90
70
64
50
103
84
60
98
98
99
174
193
157
212
247
220
295
298
271
555
532
178
824
845
-2440
-5465
-3908
-1236
-1209
-1389
-181
550
422
385
404
375
460
507
463
444
422
392
403
438
496
544
517
522
711
976
1134
1243
1389
1462
1361
1132
843
579
397
246
127
75
24
-3
32
-16
-70
-1
-127
-310
-80
-472
-2358
-3617
-2352
-462
-115
-457
-360
-339
-403
18
130
-293
210
515
-1526
-2760
-531
545
-1753
-2394
-111
958
386
389
643
466
444
597
575
511
528
550
506
471
542
554
542
725
594
204
668
589
-2448
-5485
-4210
-1160
-547
-979
-144
887
1043
931
1104
1417
1345
756
350
477
603
493
451
504
482
448
468
459
422
432
435
403
413
429
416
492
583
535
532
644
692
746
765
643
747
777
265
436
1025
-714
-3351
-2761
-779
-1340
-2996
-3129
-1981
-442
607
657
503
673
734
608
522
439
363
357
378
426
474
431
372
390
363
290
349
468
582
915
1198
822
166
19
161
157
167
157
79
176
107
-109
360
71
-3199
-6374
-4945
-1479
-870
-2175
-2370
-1301
89
1018
1044
859
1026
1120
1010
983
970
845
703
608
544
533
555
488
432
524
427
263
626
588
-730
-1356
-51
968
622
449
683
464
225
447
629
492
367
462
517
341
351
627
323
-874
-2093
-2360
-1348
108
688
502
486
589
576
612
524
442
569
298
125
866
94
-3363
-4701
-1501
1296
909
502
1280
569
-2081
-3373
-1532
929
1601
1254
954
942
1325
293
-3458
-6012
-3520
650
1493
-233
-1492
-1544
-448
1372
2352
2234
2451
3011
2892
2232
1389
671
781
837
-448
-1287
-95
981
604
371
597
372
235
354
16
34
350
-1821
-5568
-5349
-1378
124
-1565
-2310
-1685
-769
1103
2560
1971
1848
3305
2376
-1257
-1992
639
1332
64
478
1028
-714
-1885
-435
883
534
214
390
169
-90
2
-155
-296
45
-67
-245
815
403
-3379
-5051
-1643
738
-941
-2143
-883
583
1224
1248
943
868
987
941
929
1115
1356
1599
1668
1292
661
217
127
313
541
618
693
773
550
384
710
450
-1297
-3045
-2981
-1578
-240
797
1291
-275
-3807
-5673
-3174
1043
1997
-740
-2289
-300
1692
1423
889
1049
979
774
745
700
711
632
499
690
577
123
575
677
-1299
-2840
-2302
-1769
-1060
958
2149
1765
1839
2426
2342
1759
1049
407
211
258
162
128
179
7
-93
102
-137
-754
-613
-252
-1187
-2707
-3135
-2358
-1129
-233
-106
-225
-78
96
219
401
430
330
376
454
423
488
603
479
305
396
461
329
371
431
214
289
453
-46
80
960
-461
-3435
-3714
-2000
-1070
-523
-572
-1291
-562
955
905
336
584
779
691
736
704
635
690
650
544
547
581
620
637
561
532
553
575
862
1128
672
-111
-395
-110
335
-36
-1354
-1646
-322
537
292
33
46
172
-151
-1228
-1470
-178
654
328
225
500
521
486
557
611
671
658
575
582
575
467
358
244
251
324
61
-39
479
-6
-2642
-5586
-6541
-5134
-2909
-1698
-1051
259
1194
911
631
816
800
654
640
597
535
560
628
656
638
697
851
970
1137
1294
1004
403
198
388
468
423
398
348
368
416
247
80
108
67
74
-82
-1175
-1999
-967
273
541
897
33
-2397
-2146
713
717
-1483
-1108
660
706
193
385
469
341
337
299
267
214
193
395
250
-45
543
510
-1384
-2325
-1532
-1751
-1989
-208
1073
498
271
684
588
428
540
470
385
553
753
1004
1295
1115
479
142
259
343
313
333
379
402
339
300
415
338
171
465
384
-563
-658
-17
-925
-2369
-1996
-835
-128
637
1097
887
786
848
625
416
392
317
272
344
347
279
283
324
328
320
341
390
368
275
320
426
337
350
479
138
61
672
-899
-5218
-6575
-2936
-290
-1119
-1655
-1050
-753
104
1369
1384
682
477
508
503
580
608
600
673
703
634
577
565
564
565
540
458
419
502
519
454
592
679
446
600
959
-517
-4113
-6534
-5118
-1857
-775
-1997
-2086
-262
960
833
704
828
743
658
701
674
611
591
584
605
618
582
559
546
512
511
526
497
471
471
457
430
420
424
441
575
872
1097
972
388
-285
-84
420
-1101
-3896
-4336
-2526
-1241
-457
483
669
327
370
473
399
466
566
533
480
448
457
526
586
606
603
565
503
435
349
257
189
151
128
116
126
141
126
110
125
153
193
188
115
168
275
20
-314
-113
33
-743
-1735
-1705
-751
73
269
204
181
153
180
271
298
333
304
-4
-277
-163
17
-7
-22
55
96
78
57
100
190
202
193
260
225
162
304
306
205
512
488
59
786
1031
-1763
-3987
-2534
-1172
-1420
-411
914
541
193
617
539
270
426
458
282
281
360
373
377
385
407
445
430
363
318
300
285
280
269
219
175
200
226
184
191
291
357
479
684
516
-26
-247
-179
-265
-159
-145
-1404
-3098
-2939
-1203
-114
-123
-232
-234
-325
-336
-276
-316
-348
-276
-211
-185
-127
