# session 116
-26
-44
-65
-62
-42
-41
-53
-57
-50
-31
-15
-32
-55
-34
-6
-23
-47
-24
14
15
9
47
102
116
88
57
32
12
3
1
-8
-10
10
9
-10
41
162
291
414
368
18
-299
-238
-43
-16
-43
-17
-16
-42
-47
-50
-57
-50
-38
-28
-16
1
32
73
114
161
230
310
373
402
403
392
359
295
206
115
43
-9
-45
-67
-81
-96
-99
-78
-51
-42
-41
-12
50
81
41
-11
-22
-28
-41
-25
-7
-1
59
145
173
254
462
665
828
882
543
-59
-377
-346
-332
-388
-377
-344
-354
-371
-372
-386
-403
-392
-378
-408
-454
-469
-461
-443
-403
-360
-323
-249
-131
-56
-60
-59
-26
-37
-92
-123
-120
-106
-99
-129
-150
-102
-58
-91
-118
-60
31
86
76
15
-17
6
14
-3
6
22
38
59
48
72
211
347
436
528
397
-20
-253
-123
-6
-31
-24
4
-7
-16
-26
-35
-4
33
42
49
69
95
128
168
223
306
396
455
479
476
436
349
246
142
29
-58
-87
-102
-135
-157
-165
-163
-131
-103
-110
-96
-23
43
49
25
0
-42
-88
-84
-50
-71
-104
-47
17
52
216
437
515
584
627
300
-188
-300
-169
-164
-194
-152
-152
-180
-165
-155
-172
-178
-174
-170
-169
-173
-159
-124
-90
-58
-12
40
88
114
107
88
63
17
-30
-56
-77
-90
-83
-105
-162
-156
-76
-50
-82
-48
49
123
184
251
315
433
615
768
958
1326
1655
1524
895
161
-324
-521
-565
-568
-580
-605
-612
-595
-598
-623
-632
-633
-655
-677
-682
-685
-670
-617
-542
-445
-307
-164
-55
37
117
147
126
102
83
54
33
28
17
5
11
19
17
11
4
1
-1
-17
-24
-5
-2
-16
11
66
78
59
54
43
15
23
56
48
37
89
107
40
54
176
247
348
503
351
-101
-302
-155
-72
-119
-108
-68
-81
-93
-70
-40
-32
-31
-4
29
42
70
134
188
213
252
310
352
367
369
354
311
252
195
142
89
55
48
42
24
24
59
94
96
85
99
133
139
101
57
31
11
-7
-16
-30
-41
-28
-41
-85
-48
52
159
373
538
262
-231
-356
-192
-150
-196
-181
-169
-184
-188
-196
-206
-208
-208
-194
-167
-153
-132
-84
-38
8
73
129
158
179
185
146
75
3
-73
-148
-185
-194
-214
-231
-231
-245
-256
-227
-206
-214
-177
-109
-97
-119
-120
-126
-146
-138
-125
-144
-130
-48
-36
-121
-74
122
249
383
546
337
-186
-386
-207
-121
-159
-121
-89
-123
-116
-78
-81
-84
-45
-17
-9
19
58
94
141
193
250
333
398
390
348
305
226
117
28
-38
-87
-106
-107
-114
-129
-131
-112
-96
-95
-83
-32
54
114
119
142
229
327
444
614
766
913
1199
1496
1402
829
170
-216
-345
-387
-412
-413
-409
-428
-463
-485
-498
-522
-555
-579
-606
-649
-682
-691
-694
-669
-583
-452
-300
-133
22
128
173
168
151
142
121
96
103
109
73
54
92
115
77
41
42
46
44
48
46
58
108
142
113
73
55
28
14
37
36
8
20
19
-9
58
158
240
531
840
562
-78
-307
-162
-118
-153
-130
-128
-137
-109
-96
-105
-94
-72
-52
-32
-24
0
57
108
140
188
244
280
300
302
274
225
159
71
-10
-56
-78
-94
-108
-124
-136
-120
-84
-73
-84
-55
27
94
116
130
188
314
461
563
684
866
903
629
204
-145
-354
-446
-476
-507
-539
-545
-549
-579
-610
-623
-647
-687
-718
-741
-765
-774
-755
-691
-566
-399
-226
-65
77
177
220
219
204
187
169
154
143
143
148
145
141
148
153
147
143
132
119
133
161
160
150
185
232
231
194
163
134
108
106
110
85
69
106
110
53
77
189
283
450
608
369
-125
-272
-97
-35
-80
-58
-42
-61
-46
-30
-41
-35
-16
-3
13
29
47
91
144
179
215
283
353
384
379
355
307
239
160
64
-37
-91
-100
-125
-166
-176
-159
-144
-128
-103
-64
-2
76
156
240
345
489
651
820
1052
1312
1321
860
161
-339
-509
-536
-569
-593
-578
-566
-592
-615
-603
-623
-707
-772
-780
-804
-857
-885
-883
-845
-746
-608
-455
-284
-126
-17
39
51
47
39
6
-34
-42
-35
-32
-22
-24
-47
-46
-12
-2
-32
-46
-20
-7
-29
-29
32
112
141
118
100
104
92
80
92
90
93
146
150
95
159
300
426
740
1027
670
-27
-223
-38
-19
-81
-36
-12
-35
-25
-15
-21
0
29
27
20
44
80
108
140
194
262
313
333
339
346
340
290
203
133
94
44
-15
-43
-48
-61
-63
-42
-28
-34
-12
68
162
235
283
319
419
616
809
999
1309
1576
1437
879
237
-225
-450
-507
-529
-576
-594
-569
-573
-615
-640
-652
-690
-743
-776
-785
-794
-801
-770
-669
-522
-377
-250
-134
-35
20
25
7
-13
-35
-52
-57
-59
-63
-62
-61
-66
-71
-67
-59
-66
-90
-101
-90
-81
-79
-62
-25
15
26
-5
-38
-33
-24
-34
-31
-25
-33
-14
2
-35
-21
86
184
289
344
123
-218
-277
-126
-69
-82
-67
-52
-34
-16
-24
-26
-1
15
24
40
62
103
152
186
230
298
352
387
422
432
406
372
326
257
190
142
108
92
85
68
62
91
121
121
122
161
233
305
341
383
497
636
752
937
1161
1151
786
285
-108
-312
-368
-381
-415
-441
-444
-449
-468
-490
-517
-555
-601
-640
-662
-683
-710
-703
-635
-532
-422
-297
-159
-38
40
75
82
71
45
14
-9
-20
-32
-51
-58
-44
-38
-53
-67
-66
-63
-75
-95
-101
-105
-130
-133
-74
-6
6
-30
-62
-57
-44
-59
-86
-112
-119
-79
-58
-81
1
157
243
437
687
462
-121
-317
-115
-34
-86
-76
-60
-68
-46
-30
-42
-36
-5
17
32
61
96
119
158
252
355
397
415
467
491
426
329
240
137
32
-39
-79
-107
-126
-144
-154
-138
-120
-130
-113
-15
104
178
250
369
518
656
801
1043
1327
1315
821
171
-216
-341
-402
-438
-428
-427
-456
-468
-470
-504
-552
-584
-616
-662
-705
-737
-756
-745
-693
-596
-457
-294
-132
9
112
164
165
147
128
103
83
84
83
64
64
89
87
58
58
90
89
37
8
45
75
39
14
64
138
172
154
96
61
73
68
37
28
49
76
61
35
108
201
283
602
935
631
-54
-287
-140
-134
-201
-169
-161
-189
-171
-150
-143
-113
-88
-92
-81
-45
-11
35
105
165
207
251
286
304
309
279
208
134
74
4
-68
-111
-123
-137
-162
-165
-138
-124
-133
-122
-80
-38
-26
-51
-92
-119
-136
-139
-118
-109
-118
-113
-137
-184
-107
58
135
192
249
47
-308
-372
-196
-130
-157
-138
-137
-176
-196
-186
-161
-148
-165
-160
-114
-86
-67
-13
46
97
179
261
284
266
245
219
183
133
58
-22
-66
-64
-53
-52
-44
-25
3
48
79
68
75
127
149
118
93
81
60
51
57
52
45
57
51
18
39
121
196
338
505
366
-50
-239
-122
-65
-104
-65
-19
-57
-81
-41
-12
-14
-9
10
25
34
54
89
129
176
231
271
283
288
291
264
199
120
51
-5
-48
-77
-95
-107
-113
-117
-118
-100
-71
-71
-84
-61
-28
-47
-96
-121
-130
-153
-161
-147
-157
-172
-153
-157
-176
-101
16
107
256
293
-41
-403
-376
-208
-190
-201
-183
-208
-221
-208
-217
-214
-184
-178
-171
-129
-94
-78
-34
30
87
159
233
253
251
272
257
166
57
-25
-69
-79
-87
-106
-112
-112
-122
-123
-111
-112
-109
-58
17
45
14
-26
-40
-51
-63
-56
-47
-58
-55
-57
-78
9
180
242
281
358
166
-238
-345
-156
-62
-89
-88
-74
-68
-61
-56
-44
-34
-23
15
52
62
94
150
194
255
339
409
461
464
387
315
275
154
9
-9
0
-86
-138
-80
-54
-118
-130
-30
23
-53
-76
64
198
221
228
268
354
529
711
817
1031
1415
1548
1127
458
-42
-290
-369
-375
-383
-396
-403
-422
-444
-461
-490
-515
-533
-581
-648
-685
-696
-713
-715
-664
-574
-459
-309
-153
-51
17
89
112
70
47
55
35
6
11
26
28
20
2
-7
0
-10
-49
-67
-48
-51
-85
-73
-4
43
38
15
-12
-35
-35
-32
-53
-51
-2
-20
-83
10
161
196
401
756
591
-50
-321
-153
-112
-202
-177
-142
-173
-169
-137
-133
-134
-117
-93
-63
-36
-10
33
83
135
199
267
322
351
344
315
286
241
168
91
39
18
16
9
-2
1
-1
-24
-34
-33
-49
-50
-3
32
3
-48
-79
-112
-143
-131
-106
-114
-119
-117
-138
-102
11
114
278
464
311
-144
-352
-220
-138
-177
-164
-122
-121
-119
-96
-83
-76
-49
-22
-20
-6
41
79
108
156
207
246
287
315
304
276
236
170
97
48
18
2
2
-12
-36
-32
-12
-10
-12
-8
-6
17
63
83
47
-5
-28
-33
-53
-70
-65
-56
-45
-59
-101
-84
-13
44
213
447
336
-91
-289
-174
-104
-139
-141
-122
-112
-98
-92
-85
-65
-47
-30
1
34
61
92
136
189
236
269
292
304
291
254
197
126
52
-10
-49
-73
-90
-107
-121
-128
-136
-138
-117
-97
-106
-105
-62
-20
-25
-70
-123
-151
-153
-148
-146
-153
-149
-127
-144
-160
-67
60
141
232
175
-162
-419
-324
-172
-176
-195
-183
-191
-182
-165
-182
-185
-152
-139
-144
-120
-86
-64
-20
57
128
182
236
278
284
263
215
127
28
-43
-95
-137
-163
-186
-212
-227
-229
-216
-183
-171
-204
-213
-153
-74
-30
-39
-89
-127
-128
-102
-61
-56
-71
13
127
148
228
409
529
685
828
549
42
-43
196
280
253
276
275
242
233
250
284
292
248
222
228
195
158
191
244
259
271
310
344
344
305
231
137
39
-60
-137
-180
-207
-238
-266
-281
-289
-294
-277
-236
-223
-255
-256
-186
-118
-114
-145
-176
-200
-209
-197
-190
-200
-184
-146
-151
-111
87
285
436
686
716
191
-353
-386
-248
-264
-282
-259
-266
-256
-232
-235
-226
-203
-200
-194
-177
-170
-146
-102
-77
-48
13
62
90
129
144
108
64
26
-22
-57
-72
-99
-114
-74
-46
-95
-127
-58
12
6
29
155
284
381
561
777
880
1008
1292
1378
979
379
-59
-299
-398
-401
-402
-424
-429
-430
-448
-461
-471
-497
-523
-552
-591
-608
-592
-575
-543
-448
-305
-164
-33
97
190
216
215
210
173
128
125
129
103
84
80
67
66
91
99
73
51
56
59
42
28
13
-9
-2
30
27
11
35
68
67
50
31
10
-2
5
13
7
6
9
-22
-34
46
121
195
405
507
179
-219
-236
-100
-95
-103
-68
-73
-77
-47
-38
-42
-35
-39
-51
-40
-12
8
19
50
113
165
182
204
241
249
220
188
147
78
6
-35
-54
-57
-44
-48
-68
-49
-1
45
107
165
230
435
701
799
830
912
765
300
-93
-236
-297
-346
-370
-399
-422
-439
-482
-521
-526
-539
-578
-610
-628
-638
-632
-603
-541
-417
-244
-80
47
146
209
222
198
157
122
112
124
168
244
333
479
692
859
1048
1403
1586
1171
450
-39
-260
-374
-399
-380
-385
-399
-413
-428
-425
-428
-465
-488
-477
-492
-547
-584
-569
-502
-369
-207
-79
15
94
133
133
131
126
101
77
73
86
107
109
87
74
82
87
79
59
37
28
31
27
13
9
4
-27
-60
-52
-23
-32
-74
-89
-67
-47
-51
-70
-84
-70
-54
-65
-65
-29
-16
-36
-39
-25
-25
-33
-37
-35
-37
-54
-37
49
127
124
86
70
65
55
51
57
76
85
39
36
202
382
465
584
561
137
-259
-203
-41
-65
-80
-43
-59
-70
-60
-81
-85
-61
-55
-41
-13
-8
11
70
113
144
221
291
291
277
294
276
193
112
62
7
-51
-86
-112
-131
-127
-119
-129
-132
-109
-77
-62
-73
-70
-20
27
16
-8
-9
10
61
129
199
331
498
577
711
1132
1532
1339
601
-87
-389
-448
-460
-468
-465
-456
-450
-464
-491
-507
-514
-530
-553
-576
-606
-636
-651
-644
-615
-546
-433
-309
-193
-79
13
49
33
17
30
28
-28
-67
-36
-11
-18
0
11
-31
-56
-32
-19
-23
-10
23
59
71
49
17
-13
-31
-21
-5
-14
-11
13
-6
-23
59
151
213
388
508
232
-175
-239
-106
-87
-110
-83
-81
-91
-72
-66
-81
-88
-88
-80
-48
-9
27
65
99
144
217
283
318
352
377
363
324
265
183
122
98
70
44
54
55
24
24
76
119
144
202
280
378
563
775
869
947
1133
1155
789
303
-18
-206
-316
-339
-340
-364
-384
-389
-395
-407
-423
-448
-477
-496
-507
-513
-498
-440
-339
-214
-86
40
151
229
262
255
216
171
138
111
85
78
79
69
57
62
63
45
28
25
20
10
1
-10
-27
-43
-67
-84
-62
-47
-85
-84
6
57
5
-38
-37
-62
-89
-71
-69
-103
-94
-85
-136
-106
29
132
314
555
367
-233
-525
-366
-269
-344
-356
-309
-308
-326
-320
-306
-309
-308
-276
-248
-244
-229
-188
-141
-87
-24
37
95
134
130
99
64
18
-56
-150
-234
-279
-302
-318
-306
-282
-290
-291
-227
-144
-91
-12
158
412
683
884
1028
1255
1474
1302
669
29
-290
-399
-456
-468
-450
-435
-432
-455
-488
-491
-486
-512
-552
-584
-610
-618
-606
-568
-479
-336
-159
32
219
396
526
605
771
1063
1261
1386
1789
2305
2252
1538
784
373
211
156
150
148
145
152
