# session 67
72
73
58
42
49
58
36
13
15
7
-22
-33
-8
6
-25
-48
1
82
100
64
51
63
45
24
37
41
33
48
34
24
115
232
353
553
530
62
-337
-271
-105
-113
-119
-77
-77
-83
-65
-59
-55
-45
-49
-46
-23
1
23
57
87
114
161
222
269
302
316
288
239
195
142
71
2
-47
-70
-84
-110
-126
-113
-100
-103
-104
-93
-70
-52
-59
-61
-21
7
-36
-93
-92
-74
-97
-122
-118
-115
-113
-102
-104
-82
-3
89
211
283
65
-323
-434
-266
-183
-222
-219
-186
-172
-162
-165
-174
-159
-141
-143
-138
-114
-93
-67
-17
40
90
144
203
243
252
234
191
127
46
-34
-92
-125
-146
-159
-152
-135
-133
-144
-146
-128
-105
-92
-89
-74
-37
3
11
-21
-55
-64
-71
-80
-63
-52
-65
-55
-58
-82
5
163
283
493
640
280
-311
-433
-202
-134
-193
-173
-133
-123
-106
-92
-89
-70
-49
-34
-2
43
68
91
142
211
282
364
445
491
494
468
400
295
204
134
60
14
19
16
-17
-14
12
-7
-13
47
95
118
184
309
539
872
1095
1170
1383
1648
1434
676
-48
-349
-388
-420
-467
-463
-443
-461
-484
-496
-530
-568
-604
-663
-712
-735
-778
-832
-821
-739
-636
-520
-346
-148
-24
31
91
125
79
13
-9
-21
-51
-56
-32
-49
-96
-91
-41
-20
-28
-29
-30
-42
-39
-24
-38
-70
-72
-67
-89
-91
-62
-75
-115
-76
15
40
14
26
42
-18
-81
-45
7
-18
-25
8
-5
29
187
350
512
620
377
-106
-299
-176
-93
-83
-65
-86
-109
-87
-68
-67
-65
-52
-18
7
-6
1
57
115
177
255
309
343
388
406
374
332
265
152
62
15
-53
-119
-118
-102
-130
-139
-93
-64
-75
-49
16
24
-12
26
133
210
250
305
422
603
755
869
1136
1548
1688
1244
465
-147
-380
-402
-415
-445
-455
-456
-464
-481
-508
-537
-569
-609
-648
-684
-731
-770
-764
-727
-688
-604
-436
-252
-117
-1
110
154
123
89
78
61
44
41
36
22
25
45
40
17
16
21
13
16
22
-2
-24
-8
-5
-44
-44
34
98
91
63
44
21
6
8
13
13
7
-8
-22
11
105
171
258
565
824
513
-99
-309
-170
-120
-162
-157
-146
-142
-122
-103
-86
-66
-50
-36
-29
-19
17
58
85
133
205
263
306
347
368
352
313
256
176
84
-1
-62
-96
-115
-128
-132
-129
-138
-155
-158
-148
-135
-126
-120
-97
-56
-40
-68
-102
-123
-141
-150
-144
-148
-152
-119
-112
-150
-93
53
134
223
328
141
-249
-344
-161
-95
-138
-116
-92
-107
-99
-81
-85
-81
-64
-47
-24
1
28
71
123
177
241
309
357
376
371
347
299
216
117
44
-5
-48
-72
-78
-84
-88
-90
-100
-107
-96
-72
-49
-39
-34
-8
33
42
12
-17
-27
-38
-50
-43
-40
-51
-31
-15
-39
-2
108
208
381
538
306
-177
-342
-174
-81
-121
-135
-113
-97
-92
-95
-91
-79
-68
-52
-35
-25
-9
22
58
100
157
214
260
297
320
321
288
214
109
17
-38
-75
-109
-131
-140
-141
-140
-141
-146
-148
-124
-73
-27
14
108
262
443
644
809
888
997
1195
1207
797
199
-201
-343
-382
-401
-419
-442
-457
-461
-475
-501
-535
-581
-626
-665
-720
-785
-827
-840
-820
-734
-592
-457
-323
-159
-16
55
92
111
80
22
-9
-2
20
25
16
29
47
24
7
34
41
26
49
61
29
27
46
19
-6
17
29
1
-8
47
131
178
166
131
114
104
81
80
102
93
81
88
70
95
229
364
540
769
624
40
-298
-161
-35
-62
-38
-6
-45
-62
-34
-20
-20
-9
5
11
13
22
49
94
136
177
241
313
350
369
391
362
266
184
133
66
-9
-54
-81
-107
-128
-136
-131
-126
-118
-96
-69
-43
-11
43
147
291
456
651
817
940
1195
1603
1775
1395
637
-72
-451
-547
-575
-622
-639
-626
-617
-617
-632
-661
-677
-686
-718
-760
-786
-799
-801
-771
-690
-568
-430
-282
-134
-18
38
50
43
17
-22
-43
-38
-39
-55
-59
-44
-31
-31
-41
-51
-48
-40
-42
-48
-51
-58
-65
-73
-90
-95
-73
-65
-70
-39
10
27
24
20
2
-18
-4
33
49
50
73
81
74
144
257
365
605
805
498
-91
-272
-84
-3
-44
-49
-52
-53
-27
-22
-35
-18
11
19
16
28
59
94
123
159
208
264
316
347
358
358
327
256
182
120
54
-2
-25
-37
-57
-67
-61
-58
-60
-54
-50
-45
-27
-11
-7
10
34
18
-23
-39
-52
-85
-92
-75
-75
-54
-23
-67
-91
32
177
289
429
355
-51
-338
-265
-148
-147
-142
-138
-149
-121
-97
-114
-110
-79
-76
-88
-70
-35
-7
20
64
120
167
201
233
258
256
225
173
102
16
-59
-97
-108
-117
-123
-114
-102
-101
-105
-105
-95
-70
-53
-49
-14
57
115
155
193
250
380
540
608
698
997
1249
1030
431
-91
-320
-368
-390
-426
-441
-432
-439
-468
-492
-504
-528
-583
-636
-658
-681
-731
-765
-758
-723
-648
-514
-349
-189
-52
52
117
142
127
87
66
70
61
41
41
45
33
42
72
75
65
84
103
86
66
74
93
106
106
97
123
200
246
212
169
157
133
111
117
94
56
94
129
63
78
256
390
537
783
656
46
-297
-130
-15
-89
-66
-4
-30
-43
-15
-17
-25
-8
0
-9
1
34
60
86
143
220
290
344
378
393
386
344
270
178
70
-29
-86
-119
-158
-184
-191
-198
-188
-158
-142
-135
-112
-110
-138
-121
-43
2
-24
-72
-111
-137
-148
-151
-151
-148
-120
-88
-123
-138
-14
115
231
502
586
105
-402
-377
-188
-201
-224
-165
-156
-179
-166
-148
-144
-127
-106
-99
-89
-67
-47
-12
45
102
159
228
281
295
286
266
204
90
-22
-91
-141
-193
-221
-218
-215
-222
-218
-208
-196
-172
-151
-152
-130
-62
-7
6
3
-19
-58
-85
-91
-72
-60
-88
-86
-32
-38
-33
103
227
341
569
543
41
-330
-221
-82
-119
-118
-86
-106
-93
-57
-72
-82
-37
-11
-36
-49
-15
31
69
111
176
257
324
358
377
386
361
297
219
144
75
24
-2
-19
-38
-49
-44
-38
-58
-81
-57
-9
19
70
166
286
481
705
818
949
1208
1224
762
213
-92
-258
-369
-380
-350
-371
-413
-416
-401
-418
-461
-490
-514
-546
-578
-602
-616
-607
-567
-486
-364
-223
-86
30
114
161
161
121
88
84
75
52
42
40
32
27
26
14
-4
-16
-22
-33
-44
-45
-46
-58
-69
-78
-94
-106
-99
-82
-80
-87
-66
-21
0
-19
-45
-68
-95
-105
-90
-88
-103
-93
-82
-104
-63
72
194
335
450
225
-252
-424
-231
-108
-126
-101
-60
-61
-57
-43
-40
-29
-7
9
16
33
73
111
135
182
262
336
402
461
486
478
466
431
347
245
171
116
50
-9
-29
-24
-26
-51
-79
-79
-49
-22
-12
6
64
177
311
442
616
818
934
1024
1283
1523
1279
569
-64
-324
-384
-424
-438
-429
-439
-466
-488
-498
-502
-536
-605
-651
-658
-687
-754
-805
-807
-755
-653
-516
-367
-222
-96
-7
37
52
48
14
-23
-22
-5
-29
-68
-68
-45
-45
-52
-42
-40
-57
-66
-54
-36
-31
-54
-87
-82
-44
-38
-72
-68
1
67
84
61
40
35
24
20
40
35
19
46
35
13
155
343
453
692
842
408
-189
-251
-52
-54
-100
-59
-63
-88
-65
-51
-71
-72
-38
-8
-6
-8
13
50
93
143
200
269
346
387
373
334
282
221
168
105
2
-94
-122
-106
-101
-106
-113
-128
-141
-123
-75
-46
-57
-68
-43
5
35
10
-47
-69
-59
-70
-78
-70
-82
-75
-53
-92
-79
73
190
339
636
595
3
-417
-304
-159
-189
-168
-120
-137
-133
-98
-96
-92
-57
-44
-55
-38
1
37
68
107
159
218
274
315
322
293
254
196
92
-5
-44
-65
-102
-137
-160
-155
-123
-114
-144
-159
-145
-139
-150
-151
-123
-77
-47
-53
-74
-81
-93
-122
-128
-110
-120
-126
-107
-125
-115
-4
79
198
527
665
227
-263
-287
-150
-155
-159
-116
-118
-127
-112
-106
-92
-68
-59
-50
-25
3
29
65
107
148
198
252
286
292
283
266
221
141
49
-24
-62
-78
-100
-129
-140
-138
-140
-135
-127
-127
-105
-65
-47
-1
118
242
373
547
673
765
940
1028
784
356
12
-191
-286
-310
-318
-336
-362
-376
-366
-374
-423
-462
-470
-493
-539
-571
-572
-545
-490
-406
-292
-156
-15
104
176
204
205
183
142
100
68
44
29
18
8
1
-2
-1
1
-1
-7
-6
3
4
0
7
10
-11
-33
-20
14
28
18
30
86
130
110
67
56
57
38
31
44
33
24
51
40
24
123
255
393
641
681
197
-298
-286
-103
-108
-148
-122
-117
-129
-122
-114
-108
-94
-81
-72
-56
-29
-7
14
59
120
178
239
300
340
360
357
307
222
139
61
-15
-69
-103
-133
-148
-135
-115
-112
-130
-136
-104
-55
-24
15
124
280
414
563
745
862
969
1237
1428
1099
399
-131
-334
-398
-427
-444
-466
-479
-484
-501
-525
-550
-592
-647
-690
-719
-765
-829
-854
-819
-783
-723
-558
-351
-206
-82
51
106
92
84
60
9
-5
10
8
0
-9
-1
39
57
28
25
57
67
71
83
80
81
82
58
55
76
60
45
97
169
193
157
94
63
65
60
59
66
66
91
95
64
155
343
480
708
908
573
-52
-208
-14
6
-49
6
16
-40
-35
-8
-22
-27
-6
4
22
57
64
53
84
137
189
274
356
357
319
303
271
200
125
66
20
-25
-87
-136
-141
-135
-144
-153
-173
-196
-168
-117
-118
-139
-116
-74
-47
-47
-83
-124
-137
-148
-164
-176
-179
-149
-127
-176
-156
1
94
169
380
342
-144
-466
-339
-217
-262
-259
-222
-225
-211
-197
-213
-204
-171
-157
-146
-120
-100
-81
-38
31
96
138
181
247
285
247
184
138
70
-28
-116
-178
-210
-209
-195
-190
-199
-199
-163
-113
-89
-85
-86
-80
-44
2
11
6
7
-6
-31
-48
-43
-5
20
0
-6
23
73
164
253
356
556
601
215
-193
-170
5
-12
-60
-7
24
0
14
63
77
69
93
123
135
164
210
234
254
311
383
430
451
459
464
453
395
304
222
158
99
58
42
29
27
42
50
35
20
31
79
133
160
215
336
458
558
703
862
990
1186
1379
1252
764
235
-125
-345
-473
-562
-666
-781
-894
-1008
-1103
-1177
-1246
-1276
-1241
-1197
-1171
-1139
-1100
-1055
-968
-827
-651
-452
-266
-136
-50
11
32
18
4
3
5
8
12
7
-2
4
20
28
33
44
51
47
45
50
56
47
26
9
7
17
22
14
11
43
83
81
36
-9
-29
-32
-25
-15
-20
-9
29
24
20
142
306
432
584
537
99
-252
-134
65
49
35
92
94
82
107
113
106
126
148
145
142
163
205
247
280
321
387
460
511
540
554
537
485
411
323
234
156
91
43
17
5
-9
-30
-48
-53
-44
-21
7
23
46
147
316
481
649
819
925
1061
1343
1473
1069
340
-195
-400
-457
-470
-454
-464
-517
-546
-532
-550
-609
-627
-631
-707
-788
-786
-787
-859
-886
-804
-687
-550
-392
-282
-201
-83
5
-4
-45
-67
-84
-92
-86
-88
-95
-80
-54
-42
-46
-56
-59
-37
-18
-38
-46
-17
-21
-71
-85
-54
-44
-65
-66
-15
56
90
73
41
25
17
19
39
39
28
61
69
20
87
258
380
619
899
646
-20
-294
-131
-51
-87
-81
-87
-92
-67
-82
-101
-63
-33
-44
-41
-24
-16
14
74
131
171
212
271
329
340
314
284
230
145
74
23
-36
-77
-90
-104
-119
-120
-118
-108
-82
-54
-51
-69
-66
-28
8
21
13
-18
-57
-76
-81
-78
-68
-64
-48
-27
-56
-56
57
177
308
513
464
-12
-380
-295
-138
-160
-175
-122
-110
-123
-106
-78
-61
-51
-33
-9
4
19
65
105
125
178
263
311
332
358
354
304
238
166
89
20
-37
-67
-83
-102
-87
-50
-67
-106
-84
-45
-39
-24
-1
-3
6
37
32
-11
-44
-58
-57
-42
-34
-40
-29
-20
-55
-54
36
110
220
491
580
179
-262
-284
-141
-113
-108
-77
-73
-77
-79
-86
-69
-42
-46
-53
-33
-7
15
45
84
126
167
201
227
242
237
209
155
74
-15
-82
-123
-158
-189
-207
-215
-215
-219
-245
-278
-274
-241
-228
-239
-225
-182
-160
-181
-213
-229
-243
-263
-259
-231
-221
-214
-197
-205
-187
-80
35
153
289
187
-209
-434
-292
-144
-152
-159
-134
-127
-114
-100
-103
-97
-82
-73
-54
-20
9
44
104
166
216
279
353
406
431
436
404
324
216
113
30
-32
-66
-82
-93
-85
-67
-78
-101
-86
-53
-44
-37
4
79
184
294
376
460
614
803
936
1103
1439
1677
1353
562
-81
-282
-282
-297
-313
-324
-359
-376
-349
-346
-407
-469
-485
-502
-553
-597
-623
-661
-675
-612
-507
-405
-270
-95
53
133
166
173
163
156
144
102
60
67
91
90
91
106
105
106
128
137
119
103
94
80
89
111
85
41
77
169
208
186
156
134
107
82
86
99
76
69
89
44
44
209
353
487
765
739
125
-354
-256
-103
-165
-198
-188
-215
-211
-196
-222
-242
-248
-265
-274
-290
-312
-287
-218
-159
-107
-34
38
81
94
88
64
8
-82
-192
