# session 129
3
42
74
126
196
249
277
295
288
246
190
131
67
6
-32
-40
-39
-57
-74
-59
-38
-52
-74
-64
-46
-48
-38
-2
27
26
-1
-40
-70
-93
-114
-120
-123
-136
-126
-112
-137
-119
-25
46
149
294
185
-181
-352
-228
-136
-142
-123
-109
-121
-109
-93
-97
-97
-95
-98
-88
-65
-52
-40
1
59
103
149
212
255
259
266
262
201
122
67
8
-52
-75
-83
-98
-99
-103
-130
-149
-142
-129
-116
-114
-118
-81
-18
-4
-45
-87
-112
-125
-127
-118
-114
-123
-102
-75
-120
-124
31
177
285
507
527
74
-311
-222
-51
-66
-82
-49
-52
-70
-66
-50
-45
-52
-47
-30
-21
2
53
102
149
204
270
348
417
440
434
416
353
243
146
91
49
2
-21
-19
-23
-31
-32
-46
-56
-18
26
45
113
257
449
716
972
1095
1278
1634
1714
1181
403
-139
-382
-452
-460
-481
-504
-500
-510
-544
-565
-589
-646
-701
-736
-781
-834
-875
-903
-883
-791
-666
-524
-351
-182
-59
12
33
21
2
-24
-46
-45
-37
-35
-29
-20
-18
-20
-16
-7
3
9
16
22
17
9
13
17
-1
-23
-20
4
-2
-45
-44
32
94
88
61
44
24
8
8
21
23
12
27
28
-24
11
165
289
489
781
656
41
-323
-198
-81
-115
-105
-87
-118
-119
-97
-92
-71
-35
-29
-36
-26
-6
27
86
158
235
315
370
387
386
374
341
288
223
143
57
-7
-40
-61
-75
-73
-69
-71
-61
-45
-38
-14
30
39
26
62
110
86
34
18
4
-31
-38
-13
-22
-56
-36
-4
-34
-26
73
197
403
581
359
-125
-302
-167
-101
-125
-114
-106
-119
-124
-124
-116
-107
-112
-111
-93
-72
-52
-26
5
46
103
159
198
225
232
206
155
92
18
-62
-119
-140
-147
-158
-164
-151
-138
-138
-140
-132
-113
-86
-68
-67
-54
-17
2
-17
-49
-72
-86
-100
-111
-103
-103
-126
-124
-115
-147
-127
-15
90
241
415
258
-204
-419
-286
-200
-230
-216
-191
-202
-206
-208
-210
-186
-162
-163
-153
-120
-88
-47
12
61
104
185
280
321
323
343
342
261
153
96
61
4
-36
-33
-34
-54
-51
-21
-12
-25
-17
14
34
37
47
84
143
199
245
320
454
579
609
566
469
300
263
525
657
262
-223
-318
-254
-287
-311
-297
-303
-295
-291
-323
-333
-323
-354
-384
-365
-347
-343
-310
-260
-231
-200
-139
-87
-58
-3
69
85
71
95
125
121
103
75
52
73
104
102
97
108
112
130
197
267
315
440
640
775
916
1185
1279
907
365
10
-206
-361
-405
-398
-424
-443
-434
-444
-464
-464
-479
-522
-555
-578
-611
-624
-591
-528
-442
-320
-179
-46
86
204
253
236
210
186
147
125
125
101
62
52
54
46
47
53
37
12
9
25
27
-1
-20
-12
-22
-56
-56
-25
-21
-34
-34
-30
-19
-4
-16
-41
-45
-30
-14
-15
-16
20
61
46
6
-2
-5
-31
-47
-29
-10
5
33
29
-7
42
170
279
421
518
262
-203
-343
-155
-60
-99
-90
-63
-83
-101
-89
-69
-53
-45
-40
-24
-1
14
28
61
114
165
205
250
302
320
281
236
223
206
134
45
3
-16
-59
-89
-79
-66
-61
-53
-58
-61
-28
-1
-6
-1
25
47
77
102
71
0
-27
6
27
2
-24
-28
-7
18
-9
-41
17
131
285
432
290
-123
-321
-201
-131
-175
-163
-131
-144
-166
-179
-174
-157
-161
-168
-142
-115
-105
-77
-23
42
110
169
217
265
297
289
251
182
83
-8
-63
-102
-141
-170
-180
-184
-193
-202
-200
-202
-212
-204
-182
-188
-197
-153
-94
-87
-116
-134
-139
-149
-162
-146
-116
-129
-134
-85
-90
-118
-4
160
305
557
609
117
-380
-339
-140
-141
-157
-124
-141
-153
-123
-115
-127
-108
-69
-52
-54
-33
9
51
113
203
283
358
447
503
487
435
364
265
167
110
61
-7
-50
-47
-45
-59
-43
-7
9
57
168
276
433
733
1040
1278
1631
1950
1689
837
37
-337
-450
-492
-500
-501
-519
-545
-555
-551
-563
-608
-664
-695
-703
-722
-760
-772
-724
-630
-503
-334
-150
4
113
173
184
173
164
144
103
70
64
63
56
59
65
61
56
54
53
45
23
2
-1
0
-2
-1
-6
-26
-46
-54
-61
-80
-101
-105
-98
-98
-95
-66
-12
27
12
-46
-94
-117
-130
-128
-128
-152
-157
-142
-165
-155
-49
43
186
479
516
45
-357
-281
-118
-139
-151
-93
-69
-66
-52
-46
-37
-21
-13
-2
10
10
25
73
121
159
209
254
281
315
339
321
287
256
200
128
85
72
64
55
49
59
83
91
75
61
70
98
117
111
108
143
177
162
115
92
96
83
57
63
82
55
23
17
-26
-66
-11
78
176
301
219
-159
-409
-314
-190
-200
-202
-176
-176
-172
-162
-166
-162
-149
-145
-139
-118
-93
-63
-22
21
69
134
207
256
274
268
245
206
149
67
-14
-54
-66
-88
-110
-113
-120
-143
-165
-177
-176
-157
-151
-177
-178
-126
-85
-92
-122
-157
-179
-171
-150
-146
-168
-190
-162
-138
-186
-158
7
132
289
551
461
-104
-444
-297
-169
-225
-228
-181
-174
-160
-142
-148
-139
-123
-120
-97
-58
-38
-11
49
112
169
248
334
388
406
397
361
295
210
125
56
13
-11
-27
-38
-45
-41
-17
12
35
89
197
337
538
806
1078
1402
1804
1956
1518
692
-20
-373
-466
-492
-526
-542
-545
-562
-575
-581
-610
-649
-674
-700
-734
-763
-776
-754
-682
-578
-438
-259
-102
2
87
147
139
92
57
46
48
38
7
-7
-4
-20
-24
15
37
19
9
11
3
2
15
26
23
19
36
49
33
23
30
6
-24
-1
18
-31
-75
-41
29
77
96
84
59
53
52
36
40
43
13
5
2
-43
-3
136
240
451
728
519
-120
-402
-231
-145
-191
-169
-152
-172
-149
-125
-138
-136
-111
-97
-82
-51
-27
-16
18
85
149
196
242
285
307
310
293
257
215
169
117
74
37
-6
-30
-22
-14
-13
-11
-10
34
124
206
340
584
825
1066
1390
1501
1038
272
-252
-442
-519
-575
-601
-616
-633
-644
-651
-659
-670
-682
-693
-701
-704
-697
-667
-595
-474
-326
-182
-67
17
87
143
161
165
210
281
380
542
689
782
937
1050
800
275
-114
-247
-282
-290
-276
-272
-280
-290
-303
-314
-316
-323
-346
-372
-385
-375
-336
-275
-198
-97
25
141
205
209
214
249
243
175
127
119
98
70
68
74
66
60
60
51
35
27
31
30
24
24
26
24
28
38
43
43
47
45
39
52
69
59
45
55
57
44
44
47
33
23
26
21
9
-2
-12
-20
-14
2
-2
-29
-36
-18
-15
-30
-34
-41
-65
-72
-56
-54
-72
-94
-103
-93
-84
-80
-37
35
63
38
6
-17
-27
-5
13
-10
-18
15
-7
-23
120
302
440
686
754
251
-306
-306
-112
-146
-199
-150
-140
-156
-143
-140
-140
-120
-104
-89
-64
-43
-21
9
45
99
171
241
285
286
270
276
262
189
114
70
20
-36
-78
-131
-184
-190
-175
-189
-204
-188
-173
-162
-142
-157
-204
-191
-106
-46
-51
-76
-97
-118
-132
-132
-112
-69
-36
-26
-13
-23
-33
81
258
325
322
219
-101
-355
-255
-74
-54
-48
-5
-16
-40
-20
6
11
10
23
42
50
62
93
130
178
247
327
406
473
505
488
426
324
200
85
3
-54
-108
-157
-179
-171
-143
-124
-152
-204
-204
-156
-145
-187
-200
-137
-59
-37
-62
-90
-113
-136
-148
-130
-106
-129
-158
-122
-114
-164
-96
69
194
423
625
309
-274
-405
-201
-163
-213
-171
-152
-179
-167
-140
-130
-114
-94
-79
-53
-21
2
31
80
138
193
250
303
333
334
313
280
233
158
77
29
4
-11
-13
-19
-42
-49
-34
-42
-72
-71
-40
-32
-57
-55
-8
33
26
-21
-50
-37
-41
-88
-97
-61
-64
-83
-70
-63
-48
2
111
394
670
466
-68
-279
-145
-94
-142
-123
-104
-128
-128
-118
-136
-146
-140
-146
-154
-136
-101
-63
-16
38
91
141
192
237
252
233
193
150
109
68
26
-3
-12
-19
-25
-21
-20
-23
-13
4
38
114
189
282
488
713
829
951
1028
738
181
-182
-280
-325
-352
-349
-369
-400
-406
-409
-427
-447
-470
-496
-523
-543
-559
-569
-551
-492
-395
-262
-109
27
134
216
253
240
202
165
132
108
90
77
70
66
67
71
69
62
56
46
30
15
9
4
-3
-8
-12
-24
-46
-55
-38
-34
-65
-101
-103
-84
-93
-122
-94
-3
52
41
31
39
30
19
37
48
15
1
40
28
-18
68
227
366
599
699
274
-280
-336
-120
-72
-112
-94
-75
-74
-78
-81
-61
-40
-42
-30
1
9
14
56
116
174
237
291
329
374
411
411
382
323
220
111
32
-33
-76
-78
-76
-100
-108
-93
-110
-154
-161
-138
-137
-153
-148
-117
-74
-44
-65
-118
-147
-146
-152
-159
-152
-155
-146
-110
-127
-149
-22
149
243
395
440
64
-361
-341
-149
-145
-175
-121
-107
-138
-132
-105
-101
-104
-83
-54
-49
-49
-14
47
101
154
228
310
368
394
395
363
294
199
101
23
-24
-51
-73
-89
-95
-90
-82
-88
-92
-69
-47
-60
-77
-58
-18
13
20
-4
-50
-83
-81
-66
-63
-79
-108
-109
-85
-96
-99
-20
72
176
331
276
-114
-405
-330
-207
-221
-221
-185
-188
-189
-161
-151
-154
-140
-116
-101
-91
-73
-37
16
76
139
193
238
277
301
294
267
233
179
105
49
22
2
-11
-14
-18
-10
8
6
-13
-17
-9
6
23
25
27
58
88
77
39
10
2
-3
-8
3
14
2
3
12
-12
8
107
216
369
490
287
-119
-254
-127
-73
-94
-75
-71
-90
-82
-80
-98
-105
-103
-101
-87
-70
-56
-25
27
69
100
151
214
234
215
206
194
133
40
-38
-91
-129
-149
-147
-141
-149
-156
-141
-119
-106
-80
-11
77
152
306
633
931
1016
1138
1408
1358
763
105
-231
-352
-402
-407
-409
-424
-437
-449
-457
-476
-520
-559
-587
-641
-696
-714
-722
-727
-681
-572
-424
-260
-105
31
144
206
202
169
121
68
54
62
34
-1
-7
-30
-49
-7
21
-22
-54
-38
-23
-29
-49
-65
-50
-22
-14
-25
-45
-66
-69
-55
-51
-64
-70
-32
55
126
123
72
40
32
27
39
53
30
36
102
87
38
155
323
485
832
985
444
-197
-225
-23
-48
-90
-41
-54
-100
-90
-70
-66
-49
-27
-28
-33
-6
43
76
96
145
223
288
327
359
383
375
330
269
215
164
103
33
-15
-26
-28
-42
-49
-52
-64
-69
-63
-54
-41
-38
-39
-2
45
23
-29
-39
-46
-88
-105
-84
-99
-139
-134
-143
-214
-204
-105
-45
147
519
506
-68
-488
-423
-320
-358
-350
-313
-320
-311
-279
-267
-250
-203
-166
-163
-142
-63
16
45
83
157
214
249
295
323
307
274
220
134
58
23
-2
-27
-30
-21
-29
-40
-33
-24
-34
-47
-27
8
5
-17
11
60
62
30
9
-9
-25
-32
-32
-20
-20
-41
-38
-31
-54
-14
119
271
498
687
455
-81
-330
-236
-179
-214
-229
-247
-260
-248
-251
-254
-229
-224
-241
-227
-196
-177
-145
-82
-15
45
104
161
206
235
246
242
218
176
131
92
59
36
22
5
-12
-18
-19
-32
-48
-49
-40
-36
-39
-35
-4
43
61
32
-14
-36
-31
-35
-52
-46
-42
-55
-33
-21
-47
25
176
307
570
795
463
-155
-317
-132
-103
-157
-115
-85
-114
-141
-147
-129
-102
-96
-93
-74
-55
-39
-10
44
109
173
238
304
341
340
316
269
178
64
-20
-73
-129
-177
-200
-212
-213
-197
-186
-176
-148
-114
-58
45
143
276
569
915
1136
1361
1617
1529
936
222
-239
-439
-506
-518
-523
-544
-565
-570
-578
-605
-627
-646
-684
-731
-764
-792
-814
-796
-723
-603
-441
-234
-26
109
169
222
262
235
177
154
144
118
104
108
104
98
107
110
88
69
71
71
61
54
41
17
15
27
7
-13
10
10
-49
-82
-37
18
21
-5
11
82
130
109
77
65
39
2
-4
10
3
-13
-4
-5
-24
33
155
273
472
650
424
-81
-277
-115
-13
-45
-52
-37
-42
-43
-43
-45
-39
-33
-37
-35
-7
40
70
83
110
163
223
274
311
332
335
329
299
224
150
130
113
48
-5
-11
-17
-36
-37
-35
-51
-66
-71
-60
-32
-25
-51
-49
-6
2
-45
-94
-129
-159
-179
-190
-192
-190
-191
-185
-191
-214
-173
-78
7
159
282
71
-309
-386
-219
-154
-177
-156
-139
-149
-147
-142
-144
-138
-133
-130
-112
-83
-56
-25
22
80
143
198
237
266
287
286
251
189
119
54
2
-33
-51
-54
-52
-62
-70
-59
-48
-60
-73
-65
-44
-38
-52
-48
-6
26
15
-24
-68
-91
-82
-74
-90
-107
-106
-87
-81
-112
-101
8
125
257
425
337
-89
-346
-211
-61
-58
-42
-21
-44
-41
-10
-2
-5
-10
-13
2
22
32
52
79
109
165
241
305
366
424
434
387
332
282
214
134
67
25
5
-5
-19
-33
-31
-30
-43
-56
-72
-83
-67
-55
-73
-66
-8
36
37
13
-39
-85
-89
-81
-82
-82
-87
-77
-72
-118
-99
56
177
317
617
631
73
-392
-318
-152
-184
-230
-229
-232
-219
-212
-208
-176
-160
-187
-195
-168
-148
-127
-84
-46
-20
29
105
155
155
142
129
75
-35
