# session 217
105
120
287
-174
-811
-589
-4
192
-74
-368
152
83
-3059
-6226
-4219
162
602
-1610
-1769
-598
-141
453
-46
-3169
-4766
-2054
715
713
-365
-1510
-1850
-489
772
612
409
624
530
479
730
935
1271
1500
968
298
76
-125
320
1194
-15
-2173
-1607
-518
-1630
-1285
958
250
-2079
-1323
859
1211
617
686
1350
874
-2478
-6111
-5185
-550
2082
528
-1907
-1854
201
1625
1575
1282
1340
1331
1208
1167
1151
1115
1093
1110
1146
1134
1192
1394
1545
1787
2155
2070
2241
3470
2707
-2118
-6148
-6055
-5754
-6311
-4135
-1018
-802
-982
763
1428
301
487
1173
-611
-2407
-1183
32
-747
-612
728
894
536
882
1125
1071
1208
1271
1175
1177
1177
1109
1091
1092
1079
1079
1035
999
1035
984
893
983
951
749
928
970
484
900
1498
-271
-2007
-392
1273
390
180
1335
1050
133
652
554
-2638
-6510
-6339
-2025
1042
-218
-2103
-1040
784
807
301
455
535
348
305
261
146
206
343
348
384
528
585
650
769
658
665
934
570
336
1302
163
-4523
-6099
-1643
1546
463
285
1090
-777
-2472
-781
1000
607
237
671
795
792
1047
1180
1284
1607
1815
1787
1693
1347
856
723
715
548
561
476
272
762
645
-2021
-5585
-7349
-6506
-3402
-249
1083
1198
-241
-2643
-2344
-328
-1108
-2682
-1597
-794
-2066
-2005
386
2005
1706
1403
1733
1464
1162
1910
1412
-1093
-1112
1714
1274
-2286
-2308
1246
3173
3045
3004
2693
1816
1299
1179
1103
1065
932
909
1020
673
579
1219
-214
-4591
-6778
-3796
335
1754
767
-1137
-2630
-2622
-1114
694
1463
1233
1079
1211
1172
1041
1010
1010
1014
1010
1025
1106
1135
1105
1166
1104
871
1002
1191
747
766
1501
-23
-4401
-7225
-5684
-1549
1644
1226
-873
-857
-1184
-4331
-4457
279
2209
172
116
665
-1567
-2437
167
1758
1052
799
1124
932
778
899
832
708
715
682
622
607
536
425
369
309
260
325
388
362
399
464
498
622
582
334
606
709
-1743
-6069
-7360
-3707
206
968
1012
1291
-337
-1902
-459
1276
901
519
952
914
690
847
890
772
792
837
852
855
805
805
836
799
854
909
792
922
1087
746
1027
1667
-551
-4661
-5906
-5598
-6726
-5196
-218
1125
-874
267
2005
16
-1519
-670
-745
-728
1097
2019
1450
1607
2202
2269
2494
2961
2940
2411
1738
1124
764
714
741
647
539
551
545
427
369
389
338
290
220
19
4
88
-250
-217
424
-1041
-4950
-6189
-2659
647
302
-936
-221
701
-899
-3070
-1808
1609
3025
2718
2985
3236
2524
1706
1341
1169
1087
1029
912
847
863
846
739
613
588
542
346
291
291
-61
-41
546
-402
-3594
-6367
-6626
-5331
-5017
-6002
-4906
-1085
875
-193
-500
810
1153
-611
-2244
-492
2515
644
-4845
-5927
-1415
2224
2301
1709
2150
2610
2312
1733
1526
1605
1589
1505
1441
1329
1276
1305
1260
1236
1241
1069
1034
1172
831
766
1550
254
-4182
-6941
-6288
-6232
-5988
-1873
1697
-421
-3178
-1313
1501
1662
1158
1393
1418
1194
1192
1221
1218
1270
1238
1127
1064
1038
1022
999
921
849
830
797
784
847
951
1216
1545
1350
636
234
334
404
333
262
178
157
138
63
176
204
-134
-19
295
-810
-2196
-1396
216
325
-43
252
434
325
392
456
391
382
367
269
183
119
48
-3
-27
-41
-52
-60
-40
-17
-36
-38
26
33
-15
46
80
-14
87
169
-262
-511
-192
-220
-192
370
-704
-3243
-3100
-287
896
225
333
897
622
84
-37
52
139
189
192
196
207
194
184
191
192
209
237
218
199
243
285
307
346
351
432
494
-95
-619
613
1380
-1934
-5574
-3642
520
1035
-55
281
-650
-3441
-3122
319
-298
-5262
-6242
-1979
1176
1517
320
-2214
-2996
-278
1799
1248
871
1317
1229
995
1131
1162
1047
1114
1283
1319
1446
1820
1692
910
697
881
501
822
1315
-1704
-6105
-5190
-412
1623
904
102
-1661
-3637
-2716
217
1705
1506
1417
1650
1641
1571
1620
1619
1585
1563
1453
1321
1250
1149
1055
1022
936
909
966
782
714
1029
456
-1150
-1420
202
1276
880
663
1113
843
281
1022
1117
-1112
-2216
-983
-738
-1724
-2585
-2857
-1079
-175
-3686
-5491
-1482
1729
1301
530
-483
-1120
429
1711
1099
805
1183
1044
880
1016
964
873
934
945
943
1004
1030
1031
1095
1167
1115
1047
1157
1102
770
875
1016
-461
-3600
-6481
-6913
-4433
-2218
-2663
-2192
1262
1809
-3377
-6576
-2447
2414
957
-2977
-2445
1334
3150
2803
2943
3480
3208
2463
1837
1374
1146
1097
1026
945
913
871
784
700
677
603
430
415
409
87
74
357
-142
-217
860
-981
-6068
-7272
-3466
-736
-186
-991
-4013
-4839
-706
2151
1236
1103
1306
-1274
-3870
-2964
-137
1558
1643
1388
1418
1395
1249
1212
1222
1159
1083
1081
1132
1103
1054
1116
1077
964
1032
896
675
1057
959
191
1090
1355
-3178
-6511
-2421
916
-2675
-4297
369
2168
-1970
-3553
284
2429
-183
-2090
-269
1624
1363
939
1215
1211
991
991
986
965
1035
1027
973
1014
1029
1024
1098
1072
1010
1111
994
760
958
743
165
1004
711
-4126
-7583
-4098
-393
-1354
-1521
608
991
341
467
525
921
845
-1469
-2868
-683
1368
951
521
898
901
724
776
837
919
1045
1180
1260
988
537
454
597
613
633
631
539
599
606
445
633
690
206
636
1176
-1232
-4161
-2696
447
17
-1728
-453
1589
23
-4208
-7086
-6729
-3775
-233
1895
2037
441
-1819
-3135
-3478
-2964
-654
2009
2601
2233
2623
3050
3276
3861
3950
2920
1897
1464
1070
1059
1447
599
-1141
-972
936
1503
530
575
1355
30
-2223
-1344
1121
312
-2843
-3973
-1874
1132
818
-3597
-6679
-6265
-6136
-5597
-2011
185
-2070
-3489
-848
2066
2579
2210
2243
2283
2135
2106
2120
2005
1980
2005
1807
1736
1902
1651
1502
2108
1178
-3016
-7002
-6264
-1400
2556
2396
1256
2187
1625
-1071
-569
541
-2878
-4126
-59
216
-3296
-1769
2403
2687
1586
2105
2412
2087
2396
2786
2380
1786
1487
1295
1526
1726
1002
1127
2289
275
-3640
-3062
461
1931
1935
408
-2669
-3401
-1711
-320
500
-1298
-5217
-5429
-2312
-632
561
2245
2274
1482
1594
1763
1450
1306
1658
1506
-904
-4297
-4476
-1038
1727
1884
1465
1604
1679
1664
1669
1431
1363
1518
1227
1252
1998
800
-3463
-7026
-6661
-3520
-225
1934
2273
34
-2973
-2680
479
1806
982
1042
1352
794
1129
1368
-1187
-3494
-1651
1185
1285
535
802
930
529
583
964
764
645
1487
805
-3448
-7094
-6560
-5817
-6718
-4091
1164
1408
-1743
-1425
-778
-3487
-3229
1161
1061
-3689
-4818
-1766
686
1880
2536
2392
2132
2244
2347
2249
2131
2286
2231
1734
2178
2612
51
-2779
-1081
2372
3156
2577
2375
2154
1750
1279
1852
2642
-561
-5600
-4558
847
2675
1544
1521
1880
1762
1527
1314
2041
1842
-1548
-3107
398
1947
-912
-918
2267
2499
1355
2380
1865
-1515
-2309
452
2011
1510
1400
1672
1432
1198
1356
1450
1279
1360
1535
1065
1076
1942
123
-4538
-5962
-3451
-2110
-578
2825
1038
-5424
-5017
35
-1271
-3135
954
902
-4972
-5737
-2409
-820
1105
1214
-3437
-6594
-5957
-5374
-2797
2029
2252
-1902
-3295
-1897
-2136
-2969
-1132
2258
4027
3654
2755
2535
3059
3554
3474
3261
3168
2876
2708
2805
2440
2229
2918
1690
-3127
-6567
-5618
-5362
-6979
-4479
47
-738
-2657
201
1296
-3512
-6576
-3249
2070
4753
4264
2551
1064
-896
-3165
-3008
227
3041
3258
2648
2662
2670
2407
2290
2242
2057
1882
1845
1769
1617
1662
1722
1608
1885
2109
1569
1948
2615
-1047
-6598
-5465
512
2212
-63
-221
2076
2731
-914
-5492
-4455
774
2713
1145
1098
2284
1250
-1899
-4407
-4625
-3628
-3891
-5005
-3448
687
2961
2406
1967
2287
2305
2341
2604
2605
2545
2694
2611
2211
2075
2017
1400
1016
1426
699
-2614
-6961
-8888
-5503
-415
-1330
-5139
-2612
1133
-2656
-6111
-1710
2575
1670
886
1627
1151
814
1548
55
-4032
-5558
-2250
1493
2164
1552
1648
1815
1603
1509
1566
1524
1463
1544
1642
1612
1724
1996
2013
2193
2714
2056
485
678
1561
-334
-2928
-1959
869
1284
-1326
-5276
-8517
-8215
-3959
-52
843
999
518
-2271
-3708
-1044
1318
853
527
1184
1194
970
1327
1331
831
1180
1582
-33
-1714
-509
1373
1207
614
886
945
704
751
765
627
621
651
607
590
585
560
548
524
510
561
605
600
605
590
569
610
534
364
479
633
504
631
724
193
436
1087
-1284
-5577
-7225
-6812
-6059
-3043
883
1800
1012
1331
1697
1121
668
702
753
728
717
720
671
626
683
635
536
715
647
313
841
908
-1700
-4530
-4888
-4800
-4543
-1691
1618
2064
1372
1570
1727
1436
1348
1460
1323
961
1101
1383
-283
-4162
-7375
-7245
-3719
421
2031
1524
1348
1682
1597
1418
1456
1413
1305
1273
1249
1211
1192
1196
1180
1107
1112
1254
1364
1477
1618
1406
865
636
798
858
760
725
733
721
696
658
634
636
635
623
613
604
591
594
650
704
689
718
819
807
770
823
693
562
690
397
92
859
185
-4210
-7998
-7709
-7058
-7599
-5800
-1810
1504
2519
-945
-5837
-4207
1032
157
-4014
-4150
-3244
-3871
-2019
1672
2708
1878
1885
2216
2113
2157
2396
2307
1828
1405
1351
1436
1378
1284
1269
1238
1177
1152
1123
1077
1083
1055
977
1016
954
769
1033
1179
630
1042
1733
-973
-4607
-3114
1037
1907
725
659
1061
810
313
682
1251
-965
-5323
-7369
-6748
-5540
-2881
565
1720
1139
1166
1404
1143
996
1024
922
872
896
829
776
779
708
646
703
741
857
1236
1367
817
230
183
276
193
144
170
137
86
79
77
61
43
29
14
11
31
53
59
63
92
145
183
185
184
208
214
174
120
64
-25
-114
-124
-69
-34
-71
-138
-127
-90
-123
-66
11
-119
4
301
-142
-243
719
-1031
-6246
-7762
-3038
861
636
62
455
414
269
481
742
1040
1027
525
119
18
204
477
-629
-3559
-5316
-3488
-300
1014
713
582
791
778
669
693
750
760
767
812
881
936
969
974
945
913
894
861
799
734
700
702
708
691
664
655
660
660
671
698
698
700
782
885
976
1152
1343
1462
1716
2033
1898
1283
687
295
142
267
292
148
259
232
-70
279
368
-715
-381
553
-2886
-7021
-4546
-385
-1407
-3374
-2479
-976
711
1658
-1745
-7076
-6532
-376
1868
-1968
-2806
1333
1892
-1990
-3361
-2516
-3003
-2301
907
2789
2345
2091
2346
2211
2073
2122
2020
1902
1935
1962
1880
1835
1947
1886
1644
1802
1775
1191
1765
2132
-1781
-6616
-5960
-2808
-1576
-122
157
-3662
-6163
-4655
-4632
-5212
-1648
1416
-872
-3613
-2307
726
2444
2613
2335
2329
2367
2243
2206
2241
2149
2045
2077
2092
2013
2102
2229
2029
2027
2273
1841
1730
2616
1211
-2840
-3829
-326
2484
1677
-1231
-3353
-2473
788
2961
459
-5181
-6835
-3009
-501
-814
385
2153
1818
1156
1425
1571
1360
1296
1534
1398
734
920
1190
-465
-1407
706
2135
1071
560
1008
977
892
704
627
1299
478
-2251
-2388
462
1517
543
554
975
603
593
957
559
494
1327
-412
-5651
-8345
-5995
-4272
-4442
-2411
-1099
-4027
-4914
-640
2062
1000
671
1487
1218
898
1557
1322
-114
128
1432
-479
-3786
-2715
944
1885
1064
1208
1505
1293
1262
1400
1496
1595
1768
2120
2158
1591
1027
480
282
1234
666
-3551
-5701
-1503
2209
-173
-3328
-2331
314
1424
-343
-4638
-6506
-2362
2120
1045
-1533
-483
1599
1580
1099
1376
1438
1228
1247
1240
1117
1085
1072
1040
1057
1055
1036
1106
1209
1302
1523
1834
2082
2447
2825
2458
1439
808
475
126
532
69
-4140
-8343
-6360
-1628
-1245
-3647
-4379
-3671
-2205
-190
566
13
-80
218
213
336
664
839
976
1157
1208
1172
1185
1201
1161
1145
1167
1096
1030
1130
1130
980
1081
1126
874
1094
1239
507
898
1843
-900
-4349
-2162
431
-3780
-8418
-6083
-1646
-1295
-2749
-1855
683
1957
1599
1222
1245
1152
1135
1256
1196
1259
1392
1132
1354
1876
-76
-3596
-3296
915
3259
2281
1327
1437
1479
1371
1388
1372
1267
1202
1336
1367
917
814
1484
1055
-1899
-6003
-8135
-5678
-723
857
-1778
-3965
-3559
-1334
1516
2823
2228
1876
2140
1980
1733
1782
1736
1636
1674
1664
1539
1474
1521
1491
1353
1421
1555
1374
1391
1578
1054
1038
1946
84
-3807
-3241
-160
-2170
-6595
-7187
-6151
-6229
-6226
-6296
-5718
-2862
-548
-1016
-558
2455
3122
-437
-2505
158
3064
3019
2410
2689
2750
2536
2509
2497
2468
2344
2292
2558
2374
2054
2911
2569
-1067
-3128
-255
2732
2624
1830
1843
2400
2239
-599
-4682
-6899
-6572
-3171
1551
1916
-1960
-3871
-3222
-2446
20
3327
3790
3006
3702
3897
3171
3337
1679
-3521
-6248
-2856
1582
2961
1852
-885
-3120
-3117
-2985
-3098
-978
1843
2748
2552
732
-3190
-5536
-5185
-5007
-4886
-4591
-5656
-5086
-1222
650
347
2347
2732
-1279
-2058
2427
4785
3772
3618
4054
3488
3233
3709
3432
2956
3771
3465
-160
-2479
392
3801
3564
2691
3333
3225
2508
3400
3076
-1705
-5905
-5111
-4141
-5202
-4003
-2007
-2389
-1303
2012
3649
4320
3303
-1539
-3362
1141
2404
-2582
-6054
-5541
-3193
-266
404
-1722
-2960
-1380
1830
4291
4438
3927
4217
3920
3567
4467
3451
-1244
-5365
-6087
-4834
-3330
-2462
-776
2420
2049
-2614
-2785
2032
1906
-3196
-5654
-4867
-1686
3674
4484
-997
-2307
3399
5539
1070
-2219
-2178
-2219
-1536
1677
5164
5688
2438
-2304
-5510
-5849
-3178
197
986
291
-237
-1745
-1695
2051
4575
4256
4432
2887
-1615
-4162
-4753
-5081
-1414
3265
1075
-3157
-563
4833
5465
1972
-1667
-3423
-2792
180
4419
6085
2009
-3814
-5359
-4086
-3954
-4516
-5314
-5744
-2238
3762
5407
2525
-66
-1871
-3084
-1373
3048
6055
3325
-3289
-5224
-219
4297
5172
4041
-42
-3601
-719
4191
4620
3519
3785
3658
3620
3920
3240
3690
4475
354
-4579
-2841
-524
-4258
-7801
-6865
-4221
-531
2442
1332
-1928
-3768
-3059
264
3257
2993
2075
2839
2887
2141
3237
3227
-1657
-5714
-2406
3488
3745
-1557
-5641
-3420
1916
3351
1996
3021
2325
-3839
-6123
-682
247
-5790
-5741
1332
4244
2296
1890
2931
2109
-1510
-6518
-9001
-6251
-1889
-926
-2240
-3211
-4707
-5324
-1795
2994
4112
2845
2357
2392
2215
2187
2148
1923
1852
1808
1570
1495
1457
1143
1207
1366
657
711
1685
-678
-5465
-5536
-799
1983
784
