# session 236
363
485
479
351
556
772
129
-523
13
716
544
279
364
313
156
137
111
43
26
27
17
16
25
45
58
98
212
328
476
786
1112
1338
1638
1764
1251
427
-78
-252
-317
-342
-322
-260
-294
-396
-297
-302
-597
-400
-283
-1997
-4067
-3487
-1382
-490
-475
-242
-90
-91
11
43
-12
27
59
2
-10
20
-31
-76
71
338
474
321
-108
-550
-689
-576
-479
-381
-149
83
167
210
267
285
348
426
387
441
593
555
731
1087
764
809
1891
752
-3021
-4094
-1601
-62
44
608
743
141
-51
-34
-195
-197
-195
-318
-281
-177
-189
-172
-93
-51
-7
56
83
103
150
187
237
327
404
503
642
675
697
919
1084
1095
1218
1086
573
413
282
-82
448
434
-2196
-3705
-1342
-40
-1972
-2434
-557
227
-98
-20
10
-201
-176
-108
-139
-82
16
116
281
399
386
332
234
27
-207
-323
-300
-216
-133
-67
-23
9
49
94
131
174
224
247
251
265
281
304
321
249
174
248
263
130
219
290
-262
-777
-396
154
125
16
144
222
242
292
280
223
187
123
46
35
51
14
-4
71
112
48
34
112
118
30
-22
2
64
94
44
39
174
279
218
139
161
177
132
126
155
132
101
95
7
-231
-452
-275
241
286
-329
-655
-385
-217
-291
-253
-156
-148
-194
-284
-345
-295
-228
-220
-218
-200
-184
-145
-79
-3
85
169
225
300
411
443
353
289
280
185
44
1
-8
-73
-119
-111
-111
-146
-195
-220
-211
-201
-188
-130
-68
-64
-89
-89
-77
-87
-113
-91
2
108
239
441
587
667
1020
1680
1987
1477
564
-81
-301
-329
-338
-341
-324
-302
-292
-306
-325
-324
-322
-348
-365
-374
-432
-457
-377
-399
-497
-281
-67
-596
-1483
-1898
-1880
-1389
-270
582
505
259
352
378
261
242
268
278
316
317
267
260
285
259
230
277
350
370
363
371
374
335
328
393
376
331
464
453
230
433
611
268
825
1487
-955
-4062
-2671
409
-162
-2024
-1242
439
647
271
269
269
137
86
63
16
20
64
113
201
319
426
522
634
726
727
677
694
714
622
528
508
436
336
330
343
350
364
278
271
431
291
203
725
-204
-3904
-6170
-3832
-1162
-1682
-2242
-751
457
457
437
516
428
395
398
411
512
638
820
899
536
59
38
249
264
181
172
187
187
192
219
235
223
256
312
292
298
369
355
397
553
492
530
905
694
359
1081
490
-2629
-3474
-609
407
-1355
-1362
210
450
41
163
163
-6
77
132
63
111
201
211
211
212
191
208
241
218
183
189
212
231
214
200
313
453
506
696
898
569
-36
-139
110
119
34
130
154
62
104
42
-156
38
-86
-1553
-2668
-1592
-77
19
-230
31
159
98
154
160
138
155
49
-9
33
-133
-162
104
-356
-1367
-1197
-94
191
-169
-141
58
124
289
485
585
812
1221
1571
1824
1956
1574
746
176
-105
-316
-125
-55
-660
-743
-430
-1635
-3057
-2079
-317
-165
-614
-561
-561
-687
-625
-558
-541
-447
-336
-221
-48
124
247
326
339
307
285
276
266
250
240
250
265
266
283
310
308
309
346
378
365
291
244
339
401
303
325
371
142
184
463
-467
-2336
-2706
-1165
239
557
438
362
350
339
272
189
151
169
228
241
218
284
382
480
776
1008
633
1
-139
62
114
52
44
84
111
92
126
208
186
167
202
132
253
465
95
68
912
-92
-3185
-3607
-710
276
-1733
-2428
-564
861
567
101
161
109
-53
-4
63
67
175
324
379
451
721
1059
1263
1579
2140
2273
1513
536
68
-46
-106
-73
-35
-117
-136
-67
-132
-174
-128
-289
-318
-128
-506
-633
214
-552
-2991
-2808
-1014
-2057
-3311
-1171
973
654
213
452
317
121
218
217
160
207
215
195
244
267
214
182
190
166
144
193
242
226
189
168
184
250
286
264
269
253
202
260
267
143
292
346
-321
-527
339
160
-1363
-1444
19
554
184
188
224
-17
-117
-156
-218
-72
168
469
971
1122
476
-198
-197
31
39
14
54
47
42
85
111
124
147
145
141
183
244
297
324
381
543
616
523
626
725
415
485
865
-335
-2531
-2872
-1825
-1641
-1578
-591
20
-240
-344
-213
-251
-210
-131
-248
-226
-130
-269
-11
414
-505
-1835
-1245
179
307
-16
192
244
153
347
434
409
697
1041
1236
1499
1463
752
47
-38
93
46
2
43
21
-47
-58
-85
-196
-236
-121
-75
-223
-369
-395
-391
-357
-239
-97
8
95
155
180
207
226
197
161
179
254
392
573
741
985
1400
1773
1857
1642
1141
520
107
-139
-262
-13
120
-253
-64
380
-1073
-3103
-2282
-55
-21
-1542
-2294
-1962
-1045
-156
145
180
382
526
478
409
357
318
309
285
241
220
218
220
232
240
240
252
277
302
329
355
367
380
368
276
215
265
238
151
247
257
46
215
334
-1265
-4301
-5859
-4313
-1718
-683
-690
-29
796
676
190
61
32
-76
-83
27
176
321
394
400
435
498
508
500
533
541
529
542
485
421
557
789
970
1194
1201
654
104
179
382
234
206
302
65
112
517
-249
-1911
-2270
-1328
-542
33
477
401
226
332
376
320
390
482
487
479
481
458
401
328
285
262
196
112
99
140
154
112
63
84
82
-27
25
188
-5
-75
365
-50
-1372
-1371
-395
-647
-1133
-362
142
-439
-777
-546
-427
-424
-295
-101
81
360
777
886
379
-133
-114
77
117
140
156
126
162
218
181
159
244
307
303
338
352
314
359
334
188
415
615
-309
-1462
-1116
-8
344
169
6
-112
-106
-197
-290
-38
-380
-1653
-1868
-517
260
-18
-44
165
101
112
287
346
344
350
325
330
325
258
218
225
285
346
239
193
392
368
440
1115
696
-1460
-2338
-1094
-581
-955
-387
249
-19
-147
114
133
90
205
274
295
356
429
498
540
623
768
808
838
1014
999
871
1061
901
425
983
854
-2467
-5085
-2712
717
911
270
493
-603
-2835
-3239
-1386
274
605
773
1029
763
1209
2263
851
-2009
-1700
669
966
119
257
441
204
222
252
131
177
201
88
58
-28
-185
-194
-326
-500
-324
-478
-761
126
198
-2314
-3100
-335
573
-1217
-1167
-222
-931
-1096
-87
2
-338
-45
122
68
292
468
441
489
559
570
628
682
661
664
719
725
679
649
627
618
644
614
529
559
677
695
647
603
522
505
497
310
304
568
-8
-1708
-2772
-1977
-392
433
441
495
664
385
-91
-129
83
145
155
214
249
268
273
253
272
332
352
352
376
373
350
370
387
398
474
508
529
704
663
322
523
775
-846
-3905
-5705
-5302
-3673
-1547
143
205
-720
-793
8
400
345
512
847
1097
1323
1702
2265
2516
1944
964
332
103
-8
-39
-2
-5
-50
-96
-157
-173
-156
-270
-416
-384
-403
-515
-427
-471
-619
-115
47
-1225
-1736
-518
-517
-1858
-1400
196
369
-76
104
222
113
202
255
193
257
323
286
296
332
295
279
330
336
290
289
308
293
302
355
358
294
248
244
242
268
278
202
259
446
252
-9
324
112
-1368
-1904
-509
479
184
77
291
188
145
312
455
798
1110
725
17
-191
-31
31
11
13
27
50
31
29
128
134
40
134
123
-353
-558
-44
281
163
314
424
209
503
630
-854
-2493
-2455
-1781
-1274
-430
138
-54
-174
-44
-94
-116
13
36
7
87
177
180
152
185
284
337
273
189
186
227
242
254
278
260
228
272
303
262
366
640
899
1212
1364
834
64
-165
-166
-255
-178
-413
-1407
-2221
-1947
-1036
-375
-231
-285
-262
-212
-189
-132
-41
48
138
234
342
435
466
480
528
543
474
380
327
316
318
321
326
305
275
287
263
215
290
306
164
271
405
129
297
703
-779
-3402
-3866
-2223
-830
-127
194
69
-18
100
114
211
440
593
861
1008
612
375
688
613
72
-36
139
79
32
107
110
139
232
221
172
236
305
271
264
350
387
363
397
465
542
550
352
276
454
-58
-1507
-2437
-2064
-1250
-779
-680
-727
-712
-644
-604
-525
-390
-276
-166
5
221
389
438
415
405
403
384
389
402
372
377
435
380
295
410
536
619
1020
1343
913
276
36
-11
210
296
-537
-1201
-895
-1511
-3285
-3304
-1145
383
365
204
384
433
380
409
426
438
511
574
590
583
544
479
408
316
218
166
169
174
152
141
177
230
250
243
289
396
511
699
987
1244
1573
2033
1961
1018
217
57
-562
-2050
-3253
-3296
-2266
-944
-381
-598
-720
-606
-619
-666
-633
-640
-671
-646
-569
-445
-295
-131
72
272
394
432
422
388
354
328
313
318
331
316
296
307
284
247
308
321
209
284
347
50
161
534
-676
-2604
-2100
53
697
183
240
425
252
258
374
246
103
137
186
181
174
150
117
127
152
152
172
223
250
251
249
260
314
414
573
834
1051
900
286
-428
-820
-724
-101
365
-586
-2168
-1958
-364
188
-177
-98
109
30
58
152
128
168
263
286
315
397
470
513
487
394
350
386
375
294
249
250
223
178
166
170
163
173
187
153
154
203
88
19
308
12
-1753
-3359
-2725
-805
171
88
44
170
134
92
137
85
86
279
365
433
686
521
4
27
-112
-1122
-1314
-108
517
136
50
289
298
208
245
356
287
215
487
387
-3
756
814
-2437
-4788
-1924
1542
967
-800
-1272
-1666
-1739
-697
61
-136
-224
13
70
61
128
162
218
309
323
311
358
433
500
544
548
539
540
550
590
648
650
605
608
635
621
634
694
779
1002
1287
1282
836
184
30
689
596
-1522
-3360
-2440
-499
12
-239
-75
144
144
212
308
258
158
148
237
349
433
518
614
667
667
635
558
468
423
377
310
292
269
225
293
284
102
227
336
-122
138
669
-2017
-5993
-4827
-627
-366
-2003
-653
1099
618
209
705
787
713
973
1152
1318
1598
1515
1016
665
595
447
164
39
108
141
111
109
103
92
81
20
40
71
-200
-237
204
-791
-3748
-5223
-4118
-4181
-5344
-3217
413
275
-1703
-1591
-996
-897
387
1671
1343
909
1199
1244
1010
946
896
820
828
841
837
845
821
791
818
881
901
851
808
814
810
794
809
800
746
745
789
738
642
668
723
789
1109
1402
1029
297
75
172
-552
-2173
-2823
-1448
24
-32
-448
-265
-126
-178
-90
-53
-102
-18
96
125
170
250
328
450
583
615
628
751
769
626
663
662
388
518
702
103
344
1237
-998
-4074
-2083
322
-3314
-6073
-2180
706
-1695
-2936
-574
1064
817
612
636
503
540
620
502
422
431
432
522
625
674
869
1012
669
202
189
386
390
360
447
468
399
435
445
297
335
459
231
250
556
29
-113
1010
-283
-4011
-3855
-432
-438
-2487
-1700
-85
-224
-499
-244
-280
-351
-219
-137
-27
91
73
82
169
196
248
396
483
477
524
624
662
622
567
537
518
493
522
595
570
511
560
512
391
573
712
549
947
1384
-222
-2959
-3509
-1720
-198
124
92
146
144
57
21
74
114
115
127
169
238
290
295
337
434
487
509
576
632
618
578
541
493
425
325
243
257
262
154
121
154
5
-30
158
-7
18
783
411
-1464
-1960
-1120
-1366
-1527
-345
17
-847
-1006
-612
-643
-676
-472
-374
-305
-171
-129
-148
-137
-147
-181
-199
-230
-242
-161
-34
79
216
388
547
662
693
655
629
571
487
576
670
437
303
530
117
-1427
-2820
-2911
-1924
-600
364
615
515
527
579
525
474
476
479
500
533
529
511
513
493
440
428
482
517
517
583
681
656
574
558
532
524
535
378
323
521
312
32
541
446
-908
-1142
-499
-1638
-2868
-1655
-241
-413
-567
-211
-175
-177
63
179
218
346
410
385
373
378
410
444
435
453
519
569
626
638
582
679
776
549
371
305
46
246
-2
-3012
-5882
-3793
-235
-801
-2596
-1506
315
645
555
635
540
462
488
450
437
452
374
346
413
389
405
504
393
416
706
404
223
1129
397
-2668
-2774
798
1842
-167
-470
582
446
91
283
304
425
412
-908
-2841
-3289
-1848
-186
321
119
174
411
457
497
647
770
866
941
917
858
835
755
594
505
523
519
461
406
397
422
399
364
409
363
140
-10
15
278
651
151
-1637
-3211
-3174
-1853
-339
445
414
293
328
262
204
211
190
330
562
638
715
744
414
15
-1
217
269
153
287
461
96
79
757
-362
-3330
-3636
-605
927
-6
190
1102
-530
-2831
-2143
-754
-1573
-1935
-274
616
96
37
342
271
277
454
469
462
582
720
819
876
909
965
1080
1235
1352
1487
1811
2235
2481
2409
2005
1397
764
341
291
-380
-2655
-4131
-2151
301
-568
-2717
-3059
-2065
-813
173
287
-1
42
123
73
140
218
260
426
598
642
672
706
671
626
601
553
522
522
508
507
521
508
503
482
411
376
349
280
278
183
27
366
94
-2985
-6571
-5369
-813
570
-1217
-1654
-1197
-1574
-998
494
744
378
644
806
597
585
660
614
589
585
538
491
466
414
342
394
562
701
939
1242
1077
423
-43
-19
194
114
-164
139
329
-1194
-2502
-845
767
-1030
-2876
-1950
-991
-1057
-290
608
409
206
440
403
285
382
398
302
260
213
130
71
33
-6
-26
-24
2
59
115
181
297
382
472
743
1028
1263
1808
2225
1795
1061
285
-603
-272
321
-2009
-4525
-2445
322
-917
-2205
-921
-590
-1227
63
