# session 119
135
123
114
105
95
89
91
95
90
68
39
31
36
18
4
45
110
134
115
77
47
41
36
13
-4
-1
13
8
-34
-25
76
200
469
873
832
157
-368
-317
-173
-205
-219
-197
-209
-206
-198
-215
-210
-177
-156
-149
-144
-120
-73
-39
-14
48
125
164
184
212
208
155
96
51
-8
-81
-138
-175
-192
-183
-170
-175
-187
-191
-158
-92
-65
-97
-86
-7
35
6
-23
-28
-43
-63
-55
-37
-48
-54
-17
4
10
99
259
462
726
780
347
-195
-351
-280
-275
-280
-243
-234
-242
-236
-226
-212
-209
-219
-207
-180
-180
-190
-171
-141
-114
-66
-7
18
39
101
148
121
81
73
59
36
42
48
27
17
29
32
19
5
15
45
51
41
68
102
87
49
24
0
-27
-44
-36
-22
-39
-44
-20
-51
-77
22
164
345
604
588
131
-216
-147
-45
-91
-111
-93
-104
-107
-102
-122
-142
-129
-100
-86
-81
-57
-24
4
55
137
210
255
294
321
311
265
196
117
41
-19
-55
-76
-103
-131
-130
-120
-145
-181
-168
-121
-112
-136
-107
-29
4
-30
-78
-113
-133
-137
-130
-123
-126
-128
-131
-153
-122
10
135
283
499
421
-88
-422
-281
-129
-179
-188
-128
-118
-133
-132
-122
-90
-48
-27
-19
7
56
99
142
212
288
346
413
475
469
409
344
255
133
38
-9
-49
-84
-84
-73
-84
-101
-100
-77
-44
-32
-48
-42
11
65
78
68
67
85
128
194
272
392
554
657
751
1087
1587
1696
1136
323
-219
-411
-450
-456
-448
-450
-469
-487
-499
-518
-551
-584
-613
-641
-668
-702
-728
-721
-696
-649
-547
-403
-257
-125
-26
31
60
63
49
32
12
-16
-36
-40
-31
-23
-25
-26
-27
-45
-53
-29
-19
-37
-13
63
112
95
57
42
43
28
13
18
14
8
23
-5
-37
54
170
272
543
715
324
-237
-331
-167
-144
-167
-136
-133
-145
-133
-125
-117
-98
-79
-55
-26
-7
15
66
140
206
261
314
362
390
385
347
281
202
125
64
28
6
-19
-36
-35
-39
-46
-26
7
22
24
19
19
49
84
81
48
21
17
27
35
34
21
18
35
27
6
52
132
210
354
397
93
-270
-298
-165
-144
-154
-124
-117
-119
-100
-94
-100
-92
-74
-61
-54
-34
0
37
77
137
204
252
282
292
274
231
172
102
35
-13
-52
-87
-103
-90
-76
-97
-142
-166
-154
-130
-126
-137
-121
-77
-64
-95
-129
-149
-169
-189
-191
-169
-162
-167
-153
-174
-200
-107
25
147
418
569
156
-395
-445
-254
-257
-317
-275
-226
-221
-224
-214
-193
-178
-160
-123
-77
-37
-6
35
113
201
267
332
394
412
391
351
279
188
104
27
-22
-26
-20
-34
-49
-54
-55
-48
-37
-40
-48
-22
58
172
271
326
406
588
774
882
1077
1383
1424
977
331
-146
-362
-413
-425
-446
-459
-471
-496
-509
-512
-532
-571
-615
-659
-694
-724
-751
-753
-709
-615
-480
-326
-165
0
138
207
212
190
165
137
107
97
110
100
59
41
56
75
89
84
60
63
92
81
44
46
63
49
33
50
99
156
178
139
90
82
84
67
54
48
55
84
72
45
133
249
335
618
877
526
-116
-261
-65
-54
-126
-100
-96
-128
-120
-113
-124
-103
-78
-85
-83
-52
-29
-10
39
113
179
221
248
276
290
256
182
103
33
-33
-96
-139
-152
-150
-150
-158
-169
-164
-135
-105
-93
-87
-64
-29
-4
-9
-39
-68
-84
-101
-111
-95
-88
-103
-105
-117
-138
-80
21
119
295
372
64
-341
-391
-244
-222
-253
-226
-206
-210
-201
-188
-182
-168
-148
-128
-102
-69
-36
13
79
133
181
238
282
294
287
255
182
93
30
-2
-31
-53
-44
-31
-49
-58
-30
-20
-53
-57
-18
-8
-26
-2
45
52
31
19
12
7
10
20
23
16
22
26
-5
0
91
165
236
347
263
-85
-295
-198
-90
-93
-83
-56
-54
-43
-30
-37
-38
-18
7
26
36
51
81
119
165
219
267
311
368
398
362
292
219
147
106
90
46
-9
-25
-24
-38
-45
-55
-84
-86
-38
-8
-6
68
223
364
509
705
849
932
1099
1217
944
337
-182
-415
-471
-477
-498
-537
-554
-558
-583
-620
-653
-680
-703
-742
-799
-840
-856
-848
-810
-735
-606
-435
-265
-112
25
109
119
99
81
53
23
15
16
4
-11
-8
17
38
34
28
48
66
55
53
73
68
41
42
65
62
30
5
34
116
177
159
109
99
107
85
66
73
73
83
107
80
79
209
337
452
689
713
237
-195
-156
-40
-88
-89
-43
-64
-69
-29
-25
-45
-37
-15
2
20
48
85
131
189
254
312
359
394
401
373
321
247
153
59
-23
-87
-123
-147
-180
-202
-195
-181
-181
-166
-119
-92
-120
-124
-44
32
23
-29
-70
-96
-101
-87
-87
-110
-121
-97
-97
-121
-48
95
207
394
525
192
-343
-419
-174
-127
-209
-184
-139
-147
-156
-157
-149
-128
-114
-101
-75
-52
-33
15
84
150
225
315
367
360
324
266
167
53
-35
-95
-147
-180
-189
-194
-197
-187
-181
-188
-168
-114
-88
-92
-27
135
321
515
722
888
1052
1310
1537
1466
1016
364
-191
-455
-503
-519
-549
-559
-561
-571
-577
-592
-632
-680
-719
-756
-797
-832
-846
-833
-778
-659
-486
-307
-136
33
163
223
243
242
200
151
155
184
174
129
111
130
133
102
83
94
98
71
45
43
48
40
20
4
1
-7
-27
-8
74
147
144
105
94
99
84
71
82
80
70
81
50
11
97
203
282
550
744
347
-246
-335
-138
-118
-163
-122
-99
-109
-82
-46
-45
-47
-25
0
21
57
101
129
155
205
272
320
339
355
371
351
286
214
152
92
37
-3
-32
-50
-49
-48
-80
-122
-123
-89
-76
-96
-99
-57
-17
-34
-93
-120
-100
-95
-116
-117
-109
-110
-108
-135
-175
-137
-58
42
267
407
120
-300
-368
-233
-214
-230
-187
-167
-171
-147
-116
-107
-104
-88
-56
-26
-12
6
51
104
139
173
217
249
242
204
162
119
55
-12
-47
-68
-94
-104
-95
-96
-105
-107
-105
-97
-76
-65
-76
-64
-14
6
-33
-70
-76
-90
-112
-106
-102
-122
-111
-87
-118
-112
-3
103
235
399
269
-168
-373
-221
-124
-164
-144
-101
-114
-123
-105
-86
-62
-42
-43
-39
2
52
81
117
187
268
338
403
444
438
395
329
239
143
68
8
-50
-96
-102
-70
-54
-86
-114
-87
-35
-24
-34
27
192
357
438
540
742
906
1006
1236
1478
1300
671
53
-258
-359
-400
-417
-422
-431
-440
-448
-458
-487
-544
-593
-603
-629
-708
-765
-748
-726
-712
-610
-423
-268
-164
-43
77
117
85
53
41
23
0
-5
-7
-17
-17
-11
-14
-12
-4
-11
-24
-24
-26
-43
-62
-69
-65
-60
-77
-97
-62
24
73
50
17
13
6
-9
11
47
37
30
46
28
58
204
316
465
782
795
219
-264
-203
-59
-107
-123
-84
-105
-129
-111
-96
-88
-68
-54
-54
-39
7
58
84
116
199
300
356
375
390
383
337
279
219
144
54
-18
-30
-1
-14
-63
-67
-44
-53
-55
-25
-18
-32
-7
46
57
9
-36
-39
-35
-50
-61
-74
-93
-76
-73
-134
-118
13
114
284
546
436
-105
-414
-306
-219
-249
-222
-191
-197
-174
-151
-155
-132
-93
-82
-74
-50
-19
21
67
117
183
242
267
280
290
261
201
140
60
-23
-44
-33
-63
-94
-79
-66
-80
-90
-105
-119
-97
-71
-79
-74
-36
-16
-33
-66
-108
-137
-139
-133
-133
-134
-117
-97
-126
-153
-84
13
141
398
497
132
-291
-326
-210
-210
-219
-188
-184
-179
-152
-131
-121
-114
-98
-62
-19
11
40
84
137
189
239
286
322
329
305
263
213
150
83
29
-1
-21
-41
-56
-59
-61
-71
-85
-91
-76
-50
-50
-65
-37
19
24
-29
-68
-70
-71
-78
-73
-66
-45
31
111
147
226
367
496
685
843
583
-3
-310
-256
-231
-285
-266
-235
-255
-262
-241
-238
-255
-259
-251
-258
-271
-272
-267
-258
-234
-193
-131
-56
16
80
134
164
161
128
73
28
31
52
59
95
172
290
524
838
1067
1288
1654
1867
1524
772
105
-226
-313
-343
-399
-446
-461
-474
-498
-524
-556
-600
-651
-691
-701
-685
-673
-638
-510
-335
-201
-74
74
147
129
124
124
69
27
37
23
1
29
46
24
35
70
70
58
53
32
9
-1
-7
-8
-17
-44
-54
-35
-29
-41
-41
-36
-42
-50
-58
-72
-92
-103
-95
-87
-102
-105
-49
33
61
26
-12
-19
-22
-24
-16
-24
-34
-20
-47
-78
22
169
299
550
656
228
-295
-330
-150
-141
-167
-126
-121
-149
-143
-103
-78
-91
-95
-56
-13
16
57
97
122
172
256
325
365
395
390
344
297
243
163
93
48
-3
-44
-47
-49
-67
-62
-44
-46
-52
-41
-26
-19
-19
-13
9
22
0
-37
-65
-97
-129
-128
-109
-121
-133
-109
-109
-126
-54
76
192
325
318
-4
-317
-274
-104
-77
-90
-53
-39
-55
-60
-47
-35
-36
-37
-24
2
35
65
88
128
194
263
320
364
379
365
332
281
209
123
44
-10
-36
-46
-57
-70
-61
-45
-57
-80
-71
-46
-41
-53
-51
-25
2
-9
-56
-91
-101
-120
-147
-155
-169
-187
-174
-181
-227
-183
-64
25
190
361
156
-302
-449
-283
-207
-241
-226
-197
-195
-187
-176
-170
-158
-148
-135
-109
-85
-61
-14
43
90
152
243
322
350
340
316
276
206
110
21
-34
-69
-93
-93
-78
-73
-82
-89
-89
-80
-64
-58
-71
-66
-12
49
55
17
-11
-27
-48
-56
-42
-47
-66
-40
-21
-64
-29
133
262
380
496
307
-142
-324
-171
-70
-77
-58
-50
-64
-44
-18
-13
-16
-21
-8
14
8
10
68
135
171
234
331
389
397
391
362
289
188
81
-2
-38
-50
-71
-103
-124
-107
-73
-78
-109
-90
-35
-39
-87
-80
-16
25
17
-20
-58
-76
-88
-86
-63
-76
-113
-87
-61
-101
-57
78
179
392
637
421
-120
-315
-185
-158
-200
-168
-152
-167
-149
-128
-133
-143
-138
-108
-75
-68
-64
-33
10
53
101
142
183
230
239
192
130
60
-20
-64
-73
-94
-115
-103
-85
-85
-73
-52
-50
-45
-15
4
5
24
71
136
204
252
328
474
595
673
873
1150
1145
711
135
-264
-436
-492
-513
-516
-505
-496
-503
-527
-548
-557
-573
-610
-638
-639
-635
-634
-613
-563
-469
-315
-141
-7
87
162
207
210
175
134
118
110
88
70
61
54
66
85
67
39
46
59
55
66
86
75
53
52
61
65
60
52
59
88
113
108
77
50
47
52
50
41
26
36
66
50
39
127
230
307
430
397
40
-257
-185
-27
-19
-36
-13
-13
-23
-24
-25
-20
-10
-4
4
21
44
78
115
150
201
261
302
336
371
374
330
267
198
125
59
-1
-53
-77
-76
-80
-87
-81
-79
-91
-85
-51
7
92
179
301
545
810
948
1126
1444
1482
937
184
-297
-485
-555
-578
-586
-593
-590
-597
-628
-652
-676
-720
-753
-774
-818
-854
-846
-820
-765
-644
-482
-313
-137
8
88
125
127
92
57
32
7
6
22
7
-11
10
32
30
30
30
21
23
42
55
48
25
15
36
52
26
-23
-40
-3
25
-14
-42
33
128
128
87
93
83
11
-13
50
63
24
61
88
29
86
276
404
558
695
416
-100
-229
-48
-1
-41
-21
-31
-66
-52
-36
-45
-39
-28
-34
-45
-36
-3
44
94
158
241
322
375
396
396
377
329
252
175
108
38
-24
-51
-65
-94
-110
-95
-86
-108
-127
-112
-89
-91
-101
-72
-16
11
-10
-42
-62
-83
-108
-108
-88
-98
-120
-102
-123
-174
-85
67
154
378
618
349
-215
-374
-213
-185
-232
-201
-175
-183
-186
-183
-163
-150
-169
-177
-152
-124
-94
-55
-12
46
119
182
232
266
259
217
166
103
28
-30
-58
-70
-75
-85
-93
-76
-57
-67
-75
-54
-15
56
135
200
373
673
862
950
1175
1336
1043
452
-32
-314
-452
-484
-484
-497
-502
-504
-519
-531
-537
-560
-596
-620
-636
-649
-639
-593
-524
-431
-297
-132
15
114
200
272
272
208
165
143
105
76
70
64
58
54
45
40
44
50
65
75
61
45
48
54
46
39
46
52
30
-1
-2
21
32
20
21
70
124
121
89
75
62
61
103
125
71
40
103
134
70
64
164
269
418
545
332
-125
-296
-139
-48
-80
-68
-45
-55
-53
-43
-47
-39
-15
-1
1
2
22
63
91
107
154
216
250
271
288
272
217
158
106
47
-18
-71
-108
-134
-144
-143
-151
-169
-185
-195
-195
-180
-170
-182
-192
-176
-147
-134
-151
-188
-210
-206
-210
-217
-199
-193
-201
-183
-179
-191
-107
25
112
234
252
-80
-447
-415
-211
-184
-228
-206
-188
-192
-182
-169
-160
-144
-125
-108
-87
-53
2
76
152
219
287
365
444
495
495
441
350
241
135
55
4
-26
-38
-51
-68
-53
-18
-17
-21
11
42
63
139
260
398
604
856
1024
1157
1400
1585
1368
767
152
-212
-331
-348
-362
-364
-344
-351
-387
-406
-413
-446
-508
-565
-592
-623
-680
-714
-703
-657
-551
-399
-257
-121
22
127
163
160
141
107
73
62
64
44
17
11
18
23
29
33
35
43
44
34
32
28
14
7
0
-33
-55
-30
-16
-66
-103
-45
41
49
11
-4
