# session 112
-19
-74
-115
-157
-216
-277
-308
-299
-263
-206
-112
11
137
263
378
443
466
488
498
467
424
397
371
342
322
306
281
252
229
213
197
175
157
150
139
117
104
105
94
73
62
59
45
34
38
44
38
39
68
98
84
48
38
33
12
-4
-14
-30
-24
-15
-55
-58
41
152
284
435
303
-147
-392
-251
-119
-138
-134
-109
-118
-111
-92
-91
-80
-62
-57
-49
-28
-16
-7
13
43
79
128
182
234
279
305
312
308
282
228
167
109
45
-10
-34
-44
-68
-93
-98
-84
-64
-55
-52
-32
4
22
6
-35
-74
-94
-99
-103
-111
-113
-104
-119
-154
-120
-32
53
244
446
252
-238
-427
-283
-231
-300
-303
-269
-259
-254
-255
-257
-243
-226
-215
-201
-186
-173
-149
-100
-39
18
88
170
219
234
257
271
235
165
90
9
-67
-110
-117
-122
-141
-154
-154
-150
-138
-130
-139
-119
-53
-7
-15
-40
-63
-83
-94
-93
-95
-105
-97
-87
-122
-111
34
152
209
337
279
-151
-447
-322
-189
-223
-200
-138
-146
-153
-138
-141
-109
-42
-28
-57
-37
30
77
104
151
222
309
409
499
546
549
534
491
397
284
184
90
15
-14
-34
-78
-105
-88
-67
-65
-60
-42
-6
55
115
124
88
52
25
-3
-5
18
8
-6
28
21
-22
83
265
360
508
603
264
-209
-243
-54
-43
-81
-45
-40
-56
-48
-63
-84
-61
-32
-34
-31
-6
11
11
20
57
126
205
264
291
297
289
260
192
100
16
-50
-105
-141
-159
-180
-217
-249
-255
-233
-186
-118
4
199
378
512
730
997
1119
1092
919
465
-86
-377
-449
-506
-528
-505
-522
-567
-582
-578
-589
-623
-654
-687
-756
-823
-836
-840
-858
-824
-721
-609
-482
-307
-121
22
118
182
204
182
139
111
103
91
70
53
47
55
64
64
75
106
125
114
102
120
135
94
36
42
85
90
82
124
182
189
156
139
138
121
106
122
132
124
128
123
95
128
220
325
509
625
346
-124
-258
-105
-38
-68
-60
-48
-54
-44
-29
-20
-6
1
-3
3
27
52
66
78
107
155
205
236
255
285
315
318
299
258
176
97
67
55
27
6
-9
-36
-40
-6
23
31
33
38
61
94
75
5
-40
-44
-39
-36
-52
-83
-77
-66
-94
-82
-6
109
365
614
418
-95
-314
-203
-162
-219
-216
-199
-221
-230
-218
-214
-215
-209
-201
-192
-173
-150
-131
-103
-60
-18
25
77
121
139
144
136
94
25
-41
-98
-152
-186
-190
-190
-211
-231
-232
-220
-197
-180
-183
-169
-118
-94
-127
-146
-140
-170
-203
-178
-156
-174
-158
-137
-154
-84
80
199
352
502
266
-224
-366
-190
-140
-187
-154
-123
-134
-122
-106
-108
-97
-62
-31
-23
-2
56
106
130
179
258
331
394
448
474
486
489
442
333
213
135
95
50
-5
-36
-47
-61
-54
-6
72
149
223
416
789
1117
1271
1507
1824
1717
1018
234
-205
-346
-389
-426
-458
-470
-470
-475
-485
-510
-560
-609
-640
-675
-724
-763
-781
-787
-767
-691
-564
-420
-273
-120
14
93
112
100
80
62
41
18
6
5
-5
-16
-7
5
-3
-10
5
16
5
-8
-4
12
11
-16
-38
-33
-29
-54
-71
-28
42
62
38
13
-15
-42
-29
-17
-53
-53
14
-1
-57
44
180
275
574
820
444
-164
-272
-103
-105
-138
-90
-85
-100
-81
-76
-82
-70
-63
-59
-44
-30
-12
15
40
64
106
164
212
248
286
311
297
258
217
170
118
67
17
-20
-35
-47
-60
-50
-31
-32
-43
-37
-5
48
84
55
-10
-39
-35
-46
-65
-78
-90
-69
-51
-94
-80
49
174
373
616
457
-85
-342
-203
-125
-174
-172
-154
-151
-135
-141
-154
-136
-126
-137
-127
-104
-99
-91
-65
-46
-43
-22
33
97
150
189
204
185
131
61
7
-15
-28
-48
-59
-61
-77
-87
-62
-33
-44
-59
-18
40
44
15
4
-5
-25
-31
-32
-58
-87
-70
-45
-72
-73
9
94
218
392
313
-81
-322
-233
-142
-174
-188
-181
-192
-189
-180
-185
-180
-163
-145
-117
-84
-60
-38
0
53
107
154
204
256
294
309
305
281
236
181
118
59
24
12
-7
-34
-50
-67
-83
-60
-21
-8
50
191
338
511
737
885
1006
1286
1458
1106
424
-101
-346
-425
-415
-399
-433
-470
-467
-463
-494
-530
-540
-552
-592
-643
-684
-708
-723
-727
-691
-595
-455
-299
-145
-6
113
200
224
187
149
131
102
67
68
87
86
83
87
80
72
73
61
54
70
67
28
-8
-20
-1
18
-17
-52
5
99
131
114
86
64
62
67
68
68
67
87
95
64
119
281
409
607
856
661
28
-287
-125
-18
-71
-59
-31
-68
-89
-71
-74
-93
-89
-68
-49
-26
-10
-10
10
62
105
146
216
281
301
298
277
225
164
112
54
-23
-108
-171
-186
-178
-200
-248
-257
-215
-188
-207
-199
-118
-42
-42
-82
-113
-128
-138
-137
-123
-124
-122
-86
-92
-145
-72
89
154
281
485
317
-173
-360
-211
-156
-205
-195
-168
-159
-151
-158
-157
-133
-123
-123
-104
-71
-41
-14
15
57
111
167
217
261
300
320
295
220
134
71
19
-31
-68
-88
-91
-85
-86
-94
-89
-68
-51
-57
-62
-27
15
4
-33
-37
-39
-71
-83
-64
-73
-93
-58
-38
-76
-37
92
194
350
504
312
-109
-231
-73
-22
-73
-53
-7
-11
-32
-37
-21
4
18
12
6
21
50
65
69
103
167
211
239
286
323
321
311
288
220
135
68
19
-11
-33
-54
-56
-54
-77
-78
-29
29
83
141
244
461
668
729
854
1095
985
402
-110
-282
-338
-391
-396
-391
-399
-400
-410
-425
-425
-428
-459
-494
-518
-545
-577
-594
-590
-563
-498
-398
-290
-181
-61
37
77
75
58
21
-28
-61
-69
-72
-81
-87
-80
-71
-72
-76
-82
-94
-95
-74
-71
-87
-72
-51
-77
-107
-91
-65
-57
-43
-4
54
92
73
27
18
30
17
14
39
45
52
77
63
83
218
351
514
784
740
178
-243
-134
36
-4
-43
-26
-28
-20
-14
-39
-58
-51
-34
-18
-13
-12
6
41
95
170
237
287
339
393
434
445
408
342
278
205
126
63
-5
-60
-43
-20
-80
-130
-65
38
92
152
321
632
948
1128
1321
1609
1588
994
244
-208
-401
-486
-508
-522
-546
-542
-530
-541
-562
-589
-614
-639
-697
-762
-780
-792
-833
-828
-743
-636
-513
-341
-170
-58
16
72
77
43
16
-5
-23
-20
-5
0
-1
6
21
26
16
13
20
17
12
17
17
9
10
-2
-33
-43
-35
-59
-85
-40
47
90
70
32
7
-8
-6
24
31
-6
-13
-1
-22
31
169
281
533
875
698
6
-361
-218
-126
-196
-186
-138
-155
-173
-160
-153
-147
-119
-101
-104
-84
-49
-38
-6
70
121
150
223
310
347
361
375
363
317
249
175
113
64
19
-13
-34
-58
-77
-71
-37
-11
-15
-14
24
72
88
71
35
-3
-26
-38
-45
-49
-45
-26
-26
-75
-69
40
145
309
581
547
40
-337
-254
-136
-196
-205
-140
-141
-168
-151
-133
-142
-144
-117
-86
-79
-74
-41
-2
16
42
96
152
189
211
220
221
196
133
62
8
-34
-65
-85
-99
-103
-105
-108
-97
-65
-1
74
128
248
498
718
848
1043
1165
897
371
-48
-277
-387
-413
-404
-397
-394
-406
-424
-431
-438
-454
-476
-508
-539
-557
-573
-582
-564
-520
-446
-326
-186
-67
38
129
171
161
136
110
77
48
34
29
18
6
14
26
13
1
10
9
-10
-11
4
4
-5
-12
-23
-39
-42
-19
5
-6
-22
17
80
88
53
33
38
38
39
57
68
68
94
109
78
112
237
363
555
721
480
-40
-235
-74
3
-47
-50
-41
-66
-70
-63
-76
-79
-62
-50
-43
-30
-8
17
42
69
114
177
227
257
289
328
352
335
282
224
167
100
38
2
-22
-44
-61
-83
-103
-83
-49
-50
-56
-23
14
20
6
-22
-51
-78
-103
-94
-68
-89
-99
-70
-99
-117
13
180
359
563
408
-165
-467
-280
-153
-238
-249
-205
-232
-251
-244
-272
-278
-224
-187
-182
-157
-114
-77
-35
22
87
148
204
268
320
313
268
225
153
37
-57
-93
-114
-150
-178
-170
-145
-154
-180
-173
-160
-166
-138
-66
-21
-26
-50
-81
-112
-121
-108
-104
-137
-155
-101
-80
-138
-82
86
188
342
515
260
-273
-414
-224
-197
-267
-223
-192
-222
-196
-134
-115
-102
-58
-7
34
75
120
173
238
315
394
443
457
467
475
451
398
340
266
167
82
33
-2
-33
-44
-46
-53
-47
-19
-6
-29
-38
-2
46
74
80
54
6
-30
-41
-33
-34
-62
-59
-20
-49
-91
-2
112
225
509
671
279
-242
-288
-106
-111
-182
-156
-128
-144
-147
-137
-150
-164
-152
-148
-155
-127
-92
-100
-96
-48
-14
-5
51
155
217
203
167
131
68
-6
-56
-81
-87
-80
-84
-99
-102
-87
-58
-10
55
102
179
401
679
803
889
1113
1188
830
292
-109
-352
-460
-457
-453
-480
-482
-458
-457
-484
-507
-515
-541
-596
-624
-604
-597
-617
-591
-492
-367
-244
-116
6
111
191
222
203
161
113
79
60
37
16
7
-6
-12
7
22
19
31
55
56
53
70
82
80
74
57
43
62
82
62
50
91
129
113
78
66
57
38
38
56
52
52
84
82
64
137
243
339
519
585
242
-173
-196
-26
6
-24
-19
-26
-30
-20
-31
-47
-34
-18
-17
-11
8
24
40
72
114
147
178
224
272
298
296
280
254
206
133
62
7
-44
-90
-119
-139
-162
-178
-178
-159
-138
-141
-146
-106
-48
-51
-120
-170
-170
-173
-190
-186
-179
-173
-159
-189
-194
-46
106
167
314
360
-18
-418
-377
-201
-210
-241
-204
-173
-150
-145
-166
-155
-117
-99
-76
-35
-17
-9
39
108
156
210
286
351
405
445
422
338
251
171
84
4
-65
-120
-146
-134
-110
-118
-151
-148
-116
-100
-40
112
270
406
592
781
934
1189
1499
1471
933
252
-176
-347
-413
-424
-416
-423
-427
-429
-460
-499
-523
-556
-604
-652
-693
-731
-777
-814
-803
-749
-676
-557
-382
-195
-37
67
125
162
176
147
116
106
87
62
71
97
99
88
93
100
95
92
98
103
93
58
32
56
75
41
33
103
166
169
159
146
109
64
44
55
55
38
49
60
29
67
193
304
546
877
735
94
-283
-186
-99
-146
-143
-120
-140
-150
-134
-120
-119
-119
-103
-80
-65
-43
-13
17
64
126
173
215
268
305
311
302
272
215
149
69
-22
-79
-91
-104
-130
-148
-145
-119
-69
1
82
176
370
694
948
1036
1166
1287
1022
422
-65
-296
-422
-491
-498
-500
-523
-539
-541
-563
-600
-601
-596
-652
-725
-746
-756
-785
-776
-706
-601
-452
-267
-97
25
96
130
134
111
76
60
64
60
50
51
58
56
48
45
47
43
44
49
40
33
42
36
22
37
46
36
65
103
96
113
175
186
151
147
143
112
102
105
96
112
138
103
63
127
241
345
525
638
366
-86
-207
-50
19
-4
10
19
-3
-8
-1
-5
-8
0
10
18
26
40
66
96
123
160
211
248
264
275
279
264
230
185
131
64
-6
-61
-96
-122
-147
-167
-181
-179
-150
-112
-105
-116
-86
-39
-51
-107
-133
-132
-148
-165
-159
-159
-173
-169
-177
-207
-151
-23
66
206
347
130
-327
-460
-276
-209
-271
-255
-206
-211
-222
-209
-196
-195
-194
-184
-169
-149
-118
-74
-27
23
84
152
218
274
308
304
272
220
133
31
-38
-84
-133
-163
-161
-156
-165
-165
-145
-126
-132
-133
-88
-18
29
21
-25
-56
-58
-48
-14
7
-34
-34
35
23
15
170
311
424
674
661
108
-324
-219
-60
-107
-126
-92
-89
-64
-41
-60
-47
-8
1
16
63
94
99
116
169
256
337
383
410
443
466
451
390
306
218
129
57
18
13
25
18
-19
-25
32
90
126
183
301
538
865
1091
1226
1513
1827
1701
1046
275
-238
-437
-477
-498
-527
-562
-621
-682
-725
-777
-838
-884
-931
-993
-1042
-1077
-1104
-1085
-1012
-912
-764
-569
-388
-260
-164
-98
-69
-63
-61
-61
-64
-61
-49
-41
-41
-34
-21
-11
-8
-17
-23
-13
2
5
5
0
-15
-27
-17
2
0
-24
-11
64
126
122
102
101
87
63
65
78
73
82
95
56
63
194
300
394
640
707
254
-216
-200
-28
-48
-96
-62
-44
-54
-50
-43
-42
-24
0
3
1
20
45
72
116
162
192
233
291
320
315
314
306
253
182
124
64
3
-35
-46
-45
-56
-76
-63
-15
34
99
185
290
508
826
1026
1154
1450
1651
1287
545
-33
-300
-408
-456
-485
-510
-516
-504
-499
-510
-529
-554
-576
-586
-605
-653
-677
-636
-584
-549
-462
-306
-156
-45
34
73
88
93
65
17
-7
-1
7
-1
-15
-21
-24
-31
-44
-56
-56
-47
-49
-50
-39
-30
-33
-41
-49
-38
-3
19
12
26
77
112
94
65
59
58
43
45
56
39
31
45
18
9
107
218
335
509
439
-13
-336
-240
-95
-113
-121
-86
-94
-112
-98
-86
-100
-106
-74
-45
-55
-47
8
47
52
80
150
227
280
304
323
350
352
299
215
131
59
5
-44
-91
-113
-114
-123
-134
-110
-61
-40
-52
-38
24
68
46
-8
-45
-54
-45
-43
-65
-85
-76
-64
-69
-81
