# session 206
-1038
-6570
-4982
-1568
-1476
-1058
811
-596
-5228
-8564
-9639
-8402
-4542
-2548
-4746
-6060
-5326
-5601
-3993
894
3360
2514
2286
2162
2000
3276
2726
-269
-633
778
-209
-2316
-4089
-4494
-1079
2902
2855
1814
2513
2666
2243
2619
2593
2316
3011
2140
-2384
-6301
-4697
448
3592
3228
2620
3651
2837
-2923
-8199
-4947
2886
4042
-29
252
2112
-491
-1877
-20
-1855
-6347
-7813
-6497
-3259
57
-822
-4309
-4956
-1810
2466
4686
4156
3678
3972
3587
3626
3882
2757
3178
4587
473
-4858
-2349
1308
-983
-1356
2736
3600
1658
2012
2764
1665
1598
3008
1145
-3899
-4533
569
3644
2652
2393
2895
1689
858
2091
2868
2163
2229
2790
1849
1811
3428
507
-5938
-5465
226
43
-3699
-3787
-3859
-4623
-1010
876
-4872
-7935
-3571
-2206
-4392
-1449
3298
3349
2198
2757
2811
2330
2441
2431
2207
2248
2143
1916
1916
1590
971
951
1379
2037
2778
2243
1314
1911
1064
-1887
-1818
-1328
-5402
-6349
-1065
-861
-5979
-4842
892
2697
1693
1284
1801
2558
96
-4878
-4630
833
3188
1955
1930
2322
1893
2187
2096
1218
2094
2031
-3090
-6920
-2424
3369
1026
-5275
-6470
-3892
-3963
-4794
-1788
484
-3525
-8775
-7253
-330
2754
-1820
-5974
-2813
2500
3640
2747
2923
3169
2800
2593
2575
2425
2249
2184
2109
1890
1792
1807
1498
1444
1803
1260
1066
2633
1526
-3599
-5028
-486
2931
1912
-1996
-5614
-3221
2787
1281
-5682
-4764
2166
2526
-3247
-6163
-3984
183
3014
3118
2560
2788
2616
2446
2755
2065
1987
3457
934
-4754
-3422
2604
979
-4591
-3555
-1597
-4484
-3445
2279
889
-5668
-5172
734
3831
3639
487
-4302
-3984
1652
4700
4005
3827
3739
2676
2493
2886
2387
2206
2574
1952
1899
2995
1444
-918
1041
1927
-3091
-6298
-4270
-2441
-1200
613
968
100
-1363
-2364
-726
136
-3473
-6561
-4363
196
2988
3462
2922
2557
2831
2857
1965
2339
3434
-779
-7548
-5523
1426
486
-2600
1546
3785
-237
-200
1962
-2649
-5344
1686
6046
-82
-5352
-2115
2599
3036
2069
2255
2360
1971
1973
1970
1579
1602
1637
1006
1191
1777
463
-988
-1735
-4286
-4901
-1340
-1810
-5803
-3453
388
-2942
-5583
-530
4592
2194
-3538
-3685
300
-601
-4224
-2385
1539
2041
2108
3000
2646
2448
2841
2217
2355
3116
-453
-6609
-6166
1243
4401
-1639
-7302
-5377
-2949
-4579
-2939
1352
-1916
-8376
-5693
499
-1063
-4183
-421
4154
3982
3264
4132
3983
2901
2608
2758
2627
2493
2486
2346
2229
2309
2139
1935
2246
1986
1215
2112
2543
-1048
-3659
-196
2210
-2957
-8077
-5160
663
2701
2846
2434
-223
-1630
1050
3111
2222
1714
2044
1759
1580
1582
1419
1599
1372
954
1881
1309
-3128
-4944
15
3236
-1527
-7096
-6676
-3371
-1507
-1487
-2451
-2679
-810
2013
2800
-728
-5225
-3932
1566
3448
1777
1542
2225
1921
1742
1862
1652
1597
1524
1275
1511
1475
481
-155
263
1531
2351
-1033
-7285
-7681
-1319
2384
1094
760
1835
1197
946
2362
612
-4481
-5323
-1734
-2125
-6263
-5937
-1094
1828
1933
1755
1233
535
503
707
1838
2474
-1909
-6720
-2869
2761
-468
-4339
-800
652
-3920
-4100
1336
2634
-121
766
3222
274
-4253
-2617
1928
2776
1791
2106
2197
1896
2293
1702
-108
-262
1310
2033
1783
1759
1774
1621
1539
1426
1388
1441
1281
1320
1437
342
-1090
-521
1123
1441
716
216
256
747
988
754
947
1126
573
940
1674
-752
-3989
-2380
1380
1651
618
1342
1373
660
1860
1213
-4735
-8585
-4891
-256
281
-1704
-5197
-7010
-4379
-1769
-2001
-2174
-1819
-2140
-2971
-3709
-2185
1414
2873
1873
1680
2086
1785
1595
1709
1626
1613
1679
1643
1690
1696
1738
2029
1941
1729
2208
1903
1095
2481
2339
-2765
-4774
-1252
-2583
-6958
-3750
527
-2825
-5035
-700
2296
1524
1478
2093
1936
2098
2298
2031
2216
2141
1574
2382
2398
-1581
-4515
-1488
2461
2737
1832
1932
2747
2499
-1641
-7178
-7327
-2170
1485
368
-2673
-4117
-3808
-3103
-2116
-1146
-763
319
2681
3237
237
-1949
248
3073
2951
2189
2534
2718
2512
2464
2521
2560
2311
2269
2760
1914
-776
-3192
-5331
-7076
-5239
-350
2926
3120
829
-2744
-2805
2072
3974
-1242
-5049
-2309
-581
-3243
-3360
853
3729
2816
321
-874
-572
-806
-596
1817
3702
3191
2872
3819
3317
-317
-4383
-4718
-829
3400
3207
-1106
-2836
484
2881
2204
1868
1077
-1349
-2138
-689
-387
-3023
-6522
-6526
-3138
-1464
-1493
422
2261
1790
1584
1966
1502
1742
2230
433
-1210
398
2388
2017
1303
1896
2289
1305
301
432
1103
2134
2091
-1773
-6308
-5996
-4061
-5323
-5701
-1623
2451
2746
1078
-521
-1679
-1703
-1681
-3136
-2968
-208
-467
-3026
-1253
2414
2716
1980
1715
681
741
2214
2406
1753
1996
2166
1717
1847
2096
1446
1642
2680
367
-4014
-3327
1306
2811
1855
1882
1418
679
1442
1654
1136
1981
883
-4269
-7474
-5738
-3581
-3404
-4142
-4616
-2826
622
1999
1267
1234
1755
1695
1576
1617
1532
1481
1449
1363
1380
1343
1296
1534
1582
1519
2264
1840
-2376
-6194
-3803
1080
1871
842
1629
1224
-857
-617
745
961
1879
1244
-2935
-4825
-3843
-4934
-4334
-105
621
-1332
202
2176
1347
973
1658
1505
1246
1414
1257
1028
1109
1085
949
1004
939
762
1029
1044
476
1106
1809
-1089
-4587
-2688
1589
1979
423
1141
1953
-509
-4818
-8102
-8053
-3153
1945
659
-3176
-2937
-1767
-2421
-1353
758
669
140
732
981
886
1188
1334
1202
1249
1351
1318
1312
1378
1362
1321
1411
1435
1360
1606
1788
1211
810
1411
1790
1462
1443
1402
1045
1343
1260
401
1445
1604
-3894
-7093
-1311
1520
-4279
-5415
-351
-984
-4113
-1167
2280
1555
1222
2323
2492
2624
3299
3265
2571
1927
1350
972
1012
1065
752
731
1224
259
-3179
-5811
-4358
-678
1258
709
85
760
716
-1256
-2174
-621
642
872
808
-1541
-6029
-8175
-6239
-3637
-3389
-4175
-2985
43
2029
1607
862
2025
2552
-379
-2682
-1389
-599
-889
965
2623
2059
1831
1904
1689
2473
1468
-2563
-3324
760
2989
1884
1579
2192
1910
1612
1906
1727
1274
1785
1633
-2226
-7293
-7369
-3031
-633
-868
162
923
-1709
-3736
-1291
1671
1696
1156
1566
1701
1516
1620
1725
1660
1622
1659
1664
1600
1675
1747
1527
1629
1954
1427
1311
2337
1316
-1188
-875
-423
-2534
-1459
2203
185
-4075
-1993
2136
1862
382
177
-1226
-3335
-3595
-3048
-3886
-4930
-3375
385
2858
2890
2731
3210
3077
2374
1985
1737
1438
1420
1419
1216
1355
1460
953
1196
1867
-527
-5253
-7132
-5965
-5529
-5783
-4480
-1455
1433
1901
1188
2354
2501
-1429
-3894
-2090
-1503
-2242
445
4370
4101
-409
-3645
-1540
1099
-1054
-2745
430
3081
2534
2391
2972
2627
2352
2527
2362
2253
2254
1890
1955
2358
788
-3229
-6409
-5487
-1165
2411
3071
2915
3028
2581
2871
3372
680
-2787
-1962
1045
2300
1769
92
-1020
-729
-2249
-5838
-6863
-5083
-4906
-6374
-4441
1230
3321
-522
-3271
-2541
-2604
-2667
-66
3034
4787
3795
-1006
-3913
-917
819
-3018
-6260
-4787
-488
3607
4887
4101
3988
4115
3806
4053
3795
3166
4132
3612
-234
-1802
-733
-2029
-3361
-2777
-3017
-1734
618
-1452
-3425
-857
-677
-2623
516
4554
3993
3092
3907
3990
3774
3880
3499
2953
2464
2527
3411
1869
-3325
-6790
-6372
-6177
-5930
-2107
2821
4207
1706
-3004
-6859
-5140
1175
3746
-88
-3582
-3946
-3715
-2084
20
-602
-404
1586
-780
-3332
296
300
-5906
-4236
2330
-526
-4989
-783
1947
-2052
-4540
-3591
-1507
2263
4951
4357
3689
4164
3996
3630
3900
4058
3978
4182
4486
4346
3575
2621
2126
1966
1721
1685
1795
1402
1217
1810
907
-3170
-7817
-8824
-5185
-1697
-3323
-5630
-2048
1820
-1515
-5817
-3411
1129
2011
1347
1638
1880
1696
1703
1701
1513
1413
1375
1264
1215
1283
1278
1202
1269
1375
1382
1482
1505
1332
1554
1729
1178
1441
2218
621
-1057
584
642
-4421
-9075
-9312
-5933
-450
2471
-583
-5380
-6782
-4097
553
2956
2197
2455
3311
823
-1711
95
2516
2075
1212
1684
1962
1121
1022
2283
469
-5043
-5589
675
2790
-2816
-7743
-8594
-7414
-3418
1619
3084
2105
2153
2462
2029
2007
2326
1176
-2319
-5372
-4372
-2228
-3831
-5355
-1879
2016
1989
1202
1684
1782
1481
1642
1867
1958
2148
2354
2504
2703
2976
3143
2944
2392
1777
1394
1273
1165
1046
975
662
647
1531
677
-4306
-8791
-6862
-1274
1608
1385
948
967
942
837
928
1303
1251
326
-1357
-3751
-4772
-2009
1684
2285
1414
1629
1930
1672
1670
1798
1718
1707
1734
1655
1627
1643
1600
1570
1542
1493
1487
1368
1114
1088
1210
1173
1278
1378
1022
1205
1617
-1229
-6900
-8949
-5793
-2627
-964
225
-1057
-2931
-592
2601
1881
1366
2841
231
-5796
-6684
-1513
2686
2356
-804
-3638
-4508
-4631
-4106
-1081
2500
3101
2332
2725
2739
2169
3032
2599
-2287
-6704
-6567
-6092
-6460
-3470
1496
4382
4250
148
-4045
-1626
2021
-645
-2452
1092
1258
-3415
-4714
-1394
2442
4486
2781
-1260
-2302
536
3020
3365
3187
3357
3208
2782
3062
3236
1184
-2639
-5179
-3807
641
3507
3341
3914
4277
259
-4986
-7242
-6958
-2847
2443
1157
-2527
307
2854
-1586
-4083
71
3699
3466
1988
1530
2246
889
-2576
-1999
2507
4086
2764
2808
3371
2819
2670
3095
1974
78
1200
3629
765
-4528
-2708
2667
469
-6536
-7713
-2311
2792
2938
-429
-2198
-2116
-3927
-4891
-882
2586
-696
-6637
-7621
-2976
343
-2090
-4319
-700
3677
3852
3149
3874
3698
2476
2229
2389
1897
2247
2884
176
-4515
-6297
-6247
-6323
-3126
2141
3317
2197
3021
1752
-2676
-2802
1802
3498
2171
2690
3080
760
-39
2307
3064
1951
2620
2393
-1527
-3400
-9
2890
2273
1529
2179
2361
1433
1265
2284
1264
-2797
-6365
-7397
-5821
-2499
-1570
-3714
-2845
1551
3201
2029
2135
2587
1959
2125
2556
695
-2596
-4580
-3872
-785
2033
2473
1886
1043
-1224
-4363
-6446
-4910
716
3105
-2642
-6455
-1481
1671
-1596
-899
3857
2027
-3619
-2516
2718
3622
2370
3744
3616
-123
-1250
624
-407
-3163
-3927
-3278
-849
2555
3854
4105
3192
-1811
-5258
-852
4155
3582
3159
4002
-112
-5943
-5208
-1213
-1743
-3955
-1338
3226
3728
2514
3594
3275
-24
9
3235
2027
-2718
-4679
-3669
-1033
2661
4075
2989
3156
3474
96
-5310
-7208
-2773
3461
3220
-2628
-4422
-1113
-1203
-5380
-6003
-1785
2381
4531
3296
-2082
-4865
-465
2969
-571
-4741
-3999
-636
2081
3785
4091
650
-4648
-4622
300
2954
3659
4010
759
-1278
2672
2610
-4275
-5407
-1341
-1997
-2500
2208
4651
2929
2464
3030
2725
2428
2257
2552
2568
-739
-5057
-3995
880
2963
2140
1791
1956
1763
1520
1486
1535
1060
803
2235
1815
-3874
-7532
-2771
2238
774
-660
1531
2403
1271
1234
1529
1158
1330
1539
1137
1564
1709
-1383
-5183
-5516
-4785
-5519
-4351
-335
2548
2763
1155
-1476
-2667
-805
2287
3227
-608
-5962
-4768
1631
2194
-3665
-5611
-2812
-2202
-2386
695
3318
2369
1658
3326
3309
-175
-1952
627
2801
2111
1614
2150
2031
1646
1771
1664
1315
1489
1504
932
1315
1606
-1911
-6876
-6568
-1705
1008
-457
-2222
-997
699
-1876
-5761
-3611
1976
2529
-73
581
907
-2773
-3501
1437
3244
-1573
-5497
-3595
789
2977
2479
2017
2681
2451
1597
2684
2550
-2640
-5595
-292
3092
-2884
-7387
-3414
-670
-3753
-4138
502
3188
2535
2295
2502
2071
1991
2275
2128
1961
2079
2058
1939
1930
1795
1605
1633
1430
1062
1426
1520
506
983
2202
-1022
-5842
-4671
-552
-499
-2909
-3581
-1806
1022
2077
999
746
1318
1008
1305
1749
-1265
-5001
-2986
1685
756
-4244
-5288
-1318
2098
2366
1839
2085
1958
1561
2028
1901
1083
2299
2313
-2929
-5277
188
1600
-4787
-6225
-1976
-2412
-4462
-1092
2601
2175
1558
2475
2353
1496
2304
2783
-387
-3348
-1040
2642
2806
1862
2104
2263
2062
1926
2063
2459
1932
1561
2974
2121
-1786
-1955
-3
-2644
-5119
-3000
-1464
-1608
-842
-103
784
1296
-1551
-6230
-7804
-4492
159
616
-2541
-4281
-4019
-2478
1219
4365
4582
4167
4386
4406
3721
2309
2491
3682
-102
-5616
-3278
720
-3066
-5729
-1553
-765
-4355
-2887
1864
3169
2145
1186
893
1516
798
-651
401
-126
-4690
-4610
1286
2071
-2499
-3960
-3280
-3304
-633
3851
4931
3269
3372
4739
1874
-4757
-5827
133
2738
637
2047
4691
2055
-1150
381
3415
4241
1499
-3425
-4223
1209
5201
2739
-1634
-3555
-4088
-3650
-575
3351
4369
3290
3359
3931
3047
2912
4494
2074
-4968
-5759
1775
3587
-3539
-5889
-1657
-1909
-4436
-558
3837
785
-4794
-6670
-5151
-1547
2648
4691
3036
-830
-3431
-3910
-3992
-2400
1844
4572
3918
3348
3705
3200
2867
3317
1526
-3571
-7188
-4613
1273
3606
2312
2516
3103
128
-2676
-998
1904
2660
1322
-1161
-1348
1660
2013
-2221
-5156
-4394
-3678
-4679
-4352
-405
3446
1805
-3465
-5934
-4115
-776
2326
3536
2039
894
1092
-1695
-6131
-5446
-2445
-3258
-2881
1520
1289
-4443
-4683
1827
4137
-885
-4171
-695
3711
4115
3116
3272
3417
3061
2966
3010
2900
2696
2529
2571
2429
2075
2375
2477
1660
2197
2667
-1424
-5359
-2419
1355
339
208
2523
2334
1486
2815
1883
-2438
-5162
-5512
-5236
-2941
1052
3618
3220
82
-4022
-7098
-7729
-3198
3486
2519
-4255
-5358
-2590
-3064
-2190
2398
4074
2357
2106
2815
2649
2840
3060
2262
2555
3676
1179
-3021
-1938
2538
3596
2231
2378
3064
2596
2204
2786
2630
1645
2605
3072
-1244
-4065
-570
-172
-5361
-4309
2627
2893
-2638
-4111
-1098
2163
3253
-773
-6316
-4455
1505
608
-5045
-5981
-1821
2029
3122
2664
2600
2642
2236
2594
2742
1772
2825
3753
-1264
-5319
-1091
662
-5372
-6651
-2286
-3400
-5872
-1820
2208
2367
2843
890
-4764
-5035
1140
3745
1952
2250
3022
162
-3947
-5978
-4886
-910
2571
3166
2961
1601
-2985
-5905
-2590
1527
2132
2714
2642
-1569
-4372
-808
2752
1296
-874
290
2400
501
-4460
-5137
-403
2736
2152
1456
1841
2338
1612
-1454
-5264
-6764
-4566
-104
2844
2821
2546
2883
2191
1432
1547
855
259
1799
1912
-2448
-5553
-2472
879
-1488
-4553
-3297
-2737
-5457
-4303
1912
3277
-2291
-4338
161
2915
2317
2815
1287
-4130
-5357
-344
2545
1496
1518
2420
2163
2081
2024
796
338
1676
2214
1435
1699
2174
1292
1809
3029
-676
-6107
-5405
-1589
386
2123
1399
-3082
-3700
1012
3280
2033
1694
2736
3396
2179
-59
90
2164
2698
2137
2170
2338
2420
2089
1759
2820
2274
-2841
-6390
-2745
2732
3510
1569
2229
4172
1164
-3872
-2973
-806
-2768
-1640
2174
-688
-5291
-2084
3700
3253
-2821
-6768
-2654
3175
719
-4821
-2973
2504
3752
2705
2931
3315
3218
3421
3791
4022
4030
3559
2533
1388
880
724
210
474
1182
-534
-2641
-1551
-1298
-3987
-4370
-3574
-6097
-6875
-2544
305
-737
-1149
-508
-854
-961
-435
-923
-1106
111
-1539
-6937
-8554
-3959
-417
-1154
-2127
-1186
