# session 248
-299
-254
-171
-104
-83
-122
-241
-341
-306
-240
-259
-256
-156
-88
-119
-115
-47
-61
-95
-46
-87
-99
117
-19
-316
287
-82
-3722
-6301
-3019
1104
-147
-2851
-1776
412
458
18
529
799
418
572
997
2
-1512
-1036
516
748
313
482
647
497
516
642
665
653
655
714
765
753
817
873
817
878
834
512
653
713
-1183
-3758
-3633
-1605
-1046
-1533
-666
822
1109
754
768
777
543
489
601
588
529
583
656
649
599
547
508
500
504
494
501
513
472
449
487
437
342
410
506
583
853
956
613
386
25
-1368
-2784
-2493
-957
239
574
482
455
564
596
520
448
392
356
359
350
281
170
103
136
213
269
309
335
373
403
338
336
462
356
190
332
127
-215
403
288
-2020
-3297
-2057
-1733
-3004
-3223
-2217
-992
238
736
444
325
398
270
171
173
151
174
222
260
304
263
191
228
270
251
252
227
227
369
500
666
1058
1218
715
40
-195
29
133
-319
-380
375
-193
-2416
-2999
-1512
-781
-652
278
867
594
564
739
618
537
586
528
444
431
452
512
561
536
489
472
460
424
350
272
244
201
146
224
254
129
235
281
-81
166
572
-948
-2761
-2104
-1456
-2994
-3463
-1272
581
668
439
572
528
287
290
259
11
343
673
-664
-2103
-1025
821
896
539
1125
1413
772
207
211
366
366
288
284
316
272
256
305
231
182
281
138
80
553
44
-2114
-3096
-1501
37
61
-57
233
402
501
620
607
576
593
546
490
486
418
297
275
311
266
215
267
300
245
238
286
290
310
343
310
318
333
269
377
467
146
187
578
-558
-2707
-3202
-2758
-3101
-2469
-234
966
578
379
668
802
698
679
932
743
24
196
600
-823
-2204
-950
713
545
137
408
426
287
406
434
382
433
396
380
489
398
312
513
416
259
784
394
-1868
-2940
-1564
-971
-1669
-923
633
856
577
707
654
567
541
286
496
741
-525
-1804
-841
595
479
81
322
429
333
412
486
437
378
377
398
313
215
250
244
294
493
277
-27
417
139
-1910
-3187
-2640
-2496
-2409
-707
810
693
493
728
625
482
452
289
365
406
78
406
799
-876
-2808
-1664
644
937
407
607
756
658
757
806
781
798
728
824
918
546
600
1039
-423
-2935
-2299
771
1036
-1753
-2702
-607
1034
813
522
804
885
799
852
823
685
635
624
549
458
379
301
267
266
202
128
175
251
244
222
182
171
300
305
221
559
816
626
1041
876
-1986
-4022
-1880
-283
-2466
-4124
-3426
-2712
-1585
386
1087
536
522
808
590
440
628
428
125
650
725
-946
-1896
-319
1131
825
523
808
778
610
644
623
530
481
486
453
286
332
509
112
65
878
-790
-5371
-6164
-1597
430
-2218
-2868
-207
1123
659
708
1059
1032
1038
1077
944
835
810
751
667
631
640
615
594
643
666
749
1060
1142
598
65
86
225
169
174
280
305
273
267
250
196
183
74
-328
-348
445
260
-1961
-3337
-1755
273
567
336
477
443
384
523
370
104
123
-62
-181
366
38
-1777
-2194
-405
578
61
-70
202
94
41
176
145
136
223
141
93
233
184
175
519
142
-1216
-1551
-291
548
213
7
354
193
-752
-1132
-374
289
282
276
424
587
794
614
9
-263
-90
-5
-37
-7
3
-6
35
70
70
83
120
166
193
176
163
185
207
246
283
252
304
411
263
193
526
378
-594
-1393
-1667
-1442
-425
503
410
102
204
255
96
-84
-114
-67
-252
-177
304
-394
-2033
-1820
-12
545
54
175
426
248
216
364
354
313
339
305
226
247
302
172
87
253
159
24
662
736
-1233
-3223
-3279
-2409
-1200
415
1171
820
675
848
748
610
602
546
485
427
312
247
265
288
308
300
249
273
378
434
460
505
494
482
504
423
420
545
281
80
632
119
-2388
-3146
-433
899
-1713
-3665
-2161
-502
-600
-416
525
782
578
718
829
710
746
967
1128
1181
1225
1113
637
162
142
231
37
-129
-58
9
4
12
10
-12
-56
-60
-2
-124
-285
-122
-202
-674
-518
-373
-1302
-1603
-803
-1207
-2136
-1262
114
363
439
750
775
737
781
685
555
502
462
430
380
285
215
195
191
188
179
189
232
235
193
210
265
261
246
270
280
302
312
221
222
353
207
26
337
235
-1160
-2776
-3458
-3076
-1571
217
809
467
402
546
487
472
480
300
220
390
562
759
971
741
133
-120
74
179
128
153
187
153
184
247
166
115
247
177
19
278
264
-129
456
547
-1923
-3211
-871
-222
-2947
-3214
-637
-117
-831
194
1260
991
889
1159
990
756
733
614
497
517
509
484
505
451
366
433
530
437
311
311
329
403
469
292
282
530
196
7
745
-323
-3405
-3155
45
-518
-3895
-4152
-2410
-1696
-543
1164
1362
592
327
406
444
445
374
290
296
419
426
215
451
1222
1271
425
17
239
302
245
313
326
320
401
446
459
507
521
506
508
463
423
435
136
-503
-452
431
145
-1747
-2372
-734
545
409
326
618
644
565
576
507
408
379
366
319
215
103
59
35
3
30
90
105
136
241
299
330
539
740
769
1190
1818
1461
728
600
-864
-3658
-3376
-229
220
-1849
-2076
-1327
-1665
-1264
72
231
-262
-131
-83
-421
-538
-522
-605
-610
-544
-516
-493
-449
-345
-169
-25
68
177
259
283
312
331
313
319
323
284
283
287
207
185
222
143
171
273
30
55
542
-307
-2234
-2041
138
1012
478
450
708
604
575
666
615
558
562
561
562
503
434
471
518
630
949
1020
471
-98
-118
54
26
-53
-22
8
-19
31
62
-73
-15
180
-84
-126
417
-319
-1998
-1749
-798
-1837
-2515
-832
598
535
517
737
626
491
404
189
45
54
57
29
18
33
61
72
64
53
18
-42
-62
3
82
96
98
138
167
167
139
98
113
85
-4
112
179
-91
92
428
-810
-2372
-1751
-921
-1906
-1841
408
1560
808
375
603
614
525
520
463
418
408
372
366
391
395
387
381
380
366
292
209
206
255
304
320
341
480
573
465
527
643
315
336
804
-159
-1848
-1723
-1446
-2936
-3183
-902
620
398
263
421
376
382
398
347
220
-32
202
556
-728
-2586
-1962
145
663
118
199
409
254
213
336
408
410
372
437
591
703
923
1156
955
379
-72
31
525
209
-1239
-2108
-1859
-1870
-1961
-1061
-20
189
188
383
425
362
428
513
526
524
526
551
606
634
616
598
591
587
596
580
510
461
425
340
358
419
259
227
416
116
-9
727
27
-2438
-2533
-177
-185
-2670
-3683
-2436
-603
646
844
548
521
625
582
417
282
337
297
130
384
423
-620
-1194
14
1250
1056
390
125
134
236
278
249
254
239
253
273
148
210
334
-80
-84
581
-435
-2350
-1580
-156
-1676
-3021
-1374
360
628
883
1153
1018
1004
1052
878
738
674
534
415
362
287
207
163
131
104
97
96
58
-6
8
112
118
52
141
199
101
182
151
-203
89
471
-694
-1737
-1093
-1214
-2440
-2197
-1355
-1297
-476
778
796
517
674
366
-137
-96
63
36
56
88
72
129
197
190
190
222
232
221
214
218
230
252
307
344
306
313
424
452
450
559
460
190
233
263
166
520
154
-1861
-2732
-841
749
426
157
539
605
506
609
742
914
1108
1291
1665
1971
1613
756
124
-92
-187
-230
-138
-103
-198
-141
-85
-261
-140
-3
-563
-408
416
-1400
-4251
-3068
-591
-1453
-2418
-1555
-1983
-2541
-687
931
617
374
718
696
421
337
377
200
81
546
428
-1105
-1733
-237
872
497
275
525
496
418
508
537
568
692
850
1026
1159
1262
1362
1255
1024
1039
973
460
220
294
-590
-1946
-2059
-1783
-2272
-1796
81
945
568
490
373
164
510
-82
-1906
-2044
-287
400
-131
-172
47
10
109
264
238
223
284
384
460
418
449
537
402
407
594
297
215
799
106
-1707
-1973
-1593
-2145
-1166
1505
2317
1521
1540
1522
628
129
163
-28
-183
-82
-83
-182
-181
-148
-162
-209
-273
-315
-339
-396
-470
-508
-530
-581
-606
-526
-391
-264
-149
-92
-26
156
249
216
293
194
18
531
724
-696
-1628
-318
973
760
505
735
754
561
458
604
583
-189
-775
-128
746
874
668
303
-153
-178
83
93
-4
25
52
37
6
-11
19
-115
-303
-49
142
-254
-128
352
-675
-2037
-1679
-1311
-1714
-766
797
798
304
487
484
166
93
65
-54
-55
-19
-61
-76
-35
-12
-9
-4
2
49
129
149
104
95
134
156
151
115
68
43
-7
-42
31
34
-14
175
235
80
522
664
-1030
-2429
-1176
456
341
37
385
421
303
431
337
223
375
175
52
642
104
-2080
-2493
-294
980
462
333
698
616
489
552
493
470
552
486
410
396
204
159
362
99
-69
545
-100
-2201
-1979
83
-469
-2147
-1036
726
519
109
422
404
215
264
193
67
91
89
66
108
111
115
193
196
145
260
450
571
809
1020
663
1
-108
164
88
21
309
166
-71
598
62
-3133
-4408
-1108
1077
-899
-2064
-931
-1197
-1989
-642
713
454
400
925
957
811
917
928
802
723
681
659
624
523
447
489
548
519
537
611
533
488
625
580
577
870
732
743
1718
1259
-1037
-952
1113
356
-2271
-3239
-3227
-2780
-1071
379
370
192
355
302
291
287
-33
46
333
-587
-1745
-1126
82
70
-278
-134
-85
-139
34
187
247
362
437
472
557
568
480
429
381
346
422
407
297
476
510
-556
-2189
-2815
-2319
-1924
-1722
-782
380
612
462
556
420
453
821
87
-1240
-824
571
736
366
616
776
582
584
655
580
557
578
549
529
492
484
549
478
411
650
768
736
1167
1152
123
85
669
-1273
-4147
-4102
-2441
-1381
-195
703
431
190
459
429
250
285
267
176
161
158
177
247
286
294
341
402
425
441
459
415
348
346
239
-118
-344
-82
259
178
15
112
20
-145
260
51
-2015
-3555
-2140
107
601
282
423
582
529
544
536
444
426
449
423
408
391
304
279
385
448
587
982
1089
517
-53
-122
-58
-72
-75
-107
-143
-227
-335
-199
-169
-463
-170
164
-1025
-1929
-773
-393
-1768
-1549
175
467
-79
117
308
134
177
255
100
-62
-157
-227
-242
-238
-240
-216
-178
-145
-109
-85
-77
-57
-3
57
83
122
223
297
305
334
331
260
248
194
92
275
350
-220
-657
-549
-643
-629
124
798
851
714
541
286
75
264
680
-25
-1616
-1543
139
746
246
254
459
312
317
472
413
323
375
424
408
384
379
408
474
524
529
561
596
502
411
413
230
32
261
306
-827
-2705
-3362
-1685
-86
-1157
-2367
-857
775
405
29
330
245
157
202
37
314
300
-1382
-2630
-1251
494
506
163
362
423
401
553
733
1072
1279
769
104
109
372
308
195
251
214
158
316
305
144
459
304
-1373
-2386
-978
574
663
371
-197
-811
94
1098
-629
-2814
-1719
725
1151
526
565
673
465
426
483
408
344
319
270
257
255
209
228
291
236
211
285
176
154
420
211
-80
402
-299
-2607
-2535
-269
-560
-2123
-917
820
428
-59
417
556
269
407
770
-3
-1923
-2430
-707
531
186
-52
200
176
79
155
151
101
120
150
183
199
173
206
296
284
177
147
243
370
456
482
457
452
492
503
465
437
409
360
327
297
245
224
213
140
90
139
172
126
128
280
566
838
944
1030
1357
1667
1345
438
-237
-336
-356
-432
-316
-385
-614
-278
-364
-1992
-2701
-820
132
-1720
-2675
-1151
-131
-581
-799
-606
-669
-704
-564
-526
-518
-402
-278
-192
-130
-95
-29
86
158
166
185
207
201
227
288
294
276
307
293
255
369
427
212
210
535
489
273
258
-647
-2243
-2195
-625
46
-200
39
466
501
487
532
469
417
438
417
357
350
407
431
384
401
548
674
719
806
930
965
933
904
799
623
546
499
337
277
261
-12
-35
258
-473
-1960
-1821
-45
590
-689
-1613
-866
137
147
-114
1
58
-58
-67
-85
-197
-216
-162
-175
-186
-131
-102
-112
-86
-38
-4
39
104
171
213
229
259
254
184
254
400
253
179
428
-216
-1713
-1549
219
310
-1396
-2298
-2438
-2384
-1010
768
1087
901
1113
809
231
282
486
391
332
348
299
282
305
292
272
267
265
264
269
278
278
293
333
313
255
286
326
320
418
455
305
346
400
150
298
544
-297
-1066
-860
-1211
-1381
-113
-244
-2192
-1894
240
588
-106
41
208
10
52
127
34
5
7
-30
-18
27
44
34
39
78
115
156
243
367
582
839
822
365
-148
-103
304
112
-253
322
275
-1528
-2211
-1114
-1426
-2258
-735
946
621
263
647
600
399
566
643
564
609
693
723
735
740
730
667
562
509
490
405
283
221
201
154
124
149
128
96
148
97
-9
126
129
-119
188
364
-1276
-3397
-3219
-1311
-99
0
-107
-64
79
142
10
55
318
246
251
754
192
-1727
-2157
-468
511
92
-56
192
160
111
199
189
169
244
273
249
271
275
258
373
420
261
368
543
175
248
887
-120
-1891
-1321
-244
-1117
-1210
475
1012
420
509
700
505
478
472
423
458
314
377
664
-40
-1168
-728
498
597
212
319
367
214
227
191
41
33
35
-26
73
197
269
578
729
220
-218
-221
-397
-292
117
-874
-2500
-1901
-24
324
-195
-91
47
-120
-134
-122
-199
-152
-95
-135
-127
