# session 88
2
-41
-73
-95
-107
-118
-148
-189
-220
-251
-291
-341
-395
-434
-458
-487
-496
-432
-306
-164
-16
128
234
282
283
260
233
219
203
162
124
128
144
131
122
141
151
143
147
148
114
74
63
54
25
0
-9
-12
7
52
78
63
43
35
23
20
33
31
39
69
48
26
113
212
318
546
580
126
-310
-272
-110
-133
-169
-139
-135
-148
-149
-147
-139
-130
-120
-99
-84
-74
-38
6
32
79
157
215
238
246
229
186
136
69
-33
-126
-165
-185
-224
-251
-245
-241
-248
-227
-192
-186
-190
-157
-94
-62
-88
-128
-138
-139
-137
-110
-94
-113
-113
-91
-91
-46
73
157
233
327
192
-172
-331
-182
-71
-99
-101
-53
-20
-6
-3
-2
19
47
59
69
94
122
147
184
231
280
327
364
378
364
320
252
169
85
9
-47
-72
-76
-76
-81
-87
-91
-73
-28
-6
-32
-30
49
123
139
161
212
260
356
524
661
792
1061
1327
1217
680
76
-285
-389
-390
-397
-412
-417
-422
-428
-440
-480
-521
-535
-564
-628
-675
-706
-749
-755
-695
-612
-507
-355
-192
-63
27
73
81
85
68
9
-31
-19
-18
-50
-68
-59
-55
-55
-46
-44
-71
-77
-36
-12
-35
-20
63
118
102
83
91
69
17
27
77
63
40
71
50
37
177
335
478
717
693
156
-284
-201
-28
-70
-127
-87
-27
-20
-77
-93
-14
19
-40
-46
22
60
74
113
171
253
346
400
411
406
376
304
209
118
22
-91
-164
-160
-146
-173
-198
-194
-167
-121
-92
-90
-55
42
161
271
371
489
634
802
1036
1325
1447
1178
597
20
-309
-392
-389
-402
-421
-428
-437
-447
-458
-485
-524
-563
-604
-654
-707
-751
-773
-757
-694
-588
-446
-288
-135
3
98
118
90
74
63
31
6
13
24
20
18
31
46
52
47
41
46
46
20
3
13
3
-26
-9
57
108
120
111
104
87
50
36
55
47
37
65
44
14
126
251
341
639
855
435
-182
-269
-99
-126
-169
-104
-93
-120
-100
-85
-98
-98
-85
-73
-64
-62
-55
-25
31
101
169
221
257
292
308
279
212
139
71
5
-49
-82
-99
-108
-109
-104
-108
-116
-98
-69
-76
-90
-46
5
-19
-75
-93
-106
-140
-149
-135
-145
-136
-102
-131
-155
-59
60
185
390
368
-73
-420
-339
-193
-206
-217
-199
-209
-197
-164
-156
-147
-120
-90
-65
-38
10
77
127
157
211
289
351
381
379
347
293
222
130
45
-2
-16
-27
-39
-39
-32
-32
-29
-2
35
43
37
73
143
202
245
279
334
457
593
666
803
1096
1268
1018
475
-10
-241
-282
-297
-346
-368
-357
-374
-419
-441
-445
-476
-543
-595
-608
-631
-684
-714
-692
-637
-554
-438
-299
-153
-36
33
80
109
87
34
13
18
8
-7
-6
-2
2
21
31
11
-4
7
6
-13
-9
9
-6
-8
63
133
123
94
90
59
12
3
4
-8
13
22
-54
-59
121
270
343
549
592
111
-352
-273
-71
-113
-155
-99
-92
-105
-79
-71
-80
-62
-34
-17
-6
10
39
87
151
226
294
354
413
437
401
339
266
161
46
-35
-83
-123
-152
-154
-155
-178
-187
-150
-117
-132
-119
7
183
315
452
639
806
985
1290
1562
1475
964
284
-248
-478
-502
-507
-537
-532
-519
-550
-581
-575
-590
-649
-703
-745
-792
-817
-816
-815
-788
-675
-483
-274
-104
25
127
171
146
112
97
83
75
71
57
67
93
79
56
77
86
52
35
51
59
47
31
23
30
36
33
55
114
162
161
135
118
106
88
85
94
87
88
113
99
90
175
273
413
707
792
336
-158
-190
-55
-51
-64
-58
-85
-92
-80
-94
-99
-77
-75
-94
-83
-30
24
57
89
130
175
221
255
263
251
227
181
113
41
-16
-63
-102
-119
-113
-107
-107
-103
-93
-65
-34
-36
-46
-13
30
27
-8
-36
-59
-85
-95
-90
-96
-103
-86
-96
-130
-80
35
131
244
259
-39
-394
-397
-217
-188
-231
-205
-177
-185
-184
-171
-162
-152
-136
-116
-102
-95
-83
-62
-36
9
84
167
234
266
259
223
160
69
-19
-74
-113
-145
-146
-135
-157
-184
-177
-155
-131
-93
-73
-77
-50
13
46
27
0
-6
-7
-10
2
12
19
42
32
18
133
278
375
637
843
445
-204
-339
-135
-102
-155
-114
-76
-84
-91
-90
-79
-51
-18
2
8
19
53
109
169
216
270
359
437
444
404
361
302
202
82
6
-16
-47
-94
-101
-93
-125
-141
-87
-26
2
50
151
336
630
893
1002
1155
1454
1518
1057
366
-149
-407
-501
-526
-545
-562
-569
-588
-625
-668
-707
-742
-770
-796
-834
-882
-906
-888
-831
-724
-561
-375
-206
-73
23
69
59
29
23
25
3
-32
-48
-22
23
35
4
-24
-14
13
14
0
16
44
39
22
8
-16
-8
39
39
-2
30
120
158
128
91
73
56
33
25
27
27
40
27
-7
55
177
273
502
735
482
-79
-265
-99
-33
-67
-47
-33
-57
-63
-40
-7
7
-1
7
42
70
94
136
183
225
284
349
387
399
392
357
303
243
170
90
30
-9
-40
-63
-71
-63
-57
-63
-52
-11
10
7
44
115
165
197
229
287
418
565
654
787
1008
1057
734
236
-135
-305
-361
-380
-394
-405
-407
-402
-405
-426
-452
-473
-494
-524
-539
-539
-556
-577
-543
-462
-377
-282
-162
-56
4
30
35
18
-19
-55
-67
-64
-71
-94
-107
-97
-91
-109
-123
-119
-120
-134
-139
-128
-106
-81
-67
-48
-1
49
62
45
23
6
0
10
26
17
13
45
41
13
88
206
315
570
731
341
-236
-333
-143
-124
-176
-137
-113
-143
-155
-142
-130
-122
-112
-94
-74
-58
-31
6
48
103
171
238
296
337
348
330
280
181
61
-26
-77
-114
-142
-155
-142
-125
-141
-152
-121
-102
-105
-56
42
120
178
252
346
482
668
829
955
1194
1495
1441
851
153
-224
-314
-326
-349
-375
-386
-385
-395
-425
-472
-514
-546
-594
-659
-721
-774
-786
-745
-693
-631
-476
-219
48
325
693
1068
1344
1684
2118
2173
1513
504
-254
-533
-510
-449
-445
-457
-473
-507
-551
-597
-650
-688
-700
-730
-758
-686
-504
-314
-183
-102
-28
48
76
55
50
66
56
40
43
48
63
82
71
50
61
76
68
55
53
58
67
76
75
70
81
90
78
73
79
66
41
36
34
18
12
25
28
17
10
5
-6
-20
-28
-28
-30
-42
-51
-40
-25
-27
-39
-46
-45
-40
-33
-35
-46
-26
46
103
87
43
19
7
8
14
-1
-4
20
-5
-16
99
224
349
635
728
229
-313
-310
-140
-181
-211
-154
-156
-173
-160
-170
-157
-96
-79
-104
-86
-39
-6
32
80
117
162
229
283
303
303
291
246
167
91
40
-11
-75
-127
-147
-145
-137
-132
-141
-139
-95
-30
-7
-20
-10
26
31
-4
-38
-55
-71
-76
-63
-60
-69
-63
-63
-76
-33
68
180
290
239
-94
-387
-340
-171
-120
-113
-96
-104
-96
-68
-62
-66
-51
-29
-25
-32
-4
56
96
122
185
259
296
323
363
369
313
233
160
83
5
-47
-65
-68
-67
-60
-59
-65
-52
-14
-2
-22
-12
30
46
28
7
-19
-41
-36
-13
-7
-16
-3
4
-36
-30
69
158
276
430
302
-134
-373
-272
-186
-206
-189
-162
-160
-142
-127
-134
-142
-153
-157
-139
-112
-86
-63
-55
-33
39
130
196
238
264
259
206
113
18
-51
-99
-131
-150
-161
-170
-179
-182
-168
-138
-118
-112
-81
-1
96
170
238
333
475
660
819
942
1166
1439
1344
702
-30
-390
-446
-451
-465
-465
-470
-482
-488
-500
-531
-566
-600
-648
-701
-739
-766
-795
-810
-764
-642
-482
-319
-151
14
123
144
131
139
144
125
105
89
84
103
119
115
118
128
129
132
130
104
90
118
135
99
71
112
183
205
173
138
114
90
86
97
94
106
135
105
99
227
358
512
850
949
394
-191
-191
-16
-59
-98
-42
-42
-79
-73
-53
-43
-34
-23
-10
6
23
49
96
148
189
242
310
344
324
287
258
219
144
41
-49
-99
-123
-136
-151
-173
-184
-162
-130
-106
-90
-89
-74
-15
16
-43
-112
-141
-173
-200
-192
-182
-158
-110
-128
-161
-55
80
167
413
600
249
-287
-366
-195
-187
-220
-169
-151
-178
-177
-164
-156
-143
-128
-115
-96
-73
-47
-3
57
110
148
193
251
278
249
187
113
18
-86
-157
-180
-193
-219
-232
-219
-211
-220
-216
-187
-165
-177
-166
-90
-36
-74
-125
-121
-116
-131
-118
-95
-95
-78
-59
-74
-14
130
203
296
461
318
-137
-308
-118
-37
-100
-82
-36
-46
-56
-48
-31
-4
13
21
43
77
116
162
210
263
319
362
386
397
393
368
307
211
120
66
29
-9
-35
-41
-41
-48
-62
-57
-31
-20
-32
-19
33
60
31
-7
-19
-33
-53
-50
-47
-59
-46
-39
-70
-26
95
180
335
533
372
-103
-311
-190
-128
-160
-141
-112
-105
-93
-92
-96
-84
-70
-54
-29
-12
13
64
102
122
187
279
325
335
343
316
238
140
45
-34
-75
-89
-110
-140
-152
-156
-167
-161
-143
-159
-192
-182
-143
-121
-120
-144
-180
-190
-184
-190
-193
-189
-172
-150
-153
-106
48
153
215
354
272
-183
-472
-333
-191
-220
-211
-168
-171
-171
-148
-121
-102
-108
-105
-57
-20
-16
26
105
163
231
331
401
419
424
397
306
192
93
14
-49
-92
-106
-106
-127
-161
-170
-148
-128
-133
-134
-90
-17
41
64
62
96
190
295
424
595
725
882
1224
1499
1276
639
41
-278
-375
-393
-406
-408
-401
-400
-397
-409
-450
-475
-477
-508
-563
-597
-623
-659
-668
-625
-548
-435
-276
-110
23
125
177
164
135
122
91
49
36
37
32
34
32
18
21
36
26
9
29
59
52
46
107
187
187
133
113
115
93
82
95
93
103
124
90
92
209
304
457
804
870
330
-172
-163
-47
-78
-74
-35
-47
-53
-41
-37
-36
-58
-76
-45
-16
-16
17
74
101
127
193
265
300
306
294
251
177
94
2
-88
-139
-159
-183
-200
-191
-189
-193
-161
-115
-110
-119
-88
-44
-40
-67
-86
-93
-105
-115
-109
-106
-111
-94
-91
-121
-83
42
137
211
235
13
-333
-411
-257
-189
-213
-196
-175
-187
-195
-190
-185
-177
-168
-154
-121
-79
-53
-29
26
105
162
192
219
230
207
170
126
57
-22
-81
-112
-117
-103
-85
-76
-77
-78
-67
-46
-34
-41
-47
-26
7
6
-27
-52
-61
-70
-58
-27
-13
0
34
27
12
108
235
311
444
481
148
-230
-214
-29
-12
-52
-31
-26
-47
-49
-38
-29
-24
-22
-5
34
64
75
100
156
215
262
318
371
384
360
330
277
177
74
19
-5
-33
-53
-55
-60
-80
-91
-69
-46
-62
-77
-19
90
159
176
215
290
377
526
739
922
1132
1464
1629
1232
448
-165
-394
-437
-461
-474
-477
-488
-508
-534
-566
-608
-660
-708
-757
-823
-879
-901
-909
-890
-803
-673
-539
-384
-217
-91
-26
0
3
-29
-80
-102
-88
-87
-98
-83
-56
-45
-35
-20
-19
-27
-28
-13
20
38
13
18
106
151
53
-70
-81
-37
-20
1
27
19
30
66
40
60
227
344
453
751
792
231
-245
-161
-1
-44
-53
-5
1
7
5
-25
-11
42
57
40
45
72
100
138
185
226
273
338
394
415
391
322
225
124
31
-43
-88
-117
-131
-119
-106
-113
-102
-61
-38
-33
12
85
148
212
275
335
456
640
801
972
1259
1511
1364
750
62
-323
-430
-458
-487
-497
-490
-490
-507
-529
-544
-565
-611
-662
-695
-722
-747
-743
-702
-625
-504
-365
-240
-110
14
77
89
92
67
27
25
27
-8
-20
1
-4
-19
-4
13
16
19
22
13
-3
-17
-10
21
37
27
34
59
56
21
-15
-35
-40
-32
-28
-31
-13
4
-28
-20
95
187
254
405
398
31
-283
-210
-50
-50
-74
-52
-44
-42
-37
-41
-33
-8
7
14
32
56
83
119
165
212
265
323
366
380
364
321
254
176
101
26
-48
-97
-108
-104
-113
-135
-146
-117
-67
-53
-62
-7
122
238
332
480
669
829
1012
1267
1398
1148
559
-24
-331
-411
-452
-503
-516
-511
-526
-539
-544
-571
-623
-672
-714
-762
-808
-822
-797
-750
-674
-554
-398
-212
-26
91
122
133
139
109
67
51
45
20
-8
-9
7
4
-7
0
6
0
-1
-4
-18
-18
3
7
-21
-34
19
112
166
139
87
85
103
82
58
73
91
114
121
60
66
241
391
511
739
690
133
-273
-153
-5
-71
-88
-34
-38
-58
-61
-71
-66
-43
-31
-23
-4
19
44
77
138
223
288
329
376
394
349
281
210
101
-18
-94
-147
-207
-243
-244
-248
-259
-253
-221
-187
-162
-133
-69
45
171
266
365
517
679
810
1006
1273
1311
882
229
-226
-398
-452
-473
-470
-469
-474
-472
-485
-526
-561
-575
-602
-662
-722
-756
-781
-809
-790
-684
-524
-353
-179
-15
108
188
230
264
403
625
748
905
1327
1567
1082
297
-94
-166
-234
-280
-274
-283
-305
-332
-358
-330
-291
-347
-445
-442
-377
-376
-403
-344
-215
-87
42
160
218
224
220
208
184
169
161
145
138
144
137
112
99
106
116
111
96
85
81
68
52
55
61
48
32
33
35
31
40
51
36
17
22
29
20
18
20
12
12
20
18
14
13
-4
