# session 222
-26
22
18
52
178
328
465
577
641
656
636
581
535
529
537
524
460
398
430
411
244
198
268
233
360
504
-43
-676
-295
350
253
16
152
255
215
211
194
157
155
141
112
101
114
130
85
29
106
213
311
608
823
451
-102
-194
-83
-147
-176
-85
-109
-190
-122
-80
-189
-165
-85
-200
-85
91
-319
-181
676
-707
-3654
-3203
-13
955
45
88
422
158
105
253
169
116
165
156
159
151
79
92
212
291
325
371
386
333
271
278
279
205
204
245
176
243
253
-247
-92
1036
71
-3172
-3680
-706
923
316
212
602
463
366
511
489
434
485
504
472
483
557
541
471
638
748
498
664
1118
74
-2559
-4659
-4726
-2566
385
1672
1207
951
1188
1124
999
1060
1039
995
1037
1028
994
1034
1069
1041
1014
1002
960
908
887
861
825
838
850
803
782
786
797
956
1117
1056
903
525
185
824
897
-2271
-6302
-7034
-5647
-4201
-1667
181
-2064
-5650
-6172
-5567
-6102
-4611
-253
2366
2147
2237
2025
-658
-3327
-3227
-2346
-2929
-3123
-746
2258
3033
2388
2284
2452
2265
2132
2161
2091
2012
2013
2012
1983
1916
1793
1675
1599
1546
1505
1459
1410
1372
1290
1194
1179
1178
1240
1467
1477
1136
832
457
358
1136
498
-3544
-7195
-7141
-6470
-6730
-4552
-293
1721
1293
1142
1420
1278
1155
1260
1247
1180
1191
1164
1100
1062
1002
892
781
703
647
586
516
465
443
406
341
307
332
360
356
403
625
911
1034
1135
1473
1795
1679
958
-50
-382
-95
-505
-899
-295
-1369
-4355
-4227
-897
327
-654
-683
-326
-626
-706
-561
-648
-626
-451
-366
-249
-85
-42
-47
6
39
-4
-65
-90
-85
-93
-112
-118
-116
-113
-114
-141
-161
-137
-134
-186
-196
-155
-164
-192
-166
-156
-193
-192
-134
-73
-39
-53
-93
-91
-61
-64
-77
-53
-38
-61
-48
9
54
168
377
497
554
440
-419
-1519
-1320
-124
345
84
83
216
170
176
225
192
188
227
227
228
260
290
319
361
403
431
449
456
444
421
397
362
306
264
262
276
276
266
267
296
340
358
344
354
412
462
458
429
409
395
394
402
393
387
425
446
392
355
407
515
721
1000
976
462
79
235
254
-28
160
333
-34
477
679
-2957
-6934
-4721
0
821
611
1180
-1399
-4272
-2061
1247
1570
1059
-788
-4825
-6307
-3200
492
2037
1181
-990
-1327
729
1816
1176
970
1284
1163
1004
1120
1120
1012
1116
1150
782
819
1311
198
-2463
-3583
-3088
-3320
-2995
-388
1863
1804
1380
1657
1551
1100
1016
1014
1064
1288
1002
774
1538
862
-2877
-6184
-6897
-6411
-4078
58
2197
1550
1185
1593
1562
1460
1559
1504
1459
1459
1357
1329
1239
1034
1108
1042
642
1051
1212
-1316
-3830
-2164
981
1396
607
805
1055
875
849
847
725
681
665
630
600
520
482
519
478
430
506
586
680
782
516
2
-76
128
72
66
151
-75
73
377
-1843
-6467
-8235
-4636
-209
955
381
415
672
554
530
663
612
547
637
560
401
515
397
21
374
494
-1113
-2186
-724
691
327
2
319
272
109
270
356
288
278
254
188
174
192
188
160
135
136
135
160
257
328
325
289
126
-139
-213
-50
72
44
1
51
59
-50
41
186
-96
-1
527
-1462
-6130
-7596
-3431
739
1198
613
899
1025
814
827
826
676
593
525
416
368
362
348
351
357
347
369
412
404
372
404
471
490
459
413
356
310
313
329
302
280
302
286
251
302
381
533
891
1041
556
19
19
130
52
78
104
0
63
106
13
249
233
-272
321
682
-2364
-5347
-3153
562
870
64
471
649
367
431
422
261
266
188
139
244
55
12
447
-313
-2861
-5028
-5601
-4778
-2312
530
1586
1418
1609
1980
2152
2224
1863
1102
548
336
247
232
225
154
87
65
50
33
1
-63
-126
-154
-171
-199
-219
-206
-132
-1
127
221
304
372
385
355
336
325
275
215
222
267
275
246
224
215
203
184
171
174
173
149
120
101
72
37
31
49
48
37
60
93
91
73
53
15
10
44
22
13
87
36
-38
138
147
11
494
648
-757
-1769
-737
303
28
-198
44
30
-79
-10
-3
-54
0
49
-15
-10
96
22
-13
240
96
-94
700
138
-3638
-5819
-2788
696
779
103
419
459
195
246
267
173
190
203
180
202
200
198
273
333
308
259
225
201
196
207
199
183
212
240
198
218
351
425
527
763
687
174
-94
67
123
25
55
80
12
35
95
44
22
85
55
-26
17
101
130
170
202
247
362
323
106
119
248
116
116
188
-964
-3190
-3937
-2083
140
702
332
282
416
355
283
329
389
424
444
399
316
355
493
532
539
681
831
940
1138
1266
1119
861
636
393
217
171
95
-1
30
41
-15
59
-7
-266
-81
42
-968
-2383
-3512
-4525
-3805
-828
580
-1352
-2685
-1162
462
470
258
473
489
371
403
396
332
330
307
256
251
241
206
212
220
166
141
232
336
359
386
454
441
345
309
328
275
209
311
410
242
216
565
544
296
703
473
-1577
-2763
-950
986
40
-1932
-1764
-75
610
231
149
310
237
203
286
277
258
309
344
363
431
526
580
587
580
529
409
327
348
367
333
286
238
255
309
210
176
426
373
91
527
509
-1494
-2936
-1396
476
349
-105
139
164
4
107
133
27
101
201
201
389
642
434
-48
-173
-31
-44
-107
-38
19
31
106
138
107
214
237
-75
-104
347
392
236
575
488
192
991
732
-1830
-2719
-1174
-1073
-1834
-1018
-164
-42
466
734
387
362
542
479
482
574
591
691
901
1130
1347
1474
1673
2143
2400
1885
1004
401
116
104
185
-90
-214
282
-361
-3084
-5333
-5674
-5606
-5358
-4647
-4374
-3379
-784
88
-1795
-2188
-26
1281
1081
1103
1292
1152
1106
1158
1044
954
983
976
930
899
851
792
770
793
802
742
688
732
778
735
669
622
640
697
603
560
794
699
425
977
491
-3360
-6414
-3598
730
-11
-2880
-2195
393
1183
906
1088
1350
1502
1572
1120
500
454
678
647
541
549
562
545
544
549
552
554
547
522
510
539
587
654
729
728
704
820
941
795
539
577
799
623
253
514
471
-1499
-3512
-2548
-144
544
109
223
442
311
303
426
428
402
433
493
567
664
843
999
1059
1351
1823
1754
1179
673
39
-339
236
-272
-3658
-6756
-6739
-6118
-6379
-4584
-607
1172
167
304
1149
-886
-3248
-1728
247
-1335
-3224
-2088
178
1297
1424
1322
1303
1317
1250
1175
1150
1128
1110
1106
1080
1056
1068
1062
1008
974
979
980
977
969
966
1047
1121
1024
970
1066
984
957
1179
879
623
1421
634
-3195
-5828
-5897
-6341
-5017
-429
1144
-1535
-1577
1268
1924
1121
1353
1584
1314
1352
1438
1320
1315
1333
1271
1287
1295
1244
1266
1278
1259
1336
1316
1257
1456
1349
967
1524
1490
-1850
-5718
-6091
-5288
-5757
-4584
-710
2235
2160
1089
1782
2666
-81
-3666
-3010
-1093
-911
396
1767
536
-553
-759
-1635
-1372
-483
-1039
-370
2125
2750
2028
2436
2614
1712
1341
1644
1624
1462
1545
1542
1396
1450
1463
1209
1295
1518
1071
1139
1776
-808
-5825
-5724
-536
659
-3201
-5448
-5677
-5820
-3596
-548
-880
-1818
435
2664
1646
-185
101
1571
2023
1676
1735
1792
1680
2015
2005
1778
2824
2609
-1326
-3531
-59
3106
2008
838
1300
984
679
1344
140
-2767
-2927
-478
838
1129
898
-1537
-4774
-6455
-6410
-3647
-126
-608
-2200
-88
939
-2132
-3145
-235
2037
2336
1258
-505
-249
1657
1834
1353
1943
884
-1404
-679
1697
1625
479
805
1434
1332
1205
1188
1111
1119
1066
975
1006
919
954
1253
904
544
1388
668
-3319
-6225
-6448
-6842
-5614
-1789
-897
-2737
-1209
1886
1823
886
1263
1172
660
846
982
755
777
900
862
861
896
868
829
772
707
737
808
805
826
971
1058
968
928
1018
987
905
1018
987
762
884
844
277
585
1037
-1045
-3373
-1907
770
868
171
494
658
473
588
635
492
498
536
497
527
561
528
566
606
498
503
729
829
922
1191
959
282
228
389
146
566
587
-2647
-6842
-7401
-6209
-6738
-6215
-2823
-854
-1811
-2378
-2363
-2960
-1982
890
2444
2088
1824
2105
2154
1759
1763
2314
1420
-844
-901
1345
2203
1511
1437
1669
1525
1484
1519
1523
1588
1475
1524
1766
1355
1259
2220
1276
-2469
-5710
-7217
-5985
-964
2025
-579
-2102
-677
-812
-266
1459
-1134
-4315
-1036
3375
1956
-1836
-2431
3
2115
2260
1752
1735
1718
1538
1494
1464
1437
1420
1382
1551
1582
1328
1830
2222
-311
-4723
-6632
-5495
-4887
-5564
-4400
-1714
-1480
-2221
175
2749
1954
339
-903
-2224
-1038
2156
3111
2203
2189
2374
2123
2276
2180
1929
2636
2088
-1131
-2437
497
2897
2431
2162
2838
2625
1842
1592
1647
1687
1634
1482
1570
1573
1135
1354
1936
266
-3681
-6933
-7329
-4648
-1781
-1678
-1953
-821
-1047
-1110
1887
2273
-3206
-6169
-1960
2486
2490
1642
2368
1830
-1463
-3728
-1819
1466
2418
1906
1887
2035
1977
2113
2303
2416
2598
2690
2925
3449
3202
2112
1702
1163
-1736
-5410
-6455
-5413
-5577
-7153
-6336
-2382
-370
-1912
-2732
-2641
-3811
-2907
362
-523
-4717
-5468
-4790
-5840
-3431
1857
1467
-2850
-2177
2068
3402
2562
2533
2723
2497
2437
2468
2343
2246
2270
2266
2158
2141
2127
1884
1947
2160
1548
1510
2634
640
-4635
-5452
-294
2960
1676
953
2343
1768
-1656
-2936
-103
2222
1766
1307
1775
1871
1766
1937
2148
2237
1902
1219
928
1083
1114
1012
1029
1058
987
927
950
934
853
865
884
833
974
1042
705
892
1446
-603
-5791
-8791
-5794
-1154
-406
-1790
-2076
-3031
-4428
-2328
1078
1234
1179
2005
-1489
-5738
-3504
-829
-3256
-3185
1717
3361
300
-2556
-3904
-3428
-508
2234
2637
2156
2111
2256
2193
1819
2122
2923
1183
-2390
-2031
2045
2841
-1256
-5605
-7341
-6072
-3117
-1459
-1332
-1162
-1906
-2741
-478
2854
3286
2454
2708
2924
2760
2902
2791
2571
2728
2347
2041
2937
2025
-1854
-3028
370
2658
1972
1478
1820
1919
1485
1183
2162
1766
-3067
-6323
-2124
2466
-137
-5933
-8164
-4941
406
1626
-1525
-3315
-3259
-3680
-2243
1337
2974
2277
2035
2609
2650
2037
2143
2456
169
-2795
-1002
2792
1073
-3766
-3703
431
2458
1956
1772
1984
1923
1810
1613
1708
1982
1519
1516
2432
700
-4094
-7307
-7628
-6639
-4484
-2274
-1122
-616
-1076
-1302
711
2622
2162
1567
1970
2001
1770
1847
1818
1716
1762
1708
1563
1473
1368
1306
1266
1181
1241
1219
934
1070
1215
596
1059
2181
-656
-5327
-4166
551
1496
724
1024
-2229
-8026
-7937
-2612
-512
-2143
-2961
-3597
-4271
-1947
1603
2284
1445
1594
1856
1628
1634
1761
1688
1631
1614
1552
1517
1467
1328
1215
1210
1211
1166
1166
1166
1108
1143
1160
993
1064
1204
754
815
1648
-248
-5377
-8071
-6855
-6670
-7423
-5014
-1951
-2124
-2260
324
2403
2326
2025
2199
2374
2413
2047
1558
1565
1732
1627
1550
1615
1611
1555
1519
1482
1462
1450
1426
1390
1346
1346
1373
1379
1464
1529
1396
1462
1673
1265
1131
1905
86
-5575
-8385
-4723
-994
-1576
-3303
-3941
-3396
-939
1750
2033
1056
1287
2066
731
-3120
-6620
-7064
-4109
214
2433
1928
1851
2301
-156
-4043
-3924
43
2733
2442
1671
2009
2675
2765
2561
2157
1343
1486
2499
593
-4158
-6718
-6750
-6255
-3536
-244
-83
-87
1439
-112
-3989
-4072
-452
2198
2629
2450
2503
2591
2546
2450
2352
2273
2222
2093
1895
1793
1775
1714
1617
1538
1523
1521
1364
1234
1530
1405
-1438
-6622
-8399
-4077
-369
-1020
-763
664
-703
-1411
-169
-1906
-3677
-383
2810
1976
1169
1776
1657
1251
1386
1383
1174
1082
1002
961
970
889
773
676
598
641
653
496
557
820
794
878
1221
941
764
1504
652
-3013
-6683
-8299
-6861
-2957
-1359
-2686
-1394
683
-1678
-3346
31
2468
1430
1198
2033
1800
1482
1750
1701
1473
1527
1577
1561
1592
1467
1281
1330
1284
1056
1255
1350
783
1101
1694
-1010
-5616
-7484
-7392
-6790
-3346
1206
2199
878
190
-1360
-4097
-4324
-1040
1882
2141
1611
1754
1866
1702
1694
1703
1612
1626
1680
1672
1709
1725
1664
1686
1660
1503
1628
1692
1144
1226
1847
-389
-5175
-6951
-4152
-234
2133
262
-5219
-6433
-1466
391
-2520
-1975
1583
1988
805
1185
1506
1183
1386
1623
1453
1447
1561
1556
1601
1567
1407
1504
1720
1747
1961
2065
1229
617
1341
615
-3686
-7446
-6823
-5059
-5014
-4027
-2705
-4597
-5369
-524
3184
1213
-656
-871
-2776
-3131
556
3124
2484
2126
2598
2402
2127
2184
2025
1852
1892
1835
1692
1690
1726
1659
1620
1621
1465
1407
1609
1463
1363
2150
1799
-1078
-2451
547
3750
2342
-3278
-8170
-6842
-1566
-855
-3874
-2242
1485
-758
-4828
-3153
932
1916
1265
1318
1397
1158
1116
1171
1157
1184
1219
1275
1425
1550
1548
1514
1515
1464
1302
1166
1148
1110
1047
1033
901
820
953
718
525
1214
650
-2409
-4167
-3340
-3777
-5061
-3265
382
1976
639
-1650
-1823
364
1552
921
789
1205
944
642
840
890
706
723
796
672
595
602
435
446
641
241
128
1253
885
-2913
-7234
-9037
-7466
-3559
-1084
-1598
-2533
-2987
-2795
-648
1473
1243
702
1145
1186
928
1117
1187
1048
1188
1337
1291
1332
1260
1051
1223
1195
629
1116
1529
-1894
-6764
-7699
-6918
-7298
-4847
232
2019
1466
1940
455
-2795
-2213
870
354
-3039
-3961
-1174
1760
2399
2084
1973
1862
2334
2354
197
-1260
693
2797
2523
2043
2546
2828
2481
2017
1795
1866
2005
2013
1930
1923
1945
1824
1880
2069
1651
1502
2422
1356
-3222
-6618
-6127
-5120
-5040
-3590
-511
2143
3142
2877
2566
2673
2658
2434
2377
2407
2342
2302
2329
2276
2142
2098
2084
1955
1948
2047
1829
1687
1946
1706
1444
2231
1084
-3959
-6944
-3332
1502
2231
1164
1310
1727
1115
350
340
-244
-2429
-4586
-5062
-3191
567
1809
-2545
-6902
-6042
-3203
-1408
-612
-2107
-3754
-1558
1367
1057
170
572
530
94
173
214
57
42
-54
-285
-424
-590
-938
