# session 223
34
-4746
-3566
-299
233
-295
96
436
479
789
1060
1153
1379
1622
1706
1703
1456
893
481
485
531
388
283
348
436
353
160
169
247
53
13
217
-58
-500
-1255
-3843
-6431
-5819
-4363
-4398
-2854
456
1572
852
949
1280
1055
1008
1100
992
949
983
958
973
987
910
840
834
898
988
946
827
837
830
749
840
860
726
963
964
362
895
1279
-2577
-7185
-5062
585
1806
517
1302
934
-2904
-4950
-2021
1531
1966
951
679
861
914
990
1113
1184
1279
1333
1198
1157
1314
1176
1037
1335
1055
678
1794
1153
-3706
-6223
-3257
-2986
-7007
-5996
149
2328
-113
-1865
-1987
-1468
-1490
-3026
-3093
159
2566
2083
1690
2172
2118
1901
2013
1985
1873
1928
1971
1904
1801
1731
1700
1625
1551
1569
1568
1525
1492
1373
1324
1483
1491
1514
1863
1664
1065
1242
-189
-5177
-8189
-5532
-3068
-3347
-1997
-779
-2941
-3196
445
2060
1050
1083
1352
1122
1609
1106
-1159
-1482
1437
3155
692
-2171
-969
1849
2078
1247
1496
1362
1103
1831
669
-3716
-7103
-6860
-5455
-5703
-6915
-5521
-876
2422
2450
2029
978
-2128
-3884
-1852
889
1834
1887
1886
1799
1771
1781
1730
1744
1779
1771
1842
1845
1537
1163
1127
1312
1243
1093
1346
1301
759
1277
1638
-1317
-4392
-2209
1634
1425
328
1665
971
-3184
-4504
-1004
2072
1922
-112
-2814
-4923
-4797
-2282
616
1668
1208
1049
1269
1144
1043
1193
1182
1075
1155
1287
1298
1241
1265
1453
1699
1875
1962
2004
2253
2623
2285
1384
1008
576
-129
564
728
-2209
-3168
70
-649
-5665
-5293
-1569
-2961
-5258
-2606
232
-80
-428
115
173
131
424
612
712
857
895
846
823
846
861
784
677
662
696
704
670
598
607
641
513
533
726
441
272
943
355
-3147
-7230
-8524
-5456
-372
621
-3161
-4339
-722
1724
1159
832
1151
960
847
1046
1008
936
1111
1195
1080
1103
1251
1223
1277
1702
1950
1603
900
313
701
1252
-1360
-6469
-7764
-3787
-271
477
845
1133
1032
1307
823
-793
-1717
-2640
-4209
-3285
210
1901
1320
1274
1687
1498
1318
1364
1217
1080
1095
1027
928
923
901
862
894
904
866
893
901
814
833
922
873
856
855
675
727
813
302
491
1298
-1249
-6457
-7009
-2005
1472
1219
748
1166
1320
760
114
469
640
-1174
-2290
-308
1181
338
582
1344
-843
-2907
-923
1587
1357
773
1181
1236
1022
1141
1178
1123
1220
1265
1212
1133
1040
1098
1018
560
677
996
-1552
-6562
-8063
-4572
-1967
-2150
-1833
-1837
-3513
-3080
268
2065
1458
1317
1991
2077
1883
2479
2950
2131
1759
2177
108
-3138
-2242
1161
1829
816
998
1352
988
885
1081
887
669
838
631
187
686
639
-1507
-2388
-50
878
-2694
-7197
-7355
-2360
1697
282
-1423
160
-151
-2484
-1067
1746
905
-730
-241
839
2087
1741
-2732
-5961
-2537
747
-2017
-4211
-1063
2263
2434
1950
2122
2168
2083
2101
2061
1963
1884
1824
1779
1744
1754
1712
1546
1560
1654
1346
1392
2177
944
-3989
-8090
-6274
-1245
188
-2814
-4526
-1966
504
-1739
-6202
-7069
-3438
430
1587
1258
1351
1650
1532
1501
1711
1585
1519
1908
1681
1304
2227
1673
-2333
-4216
-817
2088
1450
830
1297
1209
964
1076
993
862
940
914
795
813
869
862
864
833
745
780
806
569
567
808
407
267
1199
389
-2644
-2978
116
1760
1194
992
904
356
280
497
387
301
369
325
242
250
265
227
226
268
211
227
412
257
120
751
61
-3810
-6722
-4293
76
1425
855
826
903
764
788
639
634
963
-209
-3287
-4927
-3144
-140
1671
1145
-2118
-4486
-1432
2564
-97
-5024
-3488
1259
2128
951
1202
1499
1110
1137
1286
1125
1156
1301
1242
1312
1504
1253
774
761
913
768
836
967
528
678
1373
-827
-5507
-7118
-5733
-5993
-5967
-2994
-2277
-5224
-4600
410
2926
2133
1947
2356
2099
1915
1987
1842
1682
1605
1517
1505
1423
1313
1405
1299
1067
1332
1240
703
1410
1570
-957
-2160
-1018
-2807
-5399
-2661
1693
2245
764
-1288
-4121
-5345
-3366
-36
2101
2427
2385
2920
3077
2273
1385
1037
965
879
790
762
755
709
658
627
566
486
436
378
291
229
183
116
78
105
165
243
334
420
503
569
596
610
610
573
561
554
466
472
553
350
272
695
319
-1704
-3988
-4912
-3675
-950
779
963
1130
-158
-4304
-7327
-5602
-1223
1793
1401
-905
-1296
663
1718
1273
1186
1470
1451
1316
1030
700
740
895
820
741
766
750
701
663
621
598
598
601
601
596
604
639
665
672
691
731
772
771
714
660
609
477
325
257
193
116
107
58
-8
63
22
-114
83
69
-326
184
327
-2851
-6882
-7504
-6769
-6929
-4926
-632
1486
961
735
1089
972
749
911
1004
791
1046
1508
250
-2420
-4006
-4163
-3336
-985
1320
1536
974
1134
1262
1077
1108
1154
1042
1026
1065
1027
1002
1033
1070
1086
1086
1095
1093
1036
961
909
835
723
629
566
516
502
488
423
419
462
368
322
390
203
174
517
133
-26
1486
743
-4184
-5870
-932
3053
2381
1237
1020
387
26
221
162
31
97
57
-20
17
-9
-88
-88
-130
-235
-237
-276
-405
-292
-218
-432
-16
383
-1647
-4443
-3555
-132
1201
524
412
691
546
479
587
535
478
524
509
449
434
440
429
386
337
357
396
353
321
319
217
199
329
163
33
630
464
-2588
-6865
-8013
-4773
-601
1267
1256
261
-2150
-4316
-3295
-91
1695
1581
1661
2211
2004
1225
902
980
966
930
922
851
868
874
733
823
881
509
796
1267
-869
-3965
-3092
433
1671
939
897
1296
1184
874
1107
1446
-236
-3652
-4510
-1486
1257
1410
961
1094
1127
1008
1020
966
852
858
876
821
800
840
864
835
761
674
615
584
562
552
543
537
560
566
513
501
555
620
790
939
655
175
144
283
153
217
307
-110
154
753
-2035
-7052
-6665
-647
1411
-3095
-6757
-6945
-6576
-4654
-450
1997
1510
1162
1546
1410
1140
1191
1103
867
880
937
623
569
1075
150
-2828
-4204
-1990
759
1607
624
-2110
-4439
-3054
476
1927
1375
1223
1456
1302
1185
1288
1208
986
919
960
964
939
915
1000
1234
1186
668
330
393
354
368
522
-107
-1247
-1226
-165
376
319
399
491
420
418
467
453
465
521
532
515
525
536
514
465
410
352
300
261
213
134
77
94
123
107
90
46
-16
8
-28
-200
-218
-270
-538
-291
49
-1052
-2339
-1534
-91
-73
-406
-163
-93
-248
-243
-233
-168
32
123
130
122
-109
-371
-287
-69
-44
-89
-60
-30
-26
-22
-17
-4
16
25
30
45
65
85
116
166
224
263
293
335
344
260
155
117
58
-57
-87
-91
-192
-147
-35
-216
-189
95
-292
-339
658
-634
-4416
-4679
-800
1090
151
-15
447
214
87
262
194
116
182
178
125
127
219
383
539
658
590
210
-94
10
177
133
94
132
118
109
155
157
128
158
197
183
176
221
271
295
312
350
409
454
450
421
412
401
353
262
167
154
192
146
103
124
47
70
226
-67
-288
276
-147
-2147
-2479
-421
638
79
-26
251
110
35
162
149
104
143
166
140
138
232
312
321
496
699
440
-33
-105
52
45
-9
17
24
8
17
20
7
13
35
26
29
73
55
71
243
213
54
327
366
-103
412
622
-2390
-5225
-3095
422
683
-99
173
269
214
273
1
445
624
-2677
-6598
-4914
193
2222
1650
1963
2444
1765
950
600
351
218
221
166
89
66
32
-29
-89
-140
-171
-196
-243
-297
-322
-303
-261
-197
-83
67
202
312
385
384
354
366
378
338
283
268
296
315
289
270
302
313
271
249
275
299
302
280
229
206
231
221
154
109
99
78
48
6
-56
-77
-23
30
47
84
155
204
205
181
162
142
108
95
109
97
70
71
51
46
131
213
318
545
549
98
-269
-189
-44
-71
-110
-104
-77
-72
-131
-107
-24
-103
-67
196
-340
-2245
-3991
-3623
-1410
445
753
497
594
712
642
639
657
585
543
556
553
545
578
648
711
772
815
742
650
652
535
404
525
368
68
624
506
-2406
-5737
-6610
-6166
-5023
-2105
988
1635
126
-1170
-502
1260
1931
1599
1637
1680
1115
657
662
684
602
566
598
587
475
522
628
321
293
823
-329
-3319
-3948
-1128
945
672
372
681
685
582
657
622
501
429
361
350
400
391
345
359
400
420
437
435
379
327
342
360
309
254
260
299
334
334
279
227
232
242
224
195
177
196
190
136
195
349
409
475
519
239
-132
-243
-195
26
94
-298
-85
420
-1256
-3639
-2613
140
608
-12
171
234
247
384
-36
392
1107
-2127
-7000
-5898
-479
1611
552
429
778
435
316
461
330
223
270
251
216
205
171
192
276
305
261
242
308
400
424
377
330
303
281
285
308
299
277
283
272
265
350
437
494
657
690
310
-65
-44
94
135
144
140
191
184
73
229
277
-165
142
714
-1068
-3155
-1508
754
-495
-1789
-260
967
519
381
664
513
366
399
287
179
180
135
78
69
60
62
87
85
68
87
109
73
23
50
138
191
167
114
94
88
56
40
62
57
50
57
-8
-4
192
245
245
636
600
-365
-463
267
-1477
-4819
-4359
-569
735
-269
528
759
-2974
-5640
-2735
1052
1264
194
228
713
985
1022
902
866
878
779
681
628
537
446
387
325
279
271
262
241
230
220
190
158
154
171
172
160
180
226
253
257
230
191
202
194
136
177
205
76
164
395
-231
-2095
-4024
-4025
-1473
1139
1317
371
363
668
502
438
569
525
435
413
359
316
315
291
255
247
260
289
328
362
396
431
447
430
392
356
321
275
223
176
130
104
108
100
63
54
84
107
137
193
284
490
782
1016
1319
1833
2136
1689
730
22
-192
-289
-323
-178
-271
-438
-109
-210
-765
14
97
-3367
-5825
-3602
-1792
-2671
-1845
573
927
215
930
1554
-779
-4205
-3413
663
1181
-1746
-1810
752
1396
648
762
984
746
728
818
747
758
800
728
700
738
703
646
640
582
500
558
627
540
504
532
429
462
571
346
403
711
141
114
1287
-361
-4257
-4136
-1510
-1378
-895
708
-962
-2894
-575
1640
1014
1008
1622
974
720
720
-997
-2251
-937
746
1138
118
-2100
-2768
-510
1224
808
548
905
818
694
810
843
870
809
869
1211
905
565
1552
723
-4027
-6592
-3491
-1042
-2194
-2047
345
1326
1037
1386
1541
1219
1558
1439
-321
-1482
-354
1368
1598
-11
-1478
-452
1619
1918
1415
1873
2273
1698
949
596
399
224
241
277
87
131
304
-134
-189
477
-625
-2709
-2009
-573
-2132
-3985
-3637
-2820
-1751
-113
487
228
539
931
856
857
907
728
598
615
577
516
526
531
501
506
555
596
606
600
612
632
626
632
617
533
591
717
488
476
1079
-95
-4522
-7764
-5635
-1957
-1488
-1642
283
1331
356
289
1395
1781
1758
2003
2106
2192
2245
1711
1041
967
1109
1052
1037
1106
1054
963
947
884
805
842
771
599
752
816
434
700
1205
-718
-4641
-6713
-5904
-5093
-5822
-5430
-1789
1368
382
-1458
-1062
-764
-1150
-37
1466
1289
760
1254
1485
955
1398
2088
208
-2138
-1045
990
712
286
962
1080
875
1134
1142
905
962
1020
972
1065
1242
1575
1946
1690
1025
948
1158
970
1126
1363
-612
-4346
-5635
-3253
-823
-116
704
1906
2091
1658
1510
1338
1042
896
762
607
546
451
298
216
125
-68
-262
-385
-467
-530
-644
-860
-1047
-1125
-1203
-1247
-1174
-1127
-1177
-1275
-1473
-1665
-1716
-1703
-1475
-1132
-1196
-1093
-413
-967
-2895
-3063
-1183
-88
118
547
452
52
409
549
-293
-715
-101
419
462
496
554
670
782
405
-55
288
902
943
824
942
1006
985
1064
1166
1234
1324
1363
1315
1347
1364
1090
952
1172
82
-3251
-5481
-3418
-140
128
-748
199
1265
797
288
527
736
832
1147
1533
1780
1958
2295
2675
2522
1722
943
610
490
380
340
324
263
255
269
193
161
166
32
22
114
-218
-382
100
-482
-2798
-4821
-5551
-5179
-3641
-2001
-708
861
979
-912
-1211
698
1395
750
784
1082
987
1020
1106
965
863
870
865
849
817
801
761
698
804
786
456
751
1139
-1014
-4795
-5362
-1909
1132
1343
705
1041
1207
489
879
1643
-647
-3077
-1085
851
-771
-972
572
-918
-2924
-1594
-79
-485
-627
-134
-53
-38
97
65
124
359
487
518
566
604
604
596
679
783
762
795
881
782
984
1206
-922
-5226
-6526
-2828
579
981
1361
776
-3085
-4632
-476
1910
-748
-1651
253
-473
-2235
-713
1532
1623
1415
1913
2222
2506
2795
2365
1461
830
543
423
413
399
331
284
267
224
184
192
202
148
55
5
19
47
35
16
115
317
393
398
596
651
397
544
689
-468
-1601
-565
828
282
-155
692
-256
-2938
-2860
-142
841
-90
-251
282
380
327
407
396
329
327
378
446
452
398
425
546
616
590
536
507
502
473
444
468
448
381
450
497
362
428
593
448
685
1020
-309
-1798
-943
-1047
-4598
-6216
-3653
-3031
-5361
-4508
-635
527
-1286
-2507
-2213
-976
530
1104
818
837
1137
1167
1128
1211
1271
1308
1356
1336
1231
1151
1097
977
965
1075
896
784
1129
902
512
1465
1136
-2407
-3970
-834
2039
2246
1497
395
567
2256
1272
-3095
-6011
-4941
-1627
582
-99
-1375
-1371
-1668
-1967
-319
1588
1629
1140
1233
1196
980
988
1022
1018
1085
1136
1229
1373
1414
1515
1646
1461
1393
1588
1213
1047
1819
912
-1761
-1688
471
-17
-1134
744
1846
-1018
-4210
-4811
-3777
-1615
912
1646
1002
1210
1229
-970
-3166
-2215
409
1512
1176
1027
1126
1038
928
848
766
764
731
662
657
567
485
547
449
539
1182
1179
419
397
-151
-2866
-4946
-4115
-2233
-780
115
10
-537
-668
-771
-1041
-1093
-1014
-965
-870
-774
-663
-490
-332
