# session 173
5
-64
-82
-72
-87
-121
-134
-126
-143
-197
-224
-191
-181
-229
-251
-237
-264
-306
-281
-217
-166
-101
0
109
215
304
344
347
331
289
239
203
174
168
178
163
154
190
212
177
135
114
96
81
75
67
52
37
21
7
-5
-19
-32
-38
-34
-29
-24
-14
-2
7
13
10
-2
-8
-10
-22
-35
-24
3
2
-23
-5
61
93
67
39
22
-5
-17
4
18
8
-17
-38
-25
-21
-62
-43
76
211
436
663
450
-127
-396
-255
-170
-218
-216
-204
-229
-237
-229
-231
-231
-225
-214
-196
-186
-177
-156
-136
-121
-94
-60
-33
0
47
104
164
206
214
213
215
196
161
123
66
0
-39
-67
-105
-124
-119
-115
-111
-112
-117
-107
-106
-133
-137
-102
-86
-107
-119
-96
-45
-23
-68
-107
-93
-99
-122
-95
-63
-70
-60
-41
-36
-11
-7
-10
100
269
416
574
509
66
-258
-127
52
22
-7
23
11
-10
-13
-25
-29
-26
-35
-29
-11
-16
-23
2
37
68
113
172
230
291
348
386
414
432
422
385
332
253
160
87
41
13
-8
-33
-44
-28
-24
-52
-72
-63
-66
-92
-101
-77
-69
-108
-134
-95
-43
-44
-92
-136
-154
-153
-139
-129
-138
-148
-159
-196
-211
-179
-187
-196
-106
3
148
421
465
14
-404
-374
-248
-276
-276
-221
-217
-214
-181
-162
-156
-150
-149
-138
-117
-107
-94
-67
-50
-44
-14
34
72
109
154
186
207
236
246
221
190
157
96
33
7
-3
-14
-10
-2
-13
-18
-3
6
15
44
54
30
35
80
99
86
103
151
162
128
106
97
79
75
83
67
48
58
49
15
-4
-36
-65
-5
102
223
409
445
104
-266
-272
-132
-117
-133
-101
-86
-85
-63
-40
-30
-33
-35
-17
1
4
15
35
48
60
83
109
137
175
210
241
266
266
241
219
203
168
107
38
-19
-54
-72
-88
-105
-112
-117
-140
-164
-164
-156
-166
-185
-191
-182
-172
-172
-167
-133
-88
-81
-114
-141
-153
-165
-163
-146
-147
-154
-143
-144
-149
-122
-118
-140
-73
50
160
360
490
213
-207
-268
-116
-98
-140
-117
-96
-98
-93
-90
-91
-91
-97
-97
-83
-75
-83
-69
-23
12
16
25
56
98
158
223
257
257
261
270
249
187
116
60
16
-7
1
11
-1
-8
4
10
8
12
20
27
22
-11
-45
-35
-4
-3
-16
12
69
83
35
1
3
-13
-45
-40
-24
-40
-61
-58
-30
-13
-45
-22
133
269
399
645
636
122
-297
-208
-49
-78
-84
-55
-83
-86
-46
-40
-48
-36
-34
-53
-64
-55
-26
7
16
17
36
61
87
133
187
221
242
262
258
209
131
51
-20
-89
-150
-180
-182
-186
-198
-197
-180
-169
-176
-187
-187
-180
-179
-188
-194
-174
-144
-144
-154
-113
-43
-15
-28
-26
-8
11
65
147
225
340
478
560
717
1118
1452
1234
565
-24
-288
-363
-385
-384
-381
-378
-360
-349
-362
-367
-356
-366
-389
-397
-413
-438
-443
-440
-464
-495
-495
-466
-430
-381
-289
-162
-38
77
181
243
261
256
229
196
178
159
117
82
84
95
83
66
72
85
76
58
58
66
64
66
81
88
78
78
101
120
113
116
158
200
200
177
156
138
127
126
116
108
125
132
114
126
137
92
93
183
263
434
708
633
108
-236
-150
-58
-116
-127
-110
-151
-174
-153
-155
-177
-172
-155
-155
-155
-146
-148
-147
-126
-113
-110
-87
-54
-33
1
55
93
107
108
90
58
23
-22
-74
-108
-118
-115
-110
-111
-110
-103
-92
-80
-72
-69
-62
-58
-76
-100
-100
-91
-93
-93
-90
-93
-71
-41
-61
-104
-107
-109
-140
-142
-113
-109
-119
-119
-111
-80
-67
-86
-34
80
169
306
402
176
-183
-229
-69
-34
-70
-51
-29
-25
-7
12
11
3
4
6
-1
-5
2
1
-1
21
54
79
107
149
200
251
282
288
291
288
264
225
178
122
81
71
62
43
39
46
39
29
25
22
25
34
35
34
48
86
143
174
220
397
618
740
967
1358
1399
846
202
-137
-269
-309
-295
-308
-349
-366
-379
-402
-409
-412
-427
-437
-435
-446
-483
-523
-535
-531
-535
-537
-515
-464
-389
-303
-213
-121
-40
11
31
21
-12
-43
-58
-64
-65
-55
-33
-7
11
23
37
48
46
43
48
47
35
29
29
22
15
11
1
-7
-8
-14
-22
-16
-14
-27
-34
-24
-13
-9
-15
-24
-21
-14
-28
-55
-51
-19
-15
-40
-20
51
83
55
39
46
40
26
27
39
47
39
41
87
112
65
87
230
348
474
613
424
-68
-282
-114
1
-34
-38
-19
-19
-18
-28
-45
-49
-47
-44
-38
-32
-14
16
30
40
76
112
134
174
232
277
316
355
369
359
356
342
291
226
162
85
15
-11
-18
-37
-48
-45
-58
-87
-108
-111
-95
-74
-77
-107
-136
-132
-108
-110
-133
-123
-71
-26
-26
-69
-118
-139
-134
-131
-140
-158
-168
-171
-185
-186
-174
-205
-207
-87
40
157
349
320
-121
-454
-337
-166
-177
-179
-133
-128
-129
-116
-112
-109
-105
-106
-95
-78
-69
-62
-51
-34
-6
26
61
111
163
212
270
305
296
284
276
232
159
89
23
-36
-63
-61
-64
-89
-105
-90
-74
-72
-55
-31
-31
-28
-8
-5
-6
26
61
54
27
25
57
83
60
2
-36
-51
-77
-104
-110
-103
-99
-103
-100
-78
-85
-103
-28
85
176
378
538
285
-135
-201
-41
-2
-23
6
22
16
21
21
20
25
16
5
19
34
35
45
63
66
80
124
159
175
205
251
289
319
328
299
257
218
152
60
1
-18
-54
-101
-106
-100
-125
-136
-122
-133
-154
-152
-156
-177
-187
-193
-209
-207
-180
-171
-179
-165
-130
-116
-123
-130
-145
-163
-154
-138
-146
-147
-120
-115
-125
-93
-65
-72
-21
83
167
272
284
24
-260
-241
-99
-80
-98
-79
-80
-93
-87
-79
-81
-85
-84
-84
-86
-79
-62
-43
-22
-1
21
53
98
144
182
229
281
296
275
273
285
246
169
120
103
85
67
57
56
59
60
63
81
121
165
176
190
312
503
614
725
976
1054
599
-28
-249
-160
-148
-220
-247
-259
-277
-283
-298
-315
-313
-314
-327
-330
-330
-346
-367
-371
-355
-339
-328
-289
-201
-96
-9
75
170
231
230
209
195
159
97
63
74
70
31
22
49
46
17
10
5
-19
-34
-36
-42
-50
-66
-84
-79
-64
-74
-87
-79
-74
-78
-74
-61
-50
-57
-87
-102
-92
-98
-117
-114
-108
-127
-138
-120
-114
-144
-177
-172
-136
-117
-122
-98
-23
35
29
4
4
12
6
-5
-6
-1
-8
-22
-10
-2
-24
28
165
292
522
795
596
-34
-336
-176
-89
-156
-138
-93
-112
-133
-131
-120
-112
-124
-125
-97
-77
-66
-47
-35
-17
21
56
93
148
206
260
310
338
347
358
354
323
282
235
181
137
102
70
43
15
-9
-10
-7
-29
-53
-51
-41
-41
-42
-42
-29
26
116
214
366
606
805
827
708
519
354
365
438
244
-123
-280
-232
-214
-243
-250
-232
-205
-200
-220
-238
-254
-260
-243
-237
-256
-265
-262
-258
-248
-234
-228
-225
-214
-195
-179
-161
-144
-151
-164
-144
-130
-163
-191
-186
-191
-209
-197
-176
-182
-187
-162
-139
-142
-147
-143
-141
-133
-116
-107
-104
-92
-69
-43
-30
-26
-11
5
1
-8
-13
-26
-23
-4
-14
-45
-20
54
87
60
32
20
11
13
11
4
15
22
2
12
33
-8
-14
99
206
327
536
501
62
-253
-143
13
-1
-3
42
28
-6
11
33
19
21
65
89
64
39
38
41
40
39
41
69
122
170
209
252
289
311
321
314
290
256
216
168
127
100
79
63
52
43
44
52
45
29
37
56
59
71
130
201
265
413
651
837
1004
1253
1296
852
234
-133
-275
-337
-338
-337
-375
-385
-365
-377
-404
-409
-420
-444
-461
-487
-534
-565
-566
-578
-604
-605
-570
-512
-433
-338
-245
-162
-79
-14
1
-27
-57
-74
-89
-99
-101
-101
-98
-94
-89
-82
-74
-65
-53
-39
-27
-15
-4
-2
-5
-3
0
3
2
-4
-7
-3
-10
-28
-33
-28
-34
-46
-57
-61
-52
-50
-70
-60
0
33
5
-18
-18
-31
-40
-36
-34
-22
-13
-33
-28
-1
-6
41
185
319
483
644
453
-37
-237
-59
46
4
13
35
-2
-30
-28
-28
-31
-33
-29
-17
-14
-21
-16
3
21
43
72
101
132
177
231
281
322
345
354
360
354
317
263
202
132
71
43
28
8
-1
2
-6
-10
19
78
145
207
316
564
877
1127
1483
2015
2153
1426
349
-281
-413
-424
-456
-483
-511
-519
-495
-483
-510
-549
-579
-599
-620
-654
-696
-737
-773
-803
-821
-807
-745
-656
-562
-451
-321
-206
-125
-62
-26
-34
-59
-64
-59
-54
-43
-30
-31
-35
-27
-16
-10
3
9
-3
-6
10
8
-9
-4
-3
-30
-34
4
22
0
-5
11
10
7
27
34
17
1
-14
-19
-2
-2
-32
-15
67
114
76
26
14
13
12
34
61
56
26
23
64
68
24
87
252
371
558
778
546
-65
-319
-141
-52
-104
-94
-82
-110
-104
-79
-68
-48
-23
-7
14
34
45
65
91
104
110
130
173
224
261
289
319
338
343
353
357
318
260
221
180
122
77
55
33
6
-23
-49
-69
-76
-63
-66
-104
-121
-99
-102
-132
-124
-81
-42
-16
-1
16
48
94
192
337
415
507
853
1248
1138
515
-88
-394
-512
-541
-523
-519
-527
-509
-480
-475
-483
-470
-437
-424
-439
-456
-465
-480
-503
-522
-533
-538
-518
-464
-390
-299
-190
-73
36
115
148
153
159
152
117
87
83
78
69
73
85
95
103
101
92
101
131
147
127
100
104
122
119
106
109
112
97
94
123
144
121
74
40
24
3
-29
-38
-6
8
-35
-32
111
292
392
457
467
345
225
194
75
-128
-168
-77
-69
-99
-63
-33
-48
-47
-27
-28
-37
-34
-26
-16
-9
-20
-25
-13
-16
-24
10
48
54
86
162
221
254
290
307
291
251
196
148
123
93
44
1
-26
-49
-70
-87
-96
-101
-120
-156
-174
-164
-163
-193
-208
-184
-164
-182
-205
-211
-215
-214
-193
-168
-148
-127
-117
-109
-76
-67
-98
-50
78
185
339
458
216
-225
-332
-153
-100
-165
-165
-140
-150
-157
-145
-132
-130
-140
-142
-125
-109
-101
-87
-67
-48
-20
21
67
122
192
265
323
357
364
348
313
250
178
119
66
25
11
1
-11
4
26
13
-9
-11
-9
-16
-21
-19
-19
-35
-36
8
39
5
-41
-47
-37
-35
-41
-45
-29
-18
-27
-6
13
-33
-9
150
278
437
688
579
2
-344
-199
-52
-73
-67
-59
-95
-89
-68
-93
-110
-84
-57
-49
-52
-57
-56
-42
-19
9
38
87
150
197
233
271
287
282
275
228
125
13
-79
-148
-188
-218
-251
-264
-253
-245
-247
-240
-222
-208
-197
-170
-137
-127
-130
-100
-36
2
-11
-37
-55
-77
-89
-76
-75
-86
-82
-80
-77
-61
-81
-87
30
166
296
542
595
147
-299
-276
-122
-128
-136
-103
-101
-92
-83
-100
-94
-67
-61
-60
-47
-30
-4
19
34
61
100
138
187
243
290
341
385
394
369
314
232
152
78
-10
-81
-113
-134
-147
-138
-129
-129
-121
-113
-121
-124
-101
-61
-28
-21
-10
38
85
84
57
37
25
30
42
31
16
18
8
11
36
3
-24
76
196
332
627
739
300
-187
-189
-25
-38
-71
-37
-37
-61
-67
-67
-66
-72
-90
-106
-116
-125
-128
-119
-105
-95
-82
-51
-17
-4
8
50
103
126
110
71
25
-29
-85
-126
-149
-165
-175
-176
-170
-153
-133
-128
-130
-123
-111
-99
-71
-35
-23
-32
-9
46
65
31
1
-16
-42
-52
-40
-48
-58
-47
-50
-58
-50
-75
-90
-5
110
242
409
329
-91
-369
-279
-173
-197
-194
-169
-176
-162
-132
-116
-90
-56
-36
-18
14
51
71
68
70
98
134
165
217
285
325
330
334
339
316
258
184
116
61
6
-46
-62
-45
-42
-60
-66
-56
-40
-23
-23
-42
-45
-15
19
24
21
58
118
140
113
81
63
50
41
34
30
32
17
4
30
36
-11
22
140
242
452
717
568
35
-229
-111
-56
-125
-122
-97
-128
-144
-134
-144
-164
-174
-180
-182
-180
-177
-172
-157
-137
-117
-85
-32
27
75
117
154
174
176
162
123
56
-12
-65
-106
-133
-144
-150
-158
-156
-141
-135
-132
-114
-103
-113
-112
-88
-66
-65
-75
-57
-7
15
-16
-48
-62
-75
-82
-82
-84
-76
-77
-98
-86
-67
-100
-65
81
194
342
524
327
-196
-380
-179
-109
-174
-134
-87
-104
-87
-58
-68
-68
-45
-34
-30
-21
-4
29
64
77
79
93
131
180
223
263
311
337
321
291
254
182
95
30
-22
-68
-93
-108
-119
-116
-105
-94
-68
-41
-32
-26
-17
-13
3
25
12
4
62
121
99
49
37
31
16
16
18
23
44
38
11
7
-8
-5
88
201
377
680
702
191
-264
-244
-134
-184
-210
-189
-209
-212
-182
-176
-179
-171
-178
-183
-158
-134
-125
-112
-102
-101
-80
-36
-1
32
84
135
164
184
190
168
129
87
41
5
-9
-14
-21
-21
-12
-6
-7
1
12
5
-16
-26
-23
-20
-16
-20
-36
-29
11
35
15
-32
-79
-98
-73
-57
-83
-92
-68
-58
-56
-52
-57
-5
114
217
337
436
284
-59
-195
-6
