# session 38
41
-268
-240
-106
-103
-123
-98
-93
-102
-92
-79
-73
-64
-54
-52
-51
-32
-7
4
20
52
78
98
140
207
268
293
293
295
296
274
220
139
59
4
-50
-107
-133
-151
-178
-167
-132
-143
-175
-169
-141
-113
-96
-115
-126
-70
-6
-9
-44
-61
-66
-66
-60
-55
-49
-51
-53
-33
-23
-48
-22
90
228
386
435
146
-271
-356
-169
-80
-106
-101
-84
-99
-120
-131
-137
-145
-153
-155
-147
-132
-117
-107
-88
-47
0
41
84
135
193
242
263
258
235
191
126
50
-29
-83
-94
-95
-114
-133
-142
-142
-126
-115
-128
-137
-135
-142
-144
-136
-147
-150
-112
-90
-124
-171
-198
-207
-203
-195
-190
-188
-199
-208
-187
-181
-213
-186
-66
77
256
399
334
213
316
504
552
530
501
425
367
368
343
273
224
203
181
172
184
196
188
173
173
187
204
223
262
315
348
368
401
409
357
265
164
65
-13
-74
-132
-172
-193
-218
-236
-244
-264
-279
-271
-272
-273
-252
-252
-278
-255
-181
-146
-173
-207
-229
-246
-241
-217
-207
-214
-207
-170
-150
-198
-209
-60
119
270
544
652
185
-380
-398
-164
-143
-210
-202
-193
-195
-181
-180
-198
-211
-206
-187
-168
-150
-120
-88
-71
-43
8
69
146
232
285
317
359
375
337
273
188
87
16
-25
-65
-85
-85
-108
-136
-118
-84
-80
-98
-116
-114
-79
-56
-85
-110
-68
0
23
-1
-39
-66
-67
-57
-54
-36
-13
-32
-49
-19
-30
-41
96
275
432
701
764
242
-319
-314
-112
-132
-179
-134
-125
-140
-128
-124
-127
-114
-99
-86
-68
-48
-24
3
24
50
96
152
216
280
332
380
423
425
372
302
231
147
71
23
-5
-28
-53
-75
-79
-67
-53
2
108
206
337
591
838
1002
1274
1519
1249
532
-40
-269
-365
-423
-455
-503
-544
-548
-549
-565
-579
-587
-595
-608
-641
-691
-712
-693
-675
-657
-585
-451
-303
-172
-55
53
133
160
147
121
87
52
25
7
-11
-22
-19
-5
2
4
16
27
28
32
44
55
63
63
55
56
66
70
70
77
77
68
69
81
89
92
95
87
75
78
92
93
81
83
81
45
16
39
55
22
15
77
126
99
52
28
12
-6
2
27
18
-2
19
23
-26
3
127
243
413
561
336
-152
-337
-176
-84
-125
-134
-123
-127
-112
-99
-109
-111
-98
-82
-70
-64
-53
-30
-9
16
50
78
102
144
202
244
253
243
244
258
238
174
122
93
31
-45
-64
-58
-91
-127
-122
-102
-106
-136
-153
-136
-125
-135
-122
-83
-68
-79
-89
-110
-145
-159
-156
-174
-184
-152
-132
-138
-117
-104
-97
3
163
334
567
591
141
-306
-261
-55
-45
-69
-39
-51
-64
-42
-60
-97
-92
-80
-93
-93
-75
-67
-57
-28
8
51
107
159
221
301
355
355
343
334
276
168
67
-10
-80
-120
-115
-114
-148
-168
-143
-125
-140
-144
-142
-158
-151
-120
-121
-131
-95
-47
-20
-6
-26
-78
-97
-89
-106
-109
-71
-62
-67
-31
-46
-86
31
222
383
656
775
297
-317
-374
-157
-151
-210
-164
-140
-163
-156
-139
-142
-142
-127
-110
-97
-84
-63
-35
-9
19
57
104
163
241
311
347
364
376
355
288
200
122
58
2
-39
-57
-61
-55
-46
-35
21
132
221
328
574
858
1081
1375
1581
1274
590
52
-218
-353
-389
-402
-456
-500
-513
-511
-481
-470
-518
-574
-604
-635
-665
-698
-739
-750
-711
-641
-538
-411
-273
-112
35
98
108
118
109
83
75
69
54
60
75
67
59
71
71
43
26
26
17
2
-1
-7
-19
-17
-3
5
17
34
36
41
70
81
56
54
82
91
83
85
86
85
91
96
100
96
70
54
78
92
68
71
128
166
147
108
71
43
35
42
42
32
37
41
0
-17
77
198
324
532
560
152
-277
-285
-130
-126
-154
-129
-131
-146
-139
-135
-133
-121
-116
-115
-107
-98
-90
-73
-50
-30
-2
42
93
140
186
224
246
252
252
241
204
146
95
57
20
-15
-35
-46
-61
-80
-95
-107
-115
-113
-100
-92
-99
-110
-100
-56
-21
-40
-88
-117
-137
-156
-160
-152
-138
-134
-150
-144
-126
-143
-85
98
227
311
432
266
-232
-457
-247
-105
-167
-182
-140
-138
-139
-114
-84
-61
-46
-30
-12
-7
-6
9
33
63
106
137
156
208
294
362
404
417
371
280
197
119
27
-42
-70
-87
-96
-90
-95
-104
-86
-68
-72
-75
-72
-64
-35
-19
-30
1
79
109
79
62
51
18
-5
-12
-25
-27
-22
-19
9
-2
-53
41
240
363
538
698
387
-201
-374
-187
-123
-162
-134
-113
-129
-122
-115
-128
-133
-131
-132
-126
-111
-97
-82
-61
-33
4
58
129
199
256
301
331
335
305
235
132
31
-32
-71
-109
-144
-168
-181
-178
-169
-178
-198
-194
-170
-156
-146
-124
-133
-189
-200
-117
-44
-56
-104
-145
-171
-168
-160
-173
-179
-168
-151
-122
-142
-203
-121
91
225
357
491
251
-269
-442
-247
-141
-163
-136
-100
-93
-77
-67
-69
-61
-56
-63
-65
-56
-46
-26
13
57
90
130
201
280
336
378
418
430
389
320
256
185
97
35
17
-2
-33
-44
-32
-21
-12
2
26
69
129
191
298
525
782
950
1198
1575
1623
1099
421
-27
-253
-326
-333
-374
-403
-376
-376
-415
-425
-428
-462
-499
-533
-571
-594
-615
-652
-665
-618
-542
-449
-319
-177
-62
36
113
138
124
108
89
62
39
27
26
29
28
33
40
29
25
49
51
18
15
48
47
12
-3
7
10
4
-8
-22
-26
-18
-21
-39
-59
-75
-71
-53
-58
-89
-117
-126
-113
-82
-64
-67
-43
7
28
5
-20
-9
14
-5
-39
-8
41
32
23
39
43
103
240
386
537
534
185
-210
-241
-81
-47
-81
-76
-79
-98
-106
-112
-110
-99
-95
-94
-87
-77
-68
-57
-45
-21
19
53
79
120
170
197
201
203
201
190
167
124
66
23
-4
-52
-105
-117
-107
-125
-151
-154
-149
-162
-179
-168
-138
-128
-137
-126
-81
-55
-85
-95
19
208
349
444
535
546
431
309
264
215
156
200
310
415
559
527
85
-357
-339
-144
-128
-159
-124
-114
-130
-120
-105
-103
-102
-98
-89
-83
-83
-71
-44
-21
2
40
86
133
197
264
305
318
304
249
164
66
-41
-130
-173
-199
-239
-273
-287
-302
-314
-306
-290
-281
-274
-267
-275
-315
-360
-358
-296
-211
-158
-149
-157
-169
-176
-162
-160
-186
-165
-117
-123
-120
-86
-96
-25
184
341
525
767
561
-87
-383
-198
-109
-175
-152
-122
-148
-143
-128
-133
-114
-81
-71
-63
-34
-5
1
4
41
107
161
208
278
358
410
435
454
453
406
321
234
164
103
41
-8
-28
-32
-43
-46
-36
-22
3
25
38
110
229
323
492
798
1060
1293
1671
1911
1586
846
156
-252
-393
-415
-447
-479
-477
-486
-520
-540
-552
-582
-620
-649
-680
-718
-744
-752
-754
-742
-697
-615
-505
-368
-221
-89
17
93
121
110
93
78
48
11
-4
3
5
-3
0
11
5
-4
3
2
-22
-37
-31
-34
-50
-49
-34
-44
-70
-65
-43
-49
-58
-42
-31
-41
-45
-33
-37
-67
-75
-38
-20
-52
-61
-8
39
45
29
7
-9
-12
-15
-6
21
30
35
61
45
27
131
278
408
617
656
226
-244
-262
-110
-127
-157
-108
-93
-101
-79
-70
-75
-54
-24
-13
-7
8
24
38
65
101
125
141
175
232
280
304
315
315
300
293
289
237
153
106
80
32
4
6
-13
-42
-37
-27
-35
-50
-53
-26
13
34
86
205
327
456
624
734
821
1084
1321
1087
495
29
-185
-294
-342
-342
-354
-378
-385
-390
-399
-401
-413
-437
-446
-452
-476
-506
-521
-525
-517
-485
-435
-363
-261
-152
-57
33
117
155
136
106
103
97
54
13
3
-14
-45
-52
-51
-68
-68
-44
-51
-91
-101
-78
-102
-184
-253
-301
-361
-399
-398
-389
-359
-299
-258
-248
-225
-178
-135
-114
-100
-54
9
30
7
0
14
22
28
47
67
70
65
80
81
58
99
209
314
464
561
299
-161
-296
-121
-28
-47
-31
-11
-15
1
20
17
18
35
52
66
84
100
101
98
125
176
216
255
310
354
382
419
443
429
394
351
298
247
192
127
72
32
1
-20
-32
-28
-3
28
88
185
300
515
833
1061
1255
1610
1745
1183
318
-184
-333
-419
-473
-471
-481
-514
-535
-542
-554
-575
-604
-637
-668
-704
-750
-790
-804
-799
-781
-719
-592
-434
-284
-140
-3
102
159
161
124
81
43
7
-4
-4
-21
-26
-6
-10
-39
-49
-44
-42
-49
-67
-67
-45
-48
-64
-52
-35
-35
-30
-27
-27
-12
-14
-37
-19
15
5
-9
-1
-18
-41
-16
21
9
-16
21
105
148
121
87
80
63
24
18
40
22
-9
9
-11
-55
58
245
359
583
781
434
-193
-341
-118
-61
-117
-84
-48
-52
-34
-15
-14
-3
8
4
9
34
47
53
78
113
144
179
213
253
309
341
330
323
337
327
270
190
118
66
23
-24
-59
-69
-75
-86
-94
-105
-108
-92
-84
-79
-47
-36
-75
-84
-33
-11
-46
-91
-131
-161
-169
-167
-155
-144
-160
-165
-145
-166
-158
-24
115
240
445
417
-51
-422
-328
-155
-160
-163
-126
-129
-131
-113
-123
-134
-114
-99
-108
-110
-92
-74
-56
-31
3
38
72
118
189
263
302
293
257
208
148
83
8
-84
-141
-131
-119
-145
-159
-146
-144
-144
-133
-129
-121
-97
-93
-105
-90
-65
-59
-28
43
74
42
14
7
-4
-11
-14
-25
-33
-42
-51
-47
-65
-81
5
142
278
488
564
205
-242
-273
-82
-35
-60
-38
-29
-45
-47
-35
-20
-14
-17
-2
28
46
46
58
93
117
124
156
211
243
266
314
349
337
305
269
202
114
44
-4
-42
-65
-72
-82
-96
-105
-108
-110
-110
-103
-96
-97
-89
-62
-43
-46
-34
9
34
14
-25
-50
-57
-60
-70
-70
-51
-44
-37
-15
-22
-22
66
173
256
365
316
-31
-322
-262
-110
-105
-130
-105
-97
-110
-108
-104
-116
-130
-119
-98
-100
-109
-97
-81
-70
-49
-22
10
58
112
148
164
173
175
158
109
41
-25
-81
-120
-145
-162
-164
-148
-129
-116
-109
-113
-119
-110
-76
-22
17
22
35
74
91
67
37
15
-3
-18
-31
-35
-32
-46
-50
-27
-43
-58
53
193
301
528
637
236
-274
-297
-88
-63
-100
-61
-43
-58
-55
-46
-40
-33
-33
-32
-18
6
19
10
12
56
103
126
157
218
281
320
332
321
286
222
136
61
1
-55
-102
-136
-164
-174
-163
-159
-167
-160
-151
-162
-166
-139
-123
-149
-163
-113
-46
-26
-42
-76
-116
-123
-104
-104
-93
-69
-89
-93
-43
-67
-89
83
266
372
652
787
268
-355
-372
-144
-138
-183
-158
-163
-172
-153
-144
-133
-124
-144
-160
-139
-104
-78
-63
-57
-38
15
79
135
195
258
301
332
340
284
176
79
15
-30
-69
-102
-115
-100
-82
-49
48
176
305
524
826
1071
1334
1681
1721
1133
309
-183
-314
-355
-424
-487
-502
-488
-499
-535
-550
-553
-581
-625
-657
-683
-714
-743
-754
-738
-690
-592
-442
-283
-141
9
160
240
248
245
239
221
208
195
166
139
130
131
133
130
120
115
116
112
99
87
86
87
74
53
41
45
48
27
-1
-6
-4
-23
-39
-29
-21
-36
-52
-57
-60
-64
-64
-59
-53
-49
-56
-69
-69
-47
-38
-58
-53
7
71
96
82
48
29
29
30
33
27
16
41
44
-21
22
203
315
482
767
623
-33
-404
-256
-132
-170
-165
-157
-189
-179
-156
-166
-170
-157
-143
-127
-110
-86
-58
-50
-48
-14
43
93
142
194
232
251
258
266
270
236
160
87
38
-5
-43
-75
-106
-119
-117
-125
-137
-138
-134
-126
-114
-100
-77
-53
-43
-22
26
63
61
31
1
-16
-32
-51
-42
-9
-12
-29
0
2
-49
-12
114
231
461
690
443
-140
-361
-189
-96
-129
-122
-105
-102
-99
-110
-98
-62
-75
-104
-72
-25
-19
-25
-6
35
79
111
140
181
226
263
293
303
270
197
116
47
-13
-59
-85
-105
-124
-127
-111
-97
-95
-94
-83
-77
-81
-80
-64
-49
-50
-55
-39
-3
29
32
7
-15
-10
20
63
110
146
214
363
487
504
621
945
1093
733
140
-236
-332
-332
-346
-366
-360
-344
-344
-343
-327
-320
-332
-343
-350
-371
-405
-435
-445
-445
-459
-469
-431
-349
-269
-188
-78
34
106
146
168
165
140
108
74
37
5
-9
-12
-19
-28
-31
-32
-36
-34
-22
-17
-27
-39
-37
-20
3
12
10
31
77
110
104
65
22
16
29
15
7
40
56
51
62
40
27
121
239
390
671
710
207
-278
-250
-85
-117
-159
-126
-124
-142
-137
-124
-109
-105
-114
-118
-117
-113
-105
-97
-76
-29
24
68
120
180
231
277
316
323
294
240
169
86
12
-37
-66
-90
-105
-98
-83
-71
-56
-14
77
186
276
470
823
1103
1283
1663
2011
1665
743
19
-252
-346
-414
-453
-471
-472
-485
-528
-560
-571
-596
-632
-670
-725
-775
-782
-775
-783
-766
-690
-562
-405
-246
-96
48
154
191
194
182
141
109
106
86
61
76
86
71
80
95
89
100
123
115
96
84
68
64
74
71
56
44
34
34
33
17
5
5
0
5
20
13
-5
1
9
1
3
8
-17
-39
-21
-13
-47
-58
4
