# session 134
-38
26
109
161
175
184
160
78
12
15
35
28
20
6
-34
-58
-40
-29
0
76
136
258
561
859
1036
1341
1657
1408
577
-214
-627
-787
-842
-865
-894
-910
-914
-943
-976
-983
-1004
-1050
-1082
-1102
-1122
-1103
-1049
-992
-885
-688
-463
-261
-58
123
215
236
248
258
257
273
311
344
379
446
515
530
518
521
515
481
448
424
400
380
361
330
294
268
245
205
167
157
151
127
106
96
80
53
25
5
-4
3
37
72
79
91
150
217
233
207
174
159
158
157
160
152
119
120
143
110
129
284
432
603
851
748
168
-214
-105
12
-63
-101
-72
-73
-89
-95
-83
-60
-60
-66
-49
-39
-48
-39
-13
6
32
70
97
114
129
142
145
121
73
32
-1
-56
-110
-134
-154
-182
-204
-239
-274
-251
-191
-166
-158
-136
-115
-108
-133
-205
-259
-248
-224
-242
-295
-361
-392
-370
-355
-368
-365
-351
-346
-342
-363
-367
-280
-177
-74
90
71
-309
-616
-526
-369
-374
-368
-309
-286
-267
-234
-222
-214
-184
-156
-141
-132
-109
-58
-6
41
120
222
304
371
439
494
509
463
392
351
315
251
211
208
181
140
141
175
229
295
314
270
228
214
200
188
192
211
247
291
312
305
274
224
193
200
216
233
256
256
247
264
252
228
297
414
535
776
938
655
202
123
287
315
259
253
217
118
11
-87
-168
-233
-305
-373
-410
-432
-455
-466
-460
-431
-378
-327
-290
-254
-223
-199
-175
-181
-243
-312
-327
-303
-275
-233
-179
-146
-123
-74
0
64
94
105
138
185
283
500
702
766
933
1246
1186
568
-90
-454
-662
-818
-917
-985
-1020
-1058
-1120
-1077
-874
-677
-598
-583
-588
-602
-611
-626
-635
-582
-459
-321
-185
-40
100
205
276
322
348
366
374
350
286
241
265
308
313
311
322
314
280
224
152
116
131
149
149
153
160
162
183
235
293
341
377
416
517
724
932
1026
1048
1018
862
615
411
257
63
-148
-262
-271
-263
-272
-287
-314
-347
-367
-387
-428
-495
-568
-632
-697
-772
-846
-901
-922
-911
-877
-803
-695
-621
-597
-574
-552
-560
-581
-599
-593
-544
-508
-523
-498
-381
-236
-46
245
562
816
975
942
809
939
1244
1151
676
432
525
589
584
635
657
595
551
549
517
452
408
381
339
284
237
223
245
263
273
312
343
296
213
155
83
-15
-81
-113
-148
-173
-182
-196
-201
-174
-139
-109
-76
-58
-55
-31
24
69
89
99
96
86
85
75
44
23
9
-38
-107
-168
-219
-250
-258
-271
-290
-293
-292
-305
-314
-310
-307
-303
-286
-273
-282
-298
-297
-282
-268
-246
-196
-155
-156
-151
-101
-58
-59
-61
-37
-6
20
15
-25
-32
42
128
158
148
132
118
100
77
48
8
-22
-18
-25
-39
35
169
301
485
538
181
-274
-336
-180
-167
-213
-198
-206
-233
-215
-189
-186
-167
-130
-107
-98
-81
-52
-15
26
66
103
128
139
140
136
124
92
44
10
5
-3
-40
-75
-77
-67
-70
-75
-80
-87
-77
-43
3
74
155
264
499
807
992
1118
1284
1187
650
67
-218
-309
-353
-351
-331
-331
-338
-347
-369
-382
-372
-368
-389
-413
-418
-417
-406
-360
-276
-164
-27
110
215
292
354
393
405
431
532
676
783
932
1195
1273
852
175
-282
-411
-403
-394
-400
-402
-408
-439
-475
-491
-511
-545
-562
-567
-587
-593
-549
-478
-386
-253
-109
-12
27
36
24
-15
-52
-45
-21
-53
-126
-163
-162
-180
-228
-279
-313
-318
-304
-307
-310
-276
-234
-215
-211
-226
-239
-189
-96
-27
27
98
169
228
281
312
318
334
366
384
390
418
463
495
522
558
577
574
596
634
620
552
475
393
307
257
243
219
171
124
98
84
55
10
-16
-12
-33
-92
-119
-92
-94
-151
-170
-113
-66
-93
-155
-188
-187
-170
-115
-20
52
86
129
155
144
177
269
390
600
717
377
-193
-388
-228
-145
-200
-226
-210
-209
-255
-329
-384
-421
-461
-484
-482
-476
-463
-441
-399
-325
-243
-187
-138
-83
-43
-6
65
146
194
200
184
172
152
89
6
-44
-67
-90
-111
-113
-99
-90
-68
4
81
105
159
353
596
745
863
1070
1225
992
347
-264
-494
-482
-475
-482
-464
-461
-481
-508
-533
-545
-568
-614
-629
-605
-604
-625
-603
-542
-476
-374
-217
-46
121
280
379
373
312
258
210
155
109
74
36
3
-16
-19
-7
24
75
119
141
161
187
212
242
256
238
217
214
200
165
143
163
175
127
92
151
230
231
180
141
152
184
177
152
158
154
143
152
118
113
280
491
658
856
802
309
-51
99
304
275
247
293
297
282
308
347
367
370
382
426
501
581
633
688
790
893
911
852
774
695
572
408
307
249
-14
-532
-1008
-1323
-1642
-1992
-2261
-2460
-2640
-2757
-2730
-2548
-2303
-2078
-1882
-1706
-1537
-1360
-1201
-1092
-1012
-935
-841
-731
-642
-566
-453
-324
-213
-124
-89
-23
201
451
635
861
887
451
40
102
284
284
309
421
475
497
556
610
636
667
711
764
835
908
944
956
1002
1084
1160
1218
1208
1065
854
684
535
366
215
113
53
31
40
59
48
-14
-76
-73
7
167
373
564
793
1100
1347
1540
1858
2084
1770
1050
471
247
237
285
319
365
414
386
355
409
383
161
-87
-257
-418
-557
-610
-609
-594
-551
-461
-323
-166
-49
9
34
39
26
-7
-57
-87
-78
-82
-117
-108
-36
41
105
166
208
246
299
334
341
353
374
405
495
613
621
488
332
212
103
-9
-104
-166
-193
-181
-113
-35
-39
-103
-130
-104
-83
-102
-123
-91
-60
-88
-125
-153
-213
-321
-483
-595
-562
-690
-1234
-1748
-1834
-1832
-1950
-1919
-1809
-1948
-2178
-2197
-2141
-2230
-2396
-2523
-2619
-2701
-2777
-2862
-2942
-2986
-3006
-3032
-3056
-3060
-3036
-2947
-2719
-2333
-1859
-1392
-998
-689
-423
-131
205
527
800
1067
1336
1580
1827
2088
2363
2691
3011
3250
3493
3627
3349
2820
2513
2480
2493
2503
2521
2509
2484
2464
2429
2391
2348
2270
2183
2130
2097
2055
2016
2005
2027
2073
2135
2227
2329
2374
2379
2373
2283
2170
2190
2187
1984
1823
1786
1426
550
-231
-295
-82
-538
-1564
-2301
-2586
-2776
-2892
-2834
-2652
-2379
-2085
-1857
-1637
-1389
-1248
-1238
-1159
-957
-788
-678
-522
-313
-101
113
335
548
709
771
768
794
848
856
895
996
780
-68
-1194
-2100
-2786
-3391
-3879
-4282
-4651
-4939
-5206
-5483
-5538
-5327
-5142
-4956
-4487
-3867
-3373
-2913
-2377
-1869
-1423
-1000
-633
-314
11
321
600
877
1144
1388
1632
1874
2089
2288
2472
2634
2812
3031
3241
3387
3499
3635
3775
3886
3999
4143
4281
4372
4447
4569
4694
4725
4787
5020
5063
4473
3478
2589
1903
1310
845
482
110
-233
-482
-739
-982
-1053
-1053
-1090
-1024
-1084
-1638
-2226
-2271
-2107
-2144
-2197
-2147
-2132
-2149
-2125
-2083
-2045
-2003
-1952
-1896
-1838
-1770
-1694
-1623
-1544
-1429
-1301
-1196
-1097
-993
-910
-862
-833
-820
-817
-807
-799
-808
-803
-780
-767
-745
-684
-627
-597
-541
-427
-290
-175
-48
207
584
928
1228
1560
1690
1292
529
-99
-364
-412
-421
-438
-447
-445
-432
-406
-381
-372
-372
-372
-375
-374
-360
-340
-306
-229
-90
80
239
381
499
571
596
577
509
469
499
481
425
563
828
800
390
-67
-342
-422
-346
-229
-152
-43
126
250
287
295
295
289
299
322
339
362
414
496
595
692
778
876
962
951
844
735
619
457
311
183
22
-94
-140
-173
-7
293
1
-1012
-1741
-1688
-1431
-1308
-1178
-1068
-1010
-852
-595
-400
-332
-343
-366
-366
-348
-335
-328
-307
-258
-193
-110
3
103
166
228
236
160
192
426
709
1072
1583
1937
1995
2165
2675
3144
3114
2618
2074
1723
1459
1200
995
840
692
555
453
399
361
276
159
66
-13
-92
-151
-178
-206
-267
-326
-342
-369
-425
-401
-303
-214
-85
-23
-288
-674
-734
-572
-527
-567
-569
-574
-592
-595
-603
-610
-596
-581
-571
-551
-522
-490
-450
-403
-349
-285
-216
-162
-130
-109
-99
-113
-140
-171
-213
-262
-295
-313
-335
-363
-388
-401
-402
-404
-405
-405
-414
-410
-367
-318
-299
-278
-226
-154
-37
123
229
315
547
766
558
-38
-528
-698
-724
-753
-787
-819
-839
-850
-872
-908
-951
-1002
-1055
-1106
-1161
-1164
-1053
-914
-885
-927
-910
-810
-694
-603
-530
-469
-440
-459
-498
-536
-586
-645
-689
-724
-757
-777
-791
-811
-832
-863
-900
-869
-724
-543
-387
-240
-115
-19
98
225
370
637
939
1039
968
909
862
770
672
638
724
859
948
1144
1583
2113
2665
3135
3081
2568
2405
2786
3086
3158
3385
3791
4025
3842
3337
2815
2441
2138
1841
1579
1337
1091
897
761
616
493
470
463
349
175
18
-144
-320
-483
-645
-806
-924
-1002
-1081
-1152
-1193
-1218
-1245
-1265
-1264
-1248
-1245
-1247
-1220
-1166
-1130
-1143
-1190
-1232
-1251
-1263
-1264
-1242
-1236
-1238
-1190
-1165
-1200
-1117
-925
-812
-656
-443
-607
-1082
-1234
-1043
-959
-978
-913
-849
-843
-819
-783
-765
-725
-653
-600
-568
-517
-457
-405
-310
-175
-88
-46
34
120
142
121
84
19
-52
-98
-126
-147
-149
-129
-102
-68
-28
19
85
164
274
495
779
1006
1296
1684
1722
1141
411
14
-120
-194
-223
-209
-197
-198
-204
-213
-218
-215
-214
-228
-252
-276
-289
-273
-218
-137
-29
119
296
451
542
588
616
602
551
515
494
461
442
450
444
427
410
372
339
342
318
259
249
271
245
203
206
222
208
174
146
149
164
139
91
80
94
85
69
85
121
127
93
57
42
35
32
37
36
35
46
35
17
70
162
227
326
360
103
-257
-329
-191
-138
-174
-189
-187
-193
-213
-227
-212
-195
-202
-203
-182
-159
-140
-111
-64
-8
42
101
161
178
169
182
180
136
95
57
-3
-49
-57
-62
-79
-87
-80
-86
-109
-116
-89
-69
-87
-103
-70
-35
-60
-110
-130
-139
-158
-160
-142
-142
-147
-126
-130
-156
-103
-2
77
185
207
-57
-357
-345
-192
-166
-180
-146
-130
-137
-123
-108
-111
-114
-111
-106
-91
-64
-32
2
45
99
157
213
260
292
307
305
273
211
140
78
28
-18
-47
-39
-17
-20
-39
-60
-97
-114
-97
-103
-124
-83
-12
-5
-55
-86
-87
-105
-140
-131
-105
-135
-160
-140
-159
-153
-25
106
264
508
443
-90
-474
-378
-222
-235
-246
-217
-207
-197
-187
-182
-154
-114
-84
-57
-36
-11
39
93
136
201
285
344
388
441
464
422
342
258
170
84
23
-6
-18
-26
-36
-43
-49
-54
-33
6
27
65
180
350
572
825
971
1066
1359
1627
1326
550
-82
-343
-426
-458
-466
-477
-491
-506
-521
-524
-527
-546
-574
-609
-655
-696
-718
-714
-685
-629
-530
-384
-216
-64
66
176
234
206
151
127
93
31
15
39
26
-7
1
18
18
32
53
50
43
53
64
68
77
81
60
35
45
58
31
15
59
124
151
130
82
43
35
51
58
35
23
49
32
-6
88
226
304
548
833
563
-85
-322
-161
-115
-169
-144
-124
-145
-150
-154
-160
-148
-125
-111
-120
-131
-104
-60
-32
3
67
135
189
234
266
281
269
229
180
133
83
33
0
-16
-23
-35
-59
-81
-88
-92
-94
-91
-95
-92
-51
-8
-20
-69
-111
-137
-148
-145
-148
-169
-167
-138
-147
-151
-60
38
141
366
439
57
-353
-342
-193
-199
-207
-152
-147
-162
-138
-115
-112
-104
-98
-103
-106
-93
-63
-25
15
79
162
220
263
313
326
284
232
175
96
24
-26
-53
-60
-67
-79
-73
-69
-88
-85
-42
7
62
123
190
372
660
818
874
1097
1284
1010
451
38
-202
-361
-393
-374
-413
-442
-429
-461
-473
-360
-267
-333
-431
-458
-490
-540
-531
-479
-435
-364
-238
-103
22
148
234
246
232
211
155
105
97
80
49
54
65
47
38
45
33
14
11
11
0
-7
-6
-9
-28
-56
-76
-88
-109
-123
-106
-82
-71
-42
-1
8
-15
-28
-27
-28
-26
-15
-13
-15
1
-6
-34
13
112
181
280
321
68
-281
-324
-167
-118
-136
-112
-109
-137
-140
-126
-123
-118
-103
-88
-75
-49
-8
28
55
99
164
229
283
328
361
373
362
327
270
200
147
114
80
52
49
55
39
5
-8
16
48
92
180
276
408
683
975
1095
1259
1553
1451
750
65
-210
-310
-383
-377
-372
-422
-448
-446
-472
-512
-538
-573
-638
-704
-734
-749
-777
-782
-730
-636
-495
-315
-145
-15
85
144
146
105
67
54
38
9
2
18
26
36
48
36
17
26
50
63
53
40
42
42
27
27
35
-2
-57
-55
-18
-32
-71
-43
40
88
69
19
-13
-23
-45
-57
-38
-40
-57
-53
-82
-90
37
186
317
511
463
-37
-429
-329
-161
-202
-233
-194
-195
-205
-182
-166
-164
-155
-140
-125
-108
-79
-42
-7
31
98
181
248
294
339
374
367
318
254
190
132
81
41
28
38
28
-11
-32
-34
-45
-49
-30
-24
-49
-56
-1
70
66
-8
-55
-50
-50
-62
-54
-67
-113
-105
-64
-97
-94
36
137
257
511
503
21
-337
-236
-105
-148
-149
-103
-114
-130
-109
-95
-97
-84
-53
-34
-31
-12
24
55
96
170
249
310
373
436
453
410
345
285
219
147
94
79
87
85
66
51
50
52
49
46
43
31
25
48
84
104
101
73
27
-4
-17
-29
-37
-49
-62
-70
-107
-135
-83
-18
91
376
497
85
-395
-419
-277
-299
-338
-313
-318
-348
-366
-368
-359
-366
-383
-383
-375
-369
-345
-312
-279
-222
-147
-102
-78
-41
-15
-34
