# session 246
-37
32
31
-28
-64
-45
-31
-53
-57
-32
-35
-44
-20
-34
-62
42
227
373
534
527
103
-337
-320
-135
-142
-178
-141
-155
-189
-168
-155
-171
-159
-129
-124
-128
-106
-62
-28
-13
8
52
99
143
198
252
286
310
330
331
315
284
233
165
102
51
-5
-64
-93
-97
-117
-138
-128
-112
-104
-96
-113
-137
-118
-92
-95
-90
-80
-94
-74
-3
35
13
-16
-31
-36
-25
-11
-9
14
70
96
84
97
104
71
109
244
372
508
538
207
-232
-291
-112
-75
-122
-105
-88
-91
-73
-56
-55
-56
-58
-58
-56
-57
-54
-36
-12
13
41
68
108
176
237
263
284
307
295
240
147
35
-37
-66
-109
-166
-201
-226
-238
-227
-209
-188
-170
-180
-191
-179
-180
-203
-208
-203
-202
-171
-79
48
149
227
363
538
656
808
1094
1280
1071
554
49
-253
-352
-354
-353
-364
-366
-364
-367
-367
-372
-389
-405
-422
-452
-482
-506
-541
-576
-594
-603
-593
-538
-446
-328
-182
-51
45
150
246
263
235
235
239
221
217
235
234
206
180
175
177
166
159
170
173
173
206
251
271
279
272
228
175
153
144
121
98
90
87
75
51
33
34
39
24
6
25
72
89
59
19
-11
-32
-38
-46
-67
-77
-76
-82
-69
-61
-109
-113
-8
99
267
537
508
25
-344
-295
-194
-232
-246
-217
-223
-237
-228
-220
-227
-240
-241
-220
-179
-151
-163
-174
-138
-85
-58
-44
-16
30
96
165
199
188
159
133
98
44
-11
-55
-91
-117
-128
-126
-115
-105
-99
-80
-48
-18
35
108
166
298
577
841
1040
1349
1583
1294
584
-13
-284
-354
-347
-340
-358
-354
-337
-347
-353
-332
-329
-351
-359
-361
-382
-395
-377
-352
-325
-280
-219
-154
-72
26
117
186
218
215
203
205
216
223
217
198
168
134
112
98
81
63
50
35
19
12
9
1
-12
-17
-16
-17
-23
-29
-37
-46
-55
-69
-80
-79
-79
-85
-85
-82
-77
-73
-77
-81
-77
-85
-102
-106
-114
-132
-118
-87
-109
-167
-159
-69
-10
-43
-96
-98
-74
-76
-99
-105
-96
-107
-113
-83
-85
-141
-126
-27
83
329
641
528
-24
-351
-261
-176
-216
-215
-189
-192
-181
-161
-156
-142
-113
-89
-69
-43
-23
-10
13
40
54
74
120
173
206
224
257
306
335
328
312
298
260
194
128
81
46
11
-13
-13
-10
-13
-4
15
65
169
264
368
618
920
1085
1278
1526
1361
717
162
-63
-162
-207
-195
-206
-236
-247
-261
-277
-282
-299
-334
-367
-395
-427
-464
-508
-544
-543
-505
-457
-394
-291
-162
-45
43
91
96
86
68
18
-38
-56
-57
-72
-86
-86
-78
-65
-58
-69
-81
-77
-73
-87
-103
-108
-110
-118
-129
-142
-138
-113
-103
-115
-119
-111
-111
-109
-97
-88
-102
-131
-147
-144
-140
-132
-107
-85
-89
-121
-147
-136
-128
-167
-195
-132
-34
1
-4
5
17
23
34
41
42
41
30
37
59
25
9
134
293
454
700
701
201
-263
-241
-77
-80
-107
-89
-91
-91
-78
-79
-75
-46
-23
-23
-21
-1
36
72
91
107
141
185
230
284
335
379
425
469
492
489
451
374
284
204
135
80
43
21
7
-5
-17
-26
-31
-43
-46
-28
-10
20
102
207
346
589
845
1008
1216
1436
1278
667
42
-285
-380
-398
-408
-418
-416
-417
-433
-439
-424
-431
-470
-487
-469
-473
-522
-576
-610
-626
-619
-594
-560
-488
-363
-234
-137
-55
4
20
15
-3
-41
-79
-111
-142
-151
-133
-120
-112
-100
-104
-119
-122
-120
-133
-138
-114
-88
-86
-85
-68
-47
-33
-24
-19
-17
-16
-16
-9
0
-5
-6
11
7
-21
-21
1
-1
-8
0
5
29
92
122
89
66
75
67
52
62
83
88
68
48
75
112
99
115
208
296
414
539
389
6
-144
8
119
114
118
122
108
101
91
71
60
53
48
48
42
28
20
24
36
56
85
114
135
158
187
208
214
213
205
182
151
115
61
-4
-49
-73
-97
-118
-122
-117
-109
-101
-87
-31
56
115
212
431
652
852
1185
1416
1084
355
-179
-360
-420
-474
-498
-499
-506
-527
-553
-562
-548
-529
-516
-511
-521
-544
-566
-583
-588
-571
-532
-477
-392
-279
-175
-96
-15
62
95
79
53
34
15
-2
-16
-28
-27
-15
-6
-3
12
42
66
112
259
495
718
929
1144
1196
968
622
339
158
70
-5
-146
-265
-263
-220
-222
-233
-220
-211
-217
-231
-250
-267
-284
-317
-354
-369
-366
-368
-367
-324
-221
-99
-22
13
54
115
173
211
231
243
235
211
195
187
173
159
141
115
107
109
93
81
92
94
80
73
64
45
36
39
34
28
22
4
-16
-19
-11
-3
-3
-17
-28
-23
-21
-40
-64
-65
-52
-56
-75
-83
-74
-62
-49
-38
-35
-33
-34
-41
-30
-15
-47
-89
-66
-29
-68
-126
-116
-76
-66
-80
-97
-105
-106
-131
-171
-161
-98
-59
-67
-84
-89
-76
-52
-41
-26
2
6
9
43
31
14
133
307
478
729
747
242
-256
-245
-76
-95
-135
-105
-94
-103
-98
-75
-44
-43
-69
-59
-27
-33
-39
10
51
46
62
117
146
161
216
269
278
300
352
377
366
343
297
222
143
73
27
3
-19
-46
-64
-75
-78
-74
-75
-74
-58
-43
-47
-46
-20
-13
-51
-69
-26
4
-28
-73
-102
-122
-121
-111
-127
-143
-128
-125
-137
-123
-121
-138
-86
24
188
483
627
248
-286
-396
-247
-216
-240
-212
-206
-224
-204
-160
-136
-142
-149
-143
-148
-163
-164
-142
-90
-16
34
52
77
118
148
165
175
171
147
105
46
-20
-80
-122
-138
-134
-122
-113
-102
-87
-73
-67
-66
-58
-48
-58
-77
-67
-40
-45
-68
-58
-13
33
44
12
-10
3
0
-26
-21
14
32
13
-7
22
57
28
34
153
266
358
451
322
-28
-180
-46
62
88
141
164
135
126
114
76
59
67
67
67
81
100
114
121
130
145
166
190
213
239
267
282
279
266
244
200
134
64
6
-42
-86
-116
-123
-124
-131
-139
-145
-147
-141
-126
-119
-137
-169
-176
-154
-142
-160
-167
-132
-91
-93
-113
-109
-110
-139
-152
-135
-129
-141
-155
-173
-151
-82
-64
-75
-9
101
268
526
525
50
-383
-378
-253
-262
-264
-217
-202
-195
-171
-158
-147
-132
-121
-104
-76
-58
-50
-31
-1
25
54
97
138
174
228
271
271
265
271
247
192
135
66
-1
-38
-55
-61
-54
-60
-83
-94
-78
-60
-59
-61
-48
-46
-67
-70
-31
9
10
4
47
118
154
157
159
153
137
128
119
100
91
84
58
54
58
10
-12
60
149
339
654
641
132
-262
-214
-114
-155
-168
-140
-146
-145
-120
-109
-109
-94
-78
-91
-99
-54
-9
-20
-29
13
53
77
125
174
190
214
263
273
228
194
179
126
46
-11
-49
-72
-74
-91
-132
-158
-179
-216
-239
-240
-255
-270
-252
-233
-237
-240
-226
-200
-166
-142
-129
-88
-35
-32
-70
-93
-96
-98
-99
-104
-99
-78
-76
-83
-45
-28
-71
-30
103
227
482
779
597
16
-249
-110
-38
-99
-104
-76
-66
-66
-96
-132
-135
-128
-139
-149
-106
4
126
214
276
315
327
333
347
363
386
409
412
395
365
308
224
144
82
24
-28
-53
-55
-63
-81
-96
-106
-115
-118
-116
-127
-140
-143
-142
-146
-157
-164
-155
-128
-101
-102
-124
-108
-40
-1
-43
-99
-113
-110
-118
-128
-135
-139
-158
-192
-193
-177
-185
-132
19
167
341
487
260
-259
-473
-318
-238
-280
-253
-206
-193
-155
-113
-110
-110
-90
-68
-48
-26
-8
5
20
44
80
123
160
199
263
336
380
391
384
368
333
258
161
85
26
-29
-62
-72
-86
-97
-101
-109
-117
-115
-105
-90
-67
-35
-12
-18
-31
-22
6
50
117
174
217
299
408
502
631
786
866
961
1212
1370
1084
487
-1
-212
-263
-272
-280
-295
-308
-301
-291
-301
-327
-348
-362
-375
-396
-427
-455
-480
-513
-541
-551
-554
-543
-501
-439
-354
-222
-74
16
44
56
51
20
-6
-8
-16
-42
-65
-65
-44
-18
-11
-37
-71
-72
-43
-25
-36
-58
-77
-82
-71
-62
-64
-68
-84
-115
-137
-134
-123
-119
-117
-112
-101
-87
-79
-76
-58
-27
-19
-32
-4
66
100
79
55
54
47
28
29
41
28
6
13
52
61
9
21
156
272
400
641
648
208
-153
-94
21
-19
-29
17
10
-16
-5
17
24
25
20
4
19
89
147
160
191
247
271
268
275
296
327
359
376
375
363
339
300
245
180
111
47
4
-20
-47
-74
-82
-79
-82
-66
3
83
168
358
616
785
979
1293
1300
709
4
-325
-407
-442
-396
-334
-373
-445
-468
-485
-519
-535
-536
-553
-591
-625
-637
-638
-632
-604
-572
-562
-528
-440
-357
-317
-251
-121
-36
-3
86
87
-66
-9
90
-374
-842
-466
68
3
-136
-21
1
-53
-5
33
28
54
73
72
89
94
75
77
95
88
64
56
65
68
62
60
60
58
64
77
73
57
57
72
69
48
48
74
86
78
86
101
94
81
87
98
89
70
78
117
150
150
128
120
150
195
211
195
182
165
138
137
135
98
119
223
319
482
678
515
8
-257
-148
-73
-119
-121
-103
-119
-127
-128
-141
-142
-128
-121
-125
-126
-115
-100
-78
-47
-19
-3
26
72
107
124
156
193
184
154
164
163
93
18
-21
-64
-105
-111
-117
-144
-136
-88
-79
-91
-25
80
152
306
561
781
1038
1285
1062
329
-258
-397
-404
-452
-445
-390
-372
-395
-419
-431
-438
-438
-426
-416
-418
-424
-435
-464
-485
-480
-468
-446
-376
-268
-173
-90
4
83
112
107
93
79
70
52
28
21
29
37
47
47
28
24
51
70
67
74
89
81
66
69
74
77
92
101
102
115
131
147
178
189
163
140
134
121
106
100
101
104
102
90
79
76
65
47
41
35
12
-5
-1
2
-14
-30
-27
0
28
16
-30
-53
-52
-67
-87
-77
-56
-63
-87
-76
-37
-50
-86
-26
99
268
553
670
265
-274
-378
-239
-235
-273
-235
-217
-215
-182
-173
-196
-189
-166
-172
-188
-193
-186
-154
-95
-45
-9
35
78
105
132
170
196
198
187
171
146
118
93
62
30
12
2
-15
-26
-31
-38
-34
-14
20
89
181
295
529
865
1137
1374
1615
1490
794
14
-361
-397
-332
-292
-323
-375
-380
-363
-378
-413
-429
-424
-427
-443
-455
-470
-495
-511
-503
-478
-434
-348
-220
-89
28
140
228
260
244
206
163
136
120
92
64
51
46
49
54
47
29
8
-3
8
17
10
7
11
5
-4
4
10
-4
-26
-40
-38
-28
-36
-53
-42
-25
-45
-69
-66
-66
-70
-56
-50
-73
-97
-108
-110
-116
-131
-142
-133
-117
-124
-127
-77
6
38
3
-25
-17
-17
-43
-66
-81
-96
-115
-108
-58
-44
-92
-46
122
265
403
487
223
-236
-355
-175
-104
-130
-92
-63
-78
-65
-42
-49
-57
-49
-43
-41
-31
-11
9
27
42
59
86
119
163
221
261
277
300
318
308
285
251
203
158
112
56
24
17
-1
-16
-14
-24
-38
-24
15
80
164
247
406
681
926
1158
1520
1695
1247
482
-5
-174
-248
-281
-289
-306
-316
-323
-338
-349
-360
-384
-406
-422
-452
-490
-512
-519
-526
-527
-500
-440
-358
-261
-157
-64
6
54
64
29
-10
-35
-68
-82
-60
-72
-112
-105
-90
-113
-113
-86
-109
-160
-163
-121
-93
-94
-105
-130
-147
-112
-64
-66
-90
-97
-103
-99
-73
-80
-135
-168
-146
-113
-89
-60
-39
-44
-67
-96
-115
-108
-87
-92
-101
-58
19
59
61
61
62
63
71
76
78
84
82
73
87
84
50
87
202
341
565
709
424
-66
-207
-74
-43
-64
-14
-5
-51
-53
-21
-10
-13
-9
-2
-1
6
37
65
67
77
109
137
181
254
309
334
373
425
443
415
362
302
239
174
116
72
41
14
0
1
1
-4
4
19
44
108
183
271
471
728
895
1045
1182
992
446
-32
-234
-307
-344
-356
-372
-390
-394
-397
-407
-422
-438
-461
-494
-512
-518
-572
-648
-652
-614
-618
-611
-519
-399
-308
-214
-99
-9
26
26
10
-20
-51
-73
-96
-128
-152
-152
-131
-105
-88
-88
-96
-101
-99
-92
-87
-86
-89
-89
-80
-66
-49
-28
-6
10
20
24
20
11
3
-2
-1
-1
-8
-17
-15
-6
-6
-22
-28
-13
-9
-33
-41
6
59
63
40
22
4
4
25
21
6
33
66
81
117
119
78
156
327
442
596
704
411
-47
-111
88
134
83
85
78
52
48
50
52
55
45
38
48
50
30
21
37
58
84
131
181
218
260
305
334
354
367
356
320
275
223
160
97
45
7
-20
-45
-78
-103
-97
-96
-127
-130
-85
-53
-28
42
152
341
614
826
1022
1387
1602
1162
326
-233
-399
-456
-486
-463
-461
-501
-516
-503
-514
-544
-566
-584
-606
-627
-646
-666
-693
-724
-735
-712
-660
-581
-469
-338
-210
-90
8
62
65
40
12
-19
-45
-56
-63
-69
-60
-53
-64
-70
-50
-26
-21
-31
-34
-15
-1
-16
-25
-3
10
-8
-17
5
15
-16
-34
-10
6
-2
4
20
20
5
-4
14
30
5
-20
19
112
186
196
179
187
210
217
203
186
186
190
178
179
173
122
139
260
358
523
779
682
161
-137
-18
81
50
54
56
30
39
47
34
51
