# session 154
9
1
-43
-110
-188
-269
-318
-323
-324
-338
-338
-313
-294
-300
-295
-260
-243
-251
-216
-128
-28
72
161
272
445
619
797
1089
1358
1257
749
144
-293
-506
-557
-542
-530
-533
-538
-544
-555
-575
-603
-624
-629
-654
-710
-733
-716
-711
-687
-572
-395
-236
-105
33
152
198
193
193
195
169
144
150
159
142
134
159
173
160
156
161
154
151
153
136
110
110
112
87
90
162
222
202
157
146
142
111
93
111
103
71
82
87
67
135
229
283
481
665
367
-146
-235
-55
-50
-114
-85
-76
-103
-93
-77
-82
-77
-58
-37
-22
-21
-13
30
82
121
167
223
271
293
277
246
225
192
131
69
17
-21
-34
-33
-41
-56
-71
-77
-63
-47
-56
-70
-51
-8
5
-34
-83
-102
-106
-109
-101
-107
-139
-132
-99
-128
-151
-69
37
171
339
243
-166
-399
-278
-160
-177
-179
-158
-162
-152
-132
-136
-145
-129
-113
-113
-103
-69
-33
-5
41
109
162
188
220
248
230
178
130
82
24
-18
-34
-34
-24
-15
-13
-16
-12
12
50
63
49
57
98
118
86
43
30
27
5
-4
9
3
-3
16
-8
-41
15
108
273
613
743
296
-218
-247
-102
-138
-182
-122
-89
-112
-129
-128
-119
-117
-126
-109
-74
-58
-43
6
64
106
144
187
229
251
237
197
144
74
0
-51
-97
-135
-130
-107
-126
-170
-197
-207
-194
-179
-194
-184
-115
-71
-75
-70
-64
-41
49
152
253
424
584
687
946
1330
1354
826
151
-287
-463
-488
-469
-471
-482
-490
-514
-532
-536
-569
-622
-646
-661
-711
-766
-793
-801
-781
-697
-562
-423
-291
-149
-21
58
90
93
76
59
53
31
4
11
25
14
19
44
38
21
40
53
11
-21
25
110
160
169
158
134
110
97
107
130
135
150
192
179
166
296
442
547
794
896
436
-84
-69
124
100
61
106
94
60
72
81
94
128
133
114
128
168
198
226
271
322
367
413
463
490
474
440
397
307
198
143
121
82
69
94
81
29
9
35
68
75
57
68
127
161
135
92
56
38
53
55
8
-27
-10
-1
-34
-24
38
53
182
585
764
292
-254
-310
-205
-240
-241
-185
-199
-233
-232
-230
-229
-219
-211
-199
-178
-172
-192
-193
-145
-98
-93
-90
-67
-63
-86
-124
-188
-256
-299
-342
-401
-435
-443
-459
-483
-519
-569
-592
-586
-595
-612
-605
-588
-581
-598
-648
-700
-726
-757
-795
-807
-820
-848
-841
-853
-929
-917
-736
-460
-97
178
82
-138
-33
235
339
379
460
512
555
600
588
577
619
637
628
671
735
753
754
784
826
853
853
831
802
774
723
630
531
466
403
321
276
277
261
229
225
213
170
166
218
240
217
233
289
292
239
213
226
213
158
113
84
49
35
27
-25
-51
3
75
214
394
290
-119
-350
-261
-188
-229
-242
-231
-241
-246
-235
-220
-215
-223
-226
-220
-220
-222
-221
-214
-184
-140
-111
-86
-51
-30
-42
-85
-157
-240
-312
-353
-353
-334
-330
-330
-311
-290
-280
-268
-251
-241
-216
-149
-94
-96
-110
-106
-123
-148
-128
-95
-80
-17
105
151
127
221
411
580
894
1216
888
-17
-563
-521
-444
-483
-472
-446
-417
-343
-275
-227
-187
-193
-205
-177
-167
-184
-175
-179
-203
-152
-24
98
223
366
462
491
516
569
607
571
490
456
479
496
494
483
473
489
511
497
494
542
611
650
585
411
273
223
138
11
-73
-135
-188
-226
-289
-288
-171
-106
-78
0
-160
-597
-773
-589
-507
-581
-565
-505
-514
-531
-511
-488
-478
-461
-427
-406
-404
-356
-258
-193
-156
-72
37
106
138
159
159
111
17
-78
-146
-186
-191
-183
-204
-232
-232
-215
-190
-153
-126
-113
-93
-46
21
57
25
-13
-3
-7
-43
-35
-3
-13
-14
13
2
24
125
216
412
740
706
167
-205
-107
11
-40
-42
7
-1
-11
10
11
11
47
65
56
89
140
138
137
207
297
335
325
315
340
354
284
181
128
95
40
3
-9
-30
-40
-13
8
15
79
199
274
280
292
300
249
182
142
88
20
-17
-23
-27
-33
-28
-36
-67
-44
38
86
192
377
294
-113
-338
-218
-117
-161
-181
-154
-156
-175
-178
-171
-163
-155
-142
-124
-96
-68
-43
0
61
111
143
179
213
210
166
115
63
-3
-69
-116
-143
-154
-155
-162
-180
-192
-187
-173
-163
-159
-151
-122
-78
-63
-86
-107
-112
-115
-108
-90
-88
-96
-85
-80
-102
-84
-14
55
198
358
207
-200
-368
-240
-170
-199
-185
-172
-187
-161
-116
-106
-99
-71
-46
-32
-6
33
70
111
161
210
260
305
324
312
287
246
177
100
39
1
-22
-37
-45
-47
-58
-82
-88
-55
-27
-41
-43
18
77
71
48
45
21
4
53
116
159
260
379
401
452
671
899
1020
1048
800
247
-190
-281
-259
-277
-282
-276
-281
-289
-314
-351
-376
-394
-408
-424
-462
-503
-523
-539
-547
-505
-421
-331
-240
-147
-74
-29
4
25
8
-31
-40
-32
-51
-63
-34
-12
-26
-23
8
12
-9
7
70
127
133
88
40
29
29
17
13
11
12
42
41
13
98
239
326
522
693
380
-156
-249
-52
-32
-78
-27
-15
-49
-38
-33
-64
-54
-2
19
5
14
53
91
135
218
314
368
397
426
423
370
310
248
149
51
7
-27
-75
-85
-67
-75
-81
-43
-1
8
-2
2
37
80
72
14
-22
-28
-55
-78
-67
-73
-99
-106
-123
-114
-27
49
195
528
621
151
-322
-333
-234
-281
-294
-262
-277
-274
-252
-273
-279
-248
-244
-252
-230
-209
-191
-147
-99
-69
-41
-14
4
7
-13
-41
-60
-98
-171
-231
-237
-224
-235
-259
-267
-268
-295
-329
-326
-303
-294
-280
-254
-218
-127
21
158
257
339
397
400
367
408
555
679
768
895
927
890
1045
1120
661
83
-34
56
-2
-80
-91
-122
-156
-162
-168
-173
-177
-194
-200
-178
-158
-150
-128
-85
-47
-25
5
86
231
357
351
234
107
7
-73
-124
-153
-176
-191
-201
-217
-236
-237
-219
-220
-236
-218
-170
-159
-202
-242
-250
-279
-317
-281
-210
-205
-205
-181
-225
-244
-112
23
123
281
284
24
-132
-52
-15
-79
-107
-113
-122
-101
-80
-84
-78
-59
-56
-51
-24
6
41
104
188
257
319
399
503
615
697
686
559
387
261
196
139
70
34
45
36
-15
-44
-26
-21
-49
-58
-21
19
18
-19
-64
-98
-115
-106
-87
-98
-106
-77
-92
-141
-64
86
203
364
391
7
-412
-398
-220
-214
-233
-188
-197
-217
-174
-144
-158
-145
-91
-28
20
34
47
99
149
183
241
301
306
271
240
196
112
5
-93
-154
-170
-176
-198
-204
-180
-179
-203
-184
-137
-139
-166
-133
-54
-8
-24
-81
-119
-106
-90
-100
-108
-107
-91
-66
-82
-68
68
197
249
310
204
-171
-393
-249
-91
-97
-116
-106
-99
-83
-81
-90
-75
-61
-57
-27
12
27
52
116
187
251
321
371
381
366
329
245
135
59
21
-17
-47
-53
-55
-53
-25
5
20
63
144
216
318
552
861
1097
1321
1620
1703
1244
467
-139
-415
-501
-536
-574
-599
-582
-569
-613
-672
-692
-708
-743
-773
-793
-809
-795
-738
-641
-505
-350
-208
-70
50
95
81
80
80
39
8
24
28
2
8
34
9
-29
-7
4
-53
-80
-39
-35
-57
-33
-22
-67
-88
-73
-61
-43
-41
-69
-51
22
54
21
-22
-50
-72
-83
-83
-87
-71
4
78
87
117
196
248
380
604
551
185
-1
93
128
71
69
71
48
57
65
44
39
47
50
71
101
116
144
193
230
261
312
357
367
367
367
343
295
240
174
117
118
149
145
159
248
316
289
249
247
229
187
180
212
217
163
105
90
85
66
46
9
-25
-12
-20
-74
-51
49
119
214
268
43
-288
-328
-175
-133
-156
-136
-130
-146
-148
-153
-163
-166
-175
-185
-183
-178
-175
-157
-127
-101
-80
-55
-37
-46
-78
-121
-188
-278
-352
-398
-438
-468
-479
-495
-530
-574
-608
-606
-586
-601
-629
-611
-570
-572
-617
-660
-689
-724
-742
-707
-657
-623
-546
-444
-361
-217
-33
116
359
563
300
-167
-182
66
52
-115
-220
-350
-439
-348
-188
-73
38
140
188
239
340
447
529
619
730
830
916
1008
1082
1091
1056
994
884
765
688
628
573
556
533
444
335
269
228
176
121
88
86
86
65
28
-13
-49
-81
-101
-98
-90
-79
-35
-6
-8
93
293
422
518
578
360
9
0
244
322
267
303
370
374
379
417
432
432
454
456
421
420
444
407
343
336
365
375
361
338
303
223
93
-33
-133
-238
-349
-429
-478
-537
-642
-778
-878
-913
-932
-964
-963
-888
-766
-664
-613
-548
-408
-268
-160
66
407
495
83
-555
-990
-1114
-1082
-1025
-977
-939
-908
-872
-821
-762
-713
-679
-653
-635
-628
-610
-575
-531
-466
-349
-184
-15
149
323
466
530
537
533
528
525
519
507
495
484
483
493
493
478
481
495
479
417
330
267
259
262
225
186
195
212
194
172
155
113
64
49
29
-27
-48
-5
0
-30
30
127
207
412
574
301
-151
-235
-73
-28
-52
-44
-54
-53
-24
-29
-39
-9
10
12
39
71
96
146
211
261
304
346
376
396
401
376
330
281
232
172
104
53
41
48
46
30
8
6
28
30
-4
-11
36
53
-10
-74
-87
-104
-140
-126
-82
-92
-130
-156
-184
-179
-125
-57
112
321
199
-241
-480
-396
-331
-353
-337
-328
-357
-352
-329
-336
-337
-312
-282
-253
-223
-190
-125
-26
59
122
199
273
300
292
279
247
189
132
99
83
76
83
88
63
25
21
44
47
30
38
77
103
108
120
125
114
105
82
93
233
404
428
419
585
782
677
252
-144
-223
-83
8
-13
-37
-24
-25
-60
-105
-154
-216
-268
-290
-305
-325
-346
-369
-385
-365
-314
-252
-181
-107
-45
-5
19
26
27
37
43
77
223
437
619
855
1096
950
324
-316
-634
-718
-720
-694
-651
-600
-598
-657
-704
-724
-763
-809
-832
-839
-827
-782
-700
-557
-335
-80
125
257
335
368
369
334
214
40
-39
7
65
107
158
170
153
165
174
135
99
95
91
75
42
6
9
32
2
-78
-155
-210
-236
-240
-261
-289
-290
-285
-277
-228
-154
-101
-54
19
86
115
157
262
372
413
417
425
407
380
400
418
389
386
419
426
479
614
736
931
1165
1000
452
204
374
456
401
459
542
554
609
686
679
637
638
648
621
578
574
608
615
594
627
716
767
761
718
594
393
216
91
-29
-139
-231
-329
-426
-505
-547
-573
-699
-977
-1243
-1342
-1328
-1308
-1284
-1225
-1141
-1075
-1047
-1036
-994
-904
-815
-752
-656
-536
-498
-485
-346
-139
21
102
-3
-253
-340
-197
-76
-45
-10
19
18
8
-18
-25
15
24
-49
-121
-127
-115
-122
-95
-15
36
36
58
87
47
-33
-100
-178
-276
-356
-397
-399
-357
-292
-236
-203
-172
-115
-56
-41
-40
17
95
116
96
90
86
64
52
66
82
85
91
79
55
96
185
263
407
519
315
-45
-129
8
68
56
66
71
73
95
115
116
109
115
136
159
188
228
261
291
343
409
466
515
545
530
488
455
433
394
344
319
322
326
336
367
392
394
411
451
470
474
512
558
556
520
491
461
413
369
340
317
306
293
275
314
357
248
131
230
229
-173
-556
-561
-471
-498
-503
-475
-508
-559
-565
-538
-479
-399
-336
-307
-290
-268
-255
-266
-283
-272
-225
-171
-116
-55
-15
-15
-24
-23
-42
-79
-101
-96
-77
-77
-110
-127
-98
-89
-113
-58
116
289
350
339
403
615
865
998
873
408
-195
-586
-729
-802
-831
-807
-812
-859
-889
-896
-901
-904
-909
-945
-1022
-1085
-1079
-1028
-976
-899
-772
-616
-440
-234
-23
149
257
293
283
261
232
200
194
252
362
424
450
628
893
958
830
601
182
-233
-351
-387
-559
-654
-579
-502
-440
-350
-316
-364
-408
-426
-454
-477
-466
-429
-359
-231
-71
66
182
291
383
445
470
464
453
439
409
378
358
358
396
457
528
613
706
853
1074
1237
1361
1668
1954
1706
1014
431
161
87
103
99
55
59
98
98
82
90
92
60
10
-31
-53
-43
16
114
226
360
540
735
871
909
867
767
627
498
407
305
166
47
-21
-95
-198
-302
-401
-475
-528
-627
-689
-597
-500
-467
-359
-380
-753
-1062
-973
-825
-852
-872
-825
-808
-802
-757
-705
-673
-629
-542
-448
-388
-326
-224
-108
-9
77
152
208
231
207
150
96
52
1
-56
-105
-151
-185
-181
-137
-92
-79
-82
-77
-84
-110
-126
-102
-51
-24
-13
18
9
-43
5
148
264
414
527
323
-39
-123
-4
26
9
27
17
2
31
56
57
68
93
126
166
204
247
314
373
390
388
396
396
361
297
227
160
97
51
17
-13
-12
15
4
-41
-36
10
32
34
35
47
85
94
34
-21
-32
-51
-35
81
195
196
194
351
544
459
61
-335
-503
-506
-471
-449
-447
-457
-470
-484
-505
-527
-537
-527
-512
-514
-540
-575
-590
-553
-465
-362
-259
-156
-75
-36
0
44
57
35
23
26
24
22
27
41
64
73
42
-5
-16
9
16
21
90
200
274
315
381
511
673
786
902
1165
1443
1374
913
395
86
-6
0
6
6
26
40
37
56
91
108
106
