# session 71
-38
1
12
5
-5
-14
-10
0
0
-9
-12
0
35
73
106
160
226
280
363
471
527
553
596
582
476
349
227
103
17
-21
-56
-94
-114
-127
-138
-123
-90
-65
-64
-81
-51
61
148
117
46
24
21
1
-9
-6
-24
-37
-30
-69
-82
73
225
258
382
427
21
-428
-374
-138
-116
-140
-108
-131
-149
-100
-75
-93
-89
-71
-70
-63
-34
3
51
124
208
271
320
377
417
401
348
285
179
36
-64
-106
-148
-186
-190
-190
-205
-213
-199
-156
-104
-86
-71
-13
58
129
222
312
420
589
727
823
1092
1517
1631
1130
347
-205
-417
-476
-497
-501
-511
-521
-522
-526
-545
-575
-609
-630
-655
-700
-734
-740
-750
-752
-694
-588
-462
-301
-128
-11
51
86
82
47
14
-7
-16
-22
-46
-63
-49
-37
-44
-49
-46
-34
-17
-24
-40
-24
-5
-15
-22
2
67
154
181
132
88
80
92
122
131
103
112
129
76
86
229
329
464
750
726
171
-241
-131
29
-19
-51
-23
-31
-35
-5
7
-7
-10
7
25
32
35
57
100
150
200
259
327
382
399
386
362
326
257
161
82
43
11
-27
-39
-39
-71
-110
-114
-112
-136
-171
-194
-189
-148
-110
-120
-152
-161
-160
-161
-146
-123
-112
-89
-74
-81
-35
67
165
299
362
110
-255
-316
-169
-130
-160
-138
-114
-123
-133
-128
-122
-135
-146
-122
-86
-72
-57
-19
22
64
114
171
232
282
300
276
206
102
9
-43
-76
-112
-142
-154
-159
-170
-172
-167
-172
-167
-139
-111
-63
11
24
-37
-71
-64
-83
-101
-84
-88
-112
-90
-81
-103
-16
142
245
439
596
247
-343
-458
-234
-181
-212
-143
-106
-142
-139
-91
-58
-51
-52
-45
-10
54
87
80
118
214
299
370
449
496
483
425
341
241
142
65
16
-28
-73
-89
-78
-83
-98
-82
-40
11
80
165
316
600
879
1000
1158
1461
1475
915
210
-189
-346
-447
-491
-468
-450
-475
-502
-511
-533
-572
-608
-648
-702
-759
-809
-825
-784
-717
-652
-538
-355
-166
-7
106
144
139
137
111
70
67
72
41
25
47
61
73
99
89
51
63
104
90
50
49
60
38
-4
-40
-46
-23
-24
-53
-23
69
116
101
87
67
30
25
54
46
18
43
51
4
57
199
263
413
676
528
-58
-342
-178
-93
-163
-147
-110
-145
-167
-146
-135
-147
-161
-147
-118
-110
-110
-73
-18
23
82
172
224
229
240
244
209
168
131
67
-5
-54
-72
-72
-65
-47
-22
-19
-30
-12
26
42
51
90
160
231
273
335
489
650
720
856
1135
1208
820
254
-125
-277
-308
-304
-313
-331
-348
-376
-394
-393
-410
-441
-459
-481
-527
-557
-546
-515
-476
-405
-295
-166
-42
64
132
149
137
120
89
42
8
-14
-38
-63
-86
-99
-82
-54
-51
-58
-48
-29
-28
-48
-55
-20
24
32
32
69
110
109
80
51
24
8
12
21
18
23
40
13
-20
45
140
219
434
604
299
-232
-369
-198
-147
-191
-171
-145
-156
-162
-149
-128
-117
-117
-102
-76
-61
-40
3
51
107
183
259
316
359
382
377
345
279
182
84
15
-26
-55
-79
-94
-114
-150
-162
-132
-121
-141
-129
-85
-48
-24
-29
-72
-104
-109
-116
-116
-117
-131
-89
-26
-48
-19
158
287
397
577
423
-129
-390
-188
-70
-139
-116
-57
-82
-92
-64
-76
-92
-62
-30
-27
-20
10
54
105
165
247
347
424
442
421
384
308
180
44
-61
-136
-192
-219
-224
-227
-236
-238
-225
-201
-177
-162
-145
-106
-47
-3
-8
-46
-76
-93
-108
-102
-99
-120
-98
-59
-89
-60
89
199
380
690
602
-7
-382
-248
-117
-157
-160
-134
-140
-142
-136
-109
-63
-65
-84
-35
33
43
44
82
140
204
264
312
348
354
304
238
190
111
-5
-73
-79
-101
-135
-129
-111
-125
-132
-93
-42
-14
25
118
250
417
615
749
809
945
1090
939
485
41
-228
-360
-404
-411
-425
-446
-468
-487
-507
-541
-580
-607
-642
-690
-722
-743
-760
-728
-631
-498
-331
-141
17
138
226
272
394
621
721
783
1134
1362
855
92
-182
-157
-217
-264
-237
-244
-273
-281
-292
-317
-345
-373
-402
-430
-422
-361
-288
-219
-105
50
161
191
186
178
151
109
82
72
66
63
61
60
64
69
65
63
63
56
56
66
62
52
57
58
44
40
46
28
3
7
21
17
-2
-21
-31
-34
-41
-46
-31
-14
-19
-21
0
5
-12
-1
31
25
-2
8
30
13
5
45
65
26
2
38
88
117
145
194
243
249
210
174
158
146
135
116
104
127
124
76
125
273
423
680
886
555
-110
-355
-157
-32
-58
-70
-83
-100
-69
-31
-32
-38
-40
-43
-21
13
17
34
88
131
165
196
192
193
214
180
127
130
90
-49
-163
-207
-262
-328
-372
-410
-427
-417
-426
-442
-419
-397
-400
-368
-301
-269
-280
-304
-335
-359
-353
-314
-294
-322
-318
-252
-243
-242
-89
95
233
443
443
-46
-464
-350
-130
-128
-131
-80
-75
-58
-15
-12
-16
15
43
51
62
83
110
154
213
284
369
459
517
522
490
423
311
179
66
-13
-70
-115
-142
-152
-167
-186
-176
-131
-71
12
90
165
377
722
965
1154
1478
1623
1228
587
67
-315
-425
-184
27
-45
-164
-190
-242
-315
-346
-384
-450
-495
-524
-565
-601
-607
-569
-485
-365
-235
-117
-12
81
137
133
100
66
30
-1
-14
-18
-25
-26
-26
-35
-47
-50
-49
-48
-37
-36
-52
-57
-53
-72
-92
-92
-88
-78
-61
-62
-57
-8
35
20
-15
-27
-36
-49
-42
-32
-37
-34
-41
-72
-40
75
191
332
410
149
-295
-430
-266
-167
-169
-153
-143
-134
-102
-90
-99
-84
-53
-30
-15
4
40
88
130
178
238
294
348
395
409
393
370
328
243
147
82
39
0
-19
-10
-17
-50
-49
-2
49
120
218
318
504
807
1012
1104
1360
1603
1282
502
-94
-322
-411
-443
-431
-451
-487
-490
-497
-530
-556
-571
-611
-683
-739
-748
-754
-776
-755
-659
-524
-372
-195
-27
85
139
146
113
82
82
68
13
-17
2
3
-15
-2
14
-7
-18
3
20
21
17
0
-15
-5
-2
-34
-50
-24
-28
-84
-88
4
74
43
-12
-7
12
-5
-21
-30
-42
-3
35
-15
3
179
341
508
681
465
-100
-339
-162
-70
-122
-104
-75
-89
-76
-63
-78
-69
-42
-39
-32
5
37
52
87
155
224
276
332
386
386
322
250
188
98
-3
-77
-146
-209
-218
-193
-203
-234
-232
-195
-156
-134
-122
-94
-35
18
11
-39
-74
-94
-111
-102
-95
-116
-90
-43
-76
-55
104
228
408
716
616
-23
-404
-247
-121
-187
-181
-121
-109
-92
-70
-78
-74
-32
18
43
51
72
115
162
210
269
332
393
440
441
397
332
249
147
56
-5
-47
-70
-74
-85
-114
-125
-104
-81
-71
-63
-53
5
135
241
288
396
571
692
828
1099
1319
1205
752
189
-244
-440
-480
-497
-512
-507
-516
-552
-574
-577
-604
-651
-685
-709
-747
-775
-764
-729
-680
-585
-438
-286
-149
-23
66
103
106
91
64
43
37
32
24
24
32
39
33
18
6
7
22
26
-11
-52
-39
-4
-5
-20
-14
9
36
36
-6
-42
-51
-60
-64
-59
-68
-60
-42
-70
-67
52
185
282
347
191
-177
-343
-194
-57
-42
-18
5
-8
-3
21
28
29
40
59
76
89
105
130
169
229
291
338
382
421
430
410
372
314
242
165
83
14
-28
-54
-73
-83
-95
-107
-95
-58
-37
-35
-1
75
143
194
255
336
470
647
787
949
1252
1450
1140
452
-107
-346
-416
-427
-427
-447
-467
-467
-472
-481
-490
-528
-588
-624
-647
-690
-729
-732
-721
-688
-586
-421
-261
-143
-46
36
72
56
23
-2
-23
-34
-29
-29
-45
-48
-32
-21
-14
20
84
150
241
415
598
727
989
1393
1618
1741
1956
1664
562
-370
-491
-399
-490
-527
-489
-515
-548
-554
-578
-619
-659
-699
-737
-779
-815
-822
-801
-753
-675
-581
-471
-342
-226
-141
-65
-5
19
34
56
61
60
69
65
55
71
80
60
74
125
128
93
120
216
294
315
336
405
479
587
813
1039
1195
1384
1282
495
-397
-611
-381
-233
-168
-127
-161
-204
-218
-245
-265
-262
-277
-305
-317
-322
-329
-320
-295
-253
-182
-98
-33
24
94
146
157
146
134
120
97
78
81
87
70
55
68
74
53
30
29
45
51
35
23
31
25
4
9
37
31
2
1
18
17
9
-6
-41
-49
-8
15
-20
-45
-2
48
28
-19
-29
-39
-68
-68
-55
-68
-74
-77
-102
-66
36
133
283
378
112
-327
-424
-248
-181
-208
-185
-170
-186
-180
-170
-165
-142
-115
-97
-68
-36
-12
25
77
127
181
248
303
327
330
322
294
244
174
92
15
-41
-86
-120
-132
-135
-146
-150
-129
-87
-56
-45
16
156
293
412
593
787
908
1071
1304
1292
832
208
-212
-377
-413
-414
-422
-439
-450
-453
-458
-474
-499
-543
-604
-652
-678
-704
-731
-732
-684
-580
-432
-265
-97
60
171
212
210
191
146
93
72
70
57
42
31
14
-1
0
12
22
25
22
0
-26
-11
35
47
10
-23
10
106
173
154
109
88
79
85
99
76
54
88
89
32
102
299
440
632
856
622
-16
-312
-154
-47
-79
-78
-81
-101
-90
-80
-82
-69
-60
-58
-47
-27
9
60
98
137
204
273
317
346
357
329
268
180
71
-26
-88
-138
-190
-222
-227
-235
-259
-266
-230
-183
-160
-144
-101
-38
-2
-30
-87
-111
-108
-119
-134
-135
-125
-98
-93
-128
-73
81
174
300
487
320
-197
-421
-245
-152
-216
-216
-170
-164
-171
-167
-152
-148
-154
-131
-88
-60
-38
1
63
147
232
296
348
389
397
356
277
181
81
-12
-74
-96
-104
-117
-125
-137
-143
-109
-57
-46
-60
-51
-23
1
7
-13
-44
-64
-77
-82
-75
-80
-86
-71
-81
-84
9
122
224
410
446
71
-311
-269
-82
-65
-84
-50
-46
-56
-39
-22
-15
-7
4
24
46
60
81
120
162
206
256
312
356
372
361
327
261
180
124
76
10
-38
-45
-47
-68
-83
-89
-88
-67
-29
-6
22
107
206
268
375
534
627
751
1059
1265
1000
429
-44
-297
-411
-460
-479
-480
-476
-492
-523
-547
-566
-587
-613
-654
-696
-713
-718
-720
-689
-608
-499
-368
-220
-94
-15
34
58
50
26
3
-20
-41
-49
-49
-56
-61
-49
-50
-72
-67
-30
-24
-51
-60
-64
-73
-56
-41
-62
-62
2
71
86
59
28
24
47
73
83
79
97
117
92
134
297
402
516
776
738
163
-264
-161
-19
-59
-45
15
3
-18
-3
22
39
41
45
65
73
68
90
143
187
214
275
363
408
404
393
359
281
189
98
9
-51
-72
-80
-102
-134
-145
-119
-91
-77
-67
-51
-4
78
133
125
130
197
274
389
591
753
826
1054
1433
1482
961
253
-221
-411
-449
-456
-477
-477
-448
-448
-489
-518
-522
-541
-595
-654
-696
-736
-778
-798
-790
-748
-650
-508
-359
-211
-78
-3
9
-1
-18
-51
-78
-78
-68
-65
-61
-50
-41
-32
-20
-26
-44
-28
8
-3
-35
-4
72
114
101
66
39
29
26
37
48
37
37
45
10
31
165
280
424
639
511
-44
-360
-205
-77
-122
-97
-40
-70
-89
-50
-22
-18
-3
22
46
76
108
133
161
207
265
330
399
437
424
388
346
275
172
68
-7
-54
-93
-127
-135
-129
-141
-149
-121
-85
-85
-98
-74
-24
-12
-54
-89
-93
-96
-89
-70
-76
-76
-34
-41
-78
5
135
216
393
513
209
-238
-302
-147
-128
-147
-102
-90
-112
-105
-91
-83
-60
-36
-27
-22
2
50
98
126
158
212
258
278
292
296
260
194
117
32
-38
-65
-79
-102
-113
-118
-137
-141
-110
-86
-93
-107
-112
-91
-46
-26
-59
-96
-103
-108
-114
-103
-97
-95
-75
-83
-99
-18
101
150
214
227
-26
-324
-307
-136
-97
-118
-88
-60
-66
-79
-77
-61
-45
-36
-26
-17
0
30
58
82
131
203
265
309
347
357
319
246
157
53
-42
-96
-112
-122
-134
-135
-136
-139
-111
-57
-35
-41
-21
20
52
88
117
102
56
29
37
55
54
65
99
72
43
183
353
416
586
715
335
-204
-240
-20
-27
-110
-75
-41
-58
-78
-111
-142
-134
-103
-84
-88
-88
-50
10
62
119
191
251
300
345
340
268
175
73
-34
-108
-142
-174
-203
-205
-203
-228
-258
-249
-214
-209
-244
-251
-182
-83
-37
-53
-47
16
76
153
331
514
619
862
1267
1321
741
-23
-466
-587
-610
-631
-632
-608
-610
-659
-689
-681
-705
-769
-806
-827
-876
-927
-950
-960
-948
-876
-741
-579
-413
-251
-117
-38
-11
-8
-23
-44
-60
-72
-76
-60
-40
-31
-18
3
21
30
28
27
59
99
100
101
159
239
277
267
241
225
230
247
258
253
260
286
269
263
381
501
596
886
1070
627
27
-4
214
187
124
200
233
199
209
240
254
285
325
335
339
374
413
425
448
515
595
652
678
687
685
663
601
499
386
297
242
199
152
121
109
89
73
75
67
54
60
67
82
135
200
231
259
359
510
617
736
983
1172
983
456
-72
-381
-490
-532
-588
-634
-650
-673
-716
-754
-796
-853
-899
-940
-1004
-1064
-1084
-1098
-1112
-1071
-984
-891
-766
-619
-518
-471
-460
-502
-568
-598
