# session 191
-77
-56
-20
26
76
143
241
402
634
859
1085
1399
1541
1096
297
-202
-280
-278
-333
-371
-383
-397
-396
-385
-393
-415
-435
-462
-484
-485
-489
-505
-499
-478
-455
-378
-250
-162
-108
-4
115
162
153
127
100
98
110
100
97
119
124
98
77
68
57
46
43
45
46
48
53
54
52
58
64
68
71
76
83
91
93
98
106
103
95
100
102
94
99
118
119
94
68
56
64
78
80
105
173
198
134
70
70
96
97
69
46
49
46
31
34
37
33
56
124
293
495
388
-69
-361
-279
-175
-199
-199
-173
-179
-179
-167
-169
-165
-146
-134
-132
-125
-111
-96
-79
-69
-55
14
91
81
104
225
143
-141
-125
193
303
198
179
181
111
86
94
50
5
8
34
27
-49
-36
83
-53
-172
217
-192
-2398
-3759
-2025
377
891
611
814
1035
1042
1105
1247
1418
1406
1006
504
230
99
11
-5
-8
-47
-76
-80
-82
-87
-97
-107
-122
-157
-204
-240
-268
-303
-333
-349
-359
-358
-310
-210
-105
-12
88
175
210
223
239
225
179
137
129
139
96
54
91
44
-37
101
84
-125
163
215
-423
210
856
-2340
-5736
-3385
646
735
-328
160
363
-7
106
225
122
214
292
209
185
194
158
147
139
114
118
116
95
111
108
78
161
321
460
709
891
547
-46
-191
1
36
-32
-13
3
-18
-13
-19
-51
-47
-19
-21
-42
-46
-31
-9
2
13
63
128
149
156
216
291
311
300
303
301
271
228
179
123
73
39
13
-22
-64
-86
-91
-99
-102
-97
-105
-111
-87
-54
-48
-56
-39
10
51
43
0
-24
-21
-25
-46
-49
-24
-22
-47
-32
-28
-87
-47
125
246
443
772
679
46
-337
-199
-101
-207
-228
-170
-182
-209
-173
-128
-124
-132
-135
-155
-163
-124
-94
-121
-143
-105
-44
9
61
119
170
197
194
173
133
63
-18
-69
-103
-140
-156
-145
-141
-148
-140
-126
-129
-130
-121
-117
-126
-132
-122
-111
-111
-99
-65
-31
-10
-13
-40
-43
-20
-33
-40
7
14
-40
-27
19
-20
-24
91
199
298
373
192
-155
-245
-93
-37
-78
-54
-17
-36
-40
11
48
29
6
7
8
-5
-17
-17
-6
9
30
66
113
160
206
250
282
291
279
251
206
149
94
44
5
-9
-15
-33
-33
-11
-20
-56
-61
-44
-43
-58
-77
-78
-45
-39
-78
-60
18
53
60
28
-72
-58
8
-114
-79
144
-116
-200
855
1458
372
-503
-85
261
209
391
350
-183
-510
-381
-220
-287
-314
-99
-162
-433
-2
140
-1377
-2342
-899
444
81
-215
117
114
-6
132
180
144
216
271
278
321
349
330
314
285
211
128
75
49
33
32
27
6
15
51
32
-22
-20
11
8
-6
-17
-46
-56
-33
-28
15
125
97
-1
110
69
-187
145
371
-901
-1999
-942
436
368
67
265
337
314
453
648
775
566
93
-64
113
157
78
86
107
90
93
91
74
85
97
76
72
96
86
61
82
105
114
170
210
174
189
267
275
292
314
211
196
196
-75
-8
252
-355
-309
972
-967
-5869
-5950
-1014
1132
-71
-127
490
194
64
283
210
161
237
189
181
256
228
167
158
136
115
132
133
116
117
115
111
120
102
93
165
267
426
690
717
270
-160
-130
42
17
-43
-2
25
-2
-4
15
5
-19
-25
-21
-19
-19
-4
42
93
119
156
233
307
351
378
393
386
356
304
236
164
96
31
-24
-59
-76
-83
-86
-81
-69
-55
-42
-34
-35
-36
-28
-31
-56
-80
-88
-91
-80
-60
-62
-55
-6
29
-1
-42
-50
-56
-74
-72
-63
-80
-99
-96
-75
-47
-89
-146
12
194
198
562
865
-410
-2175
-1769
-134
167
-285
-144
40
-72
-33
58
8
-13
9
2
18
50
60
80
110
128
149
177
194
204
216
227
227
208
177
137
86
24
-32
-64
-76
-88
-101
-93
-75
-76
-85
-77
-75
-89
-81
-51
-33
-28
-35
-67
-94
-75
-39
-30
-41
-39
0
52
65
43
26
20
23
43
65
66
52
39
48
52
-9
-68
2
110
192
375
465
143
-260
-276
-119
-100
-113
-78
-71
-69
-45
-34
-27
-13
-14
-16
3
17
15
21
47
78
107
136
158
190
245
289
286
278
291
278
221
150
66
-30
-73
-38
-4
-23
-53
-61
-71
-84
-71
-45
-50
-75
-86
-92
-108
-120
-140
-183
-204
-162
-101
-86
-84
-31
41
51
17
-4
-22
-38
-30
-26
-37
-28
-27
-50
-38
-29
-57
16
192
343
554
713
400
-163
-295
-87
-50
-124
-89
-55
-74
-59
-42
-62
-77
-74
-69
-83
-84
-2
37
-33
38
107
-7
230
443
-50
332
1272
-1084
-4904
-3786
358
1222
12
174
525
166
156
319
188
148
211
178
169
185
158
170
204
187
169
177
177
178
170
139
134
144
118
112
170
210
189
165
151
114
79
114
146
88
78
132
43
18
168
21
-17
638
503
-1085
-1647
-408
259
-114
-99
146
38
-5
98
63
16
49
48
23
21
30
42
38
31
67
113
112
114
162
211
242
277
298
295
299
276
204
135
73
-10
-66
-75
-78
-79
-108
-145
-87
-58
-148
-53
79
-150
-76
376
-362
-1806
-1452
88
381
-107
-33
112
-27
-39
4
-36
-4
39
13
40
110
102
53
42
41
14
-10
0
21
8
-37
-44
-11
-24
-30
54
144
295
598
657
189
-252
-220
-82
-129
-159
-108
-123
-169
-121
-47
-73
-135
-123
-87
-96
-117
-119
-100
-55
-5
28
69
124
163
172
177
191
192
164
131
96
29
-43
-69
-73
-101
-121
-101
-87
-112
-134
-119
-113
-117
-80
-34
-15
39
133
255
450
644
768
894
913
604
101
-236
-252
-175
-220
-156
-60
-350
-349
199
-393
-1847
-1545
-274
-479
-893
-333
-248
-293
279
-448
-2141
-1695
169
584
181
419
632
496
522
567
452
403
404
352
321
318
296
277
266
252
241
229
220
218
199
176
179
179
168
180
183
143
120
147
168
173
196
207
178
151
144
129
106
98
89
65
53
63
77
86
94
100
104
100
95
102
111
99
85
94
102
74
41
43
56
43
21
33
79
111
114
99
57
14
22
58
77
69
39
36
70
30
-11
143
343
431
599
639
156
-317
-228
-87
-135
-46
-95
-229
105
-53
-1651
-3181
-3458
-3227
-2419
-434
1364
676
-3175
-7681
-8260
-3783
961
2053
1339
1392
1654
1472
1413
1475
1355
1253
1235
1143
1026
971
927
862
809
777
745
709
682
658
636
617
589
560
546
517
466
437
430
404
377
389
424
443
426
387
347
286
230
245
259
198
209
247
114
104
261
58
-2
495
368
250
1365
217
-4415
-5697
-1535
1041
26
-289
375
184
-24
199
146
34
123
102
13
39
89
101
110
125
163
204
221
263
340
376
369
380
379
307
205
123
48
-15
-39
-63
-100
-82
-38
-49
-76
-82
-99
-68
13
1
-102
-133
-24
116
112
2
2
48
75
260
355
302
739
1022
461
974
1899
-1076
-5420
-4169
106
798
-401
-94
222
-185
-166
-38
-207
-209
-123
-190
-229
-217
-254
-274
-265
-281
-301
-291
-246
-179
-119
-44
79
183
232
269
293
284
260
212
164
184
221
186
125
100
104
126
141
120
95
93
90
73
51
42
54
61
60
80
95
74
56
65
68
53
10
-65
-124
-126
-110
-119
-141
-141
-100
-46
-25
-20
10
41
33
14
4
-11
-24
-28
-35
-28
-9
-20
-24
8
-8
-43
47
185
301
510
598
249
-159
-168
-51
-103
-146
-103
-102
-123
-104
-87
-94
-101
-100
-85
-64
-51
-29
13
60
118
184
218
229
262
293
288
273
262
228
184
151
110
52
-4
-45
-66
-61
-57
-72
-86
-86
-87
-76
-44
-10
49
150
248
392
670
952
1169
1510
1821
1563
764
77
-194
-287
-383
-456
-478
-459
-412
-385
-412
-414
-382
-468
-545
-435
-521
-746
-467
-491
-1746
-2437
-1241
-133
-299
-411
-81
-10
-33
99
124
69
88
85
47
50
49
20
13
31
34
28
35
38
25
32
56
45
12
13
43
57
43
25
29
33
33
65
81
11
-33
39
80
19
-11
6
-12
-8
46
86
101
86
65
102
83
3
136
221
-208
-521
-88
338
196
52
148
150
85
106
129
126
148
143
117
186
320
425
617
802
556
10
-193
-33
29
-27
-20
-18
-58
-58
-29
-24
-43
-61
-65
-45
18
74
31
15
156
193
100
248
312
66
388
576
-1421
-3750
-2713
85
850
224
232
411
238
195
241
164
138
171
154
135
131
112
105
122
128
97
82
155
250
296
408
631
824
990
1189
1217
930
504
121
-129
-200
-204
-242
-246
-222
-227
-235
-276
-291
-205
-291
-438
-103
-263
-2246
-4064
-2987
-599
189
-128
-58
129
97
185
342
388
421
439
394
358
338
297
280
286
270
257
266
232
169
178
230
220
181
169
162
164
175
185
216
225
194
205
182
90
166
238
15
132
443
-945
-3629
-4010
-1430
600
602
319
483
506
450
513
491
396
366
360
353
341
306
298
330
329
302
293
295
315
357
446
673
862
622
114
-96
31
145
131
49
-9
-4
26
104
95
-97
27
395
-328
-2471
-4260
-3999
-1878
261
900
610
601
780
759
766
850
832
775
749
719
665
578
504
479
426
378
402
338
237
347
338
108
260
-157
-2718
-5087
-3711
-405
962
772
871
1116
1307
1530
1555
1834
2036
489
-2468
-4472
-4315
-2307
56
892
481
400
612
501
396
444
403
351
342
257
156
114
83
59
46
20
28
110
215
296
360
434
516
553
516
457
442
432
356
326
408
334
195
374
364
20
449
615
-1729
-4050
-2532
375
866
259
447
620
441
458
508
444
463
484
437
422
421
409
411
374
320
333
344
292
285
331
342
372
388
280
256
350
250
222
406
118
43
820
-1172
-7435
-10301
-5433
-1174
-2327
-2203
1097
1890
346
327
952
713
622
823
738
654
682
615
576
603
570
541
564
551
510
531
582
571
538
559
590
595
637
717
737
679
619
569
472
381
369
325
225
203
164
89
163
112
-46
207
156
-356
378
789
-1827
-3496
-1476
-1165
-3212
-1875
1091
978
191
908
1188
1029
1504
1811
1680
1766
1866
1526
868
222
-117
-137
-133
-213
-245
-242
-277
-293
-296
-357
-408
-396
-416
-499
-567
-587
-571
-618
-728
-653
-537
-714
-703
-378
-511
-433
350
-634
-3452
-3577
-592
882
199
82
467
325
215
344
327
282
311
289
265
281
278
263
256
254
247
217
194
223
244
211
175
153
139
163
194
180
164
191
241
249
169
84
100
136
95
59
93
120
100
84
94
110
174
283
326
375
564
593
193
-198
-181
-40
-50
-89
-75
-57
-48
-58
-81
-74
-53
-49
-37
-9
5
8
11
16
41
78
110
156
189
184
220
291
270
183
155
145
97
56
25
-14
-55
-96
-99
-71
-81
-80
-82
-149
-81
7
-236
-155
291
-1041
-4048
-4628
-1753
542
499
198
417
379
233
284
287
232
238
236
223
223
218
220
199
177
242
351
503
744
751
306
-89
-66
49
23
-4
14
29
34
12
-12
10
45
22
-32
0
45
-21
-4
101
51
140
324
17
110
947
-49
-2695
-2600
126
1087
261
205
474
217
120
229
165
137
188
153
125
159
170
164
167
165
169
176
170
167
175
184
216
259
237
170
145
146
122
106
116
121
101
53
49
128
129
63
155
283
402
804
976
361
-98
-26
-246
-74
487
-1108
-3769
-3026
-26
751
-49
44
331
122
110
231
171
168
233
217
213
257
278
299
352
391
380
368
369
318
257
209
88
51
125
-51
-110
240
-682
-3365
-4390
-2062
281
439
126
331
302
153
291
283
117
239
253
38
429
432
-2001
-4690
-3580
-215
1092
544
484
735
585
518
599
504
475
627
708
843
1111
996
416
85
205
295
245
257
285
262
254
257
242
239
246
236
217
210
209
197
185
197
221
237
257
290
324
348
356
354
345
318
246
137
71
67
8
-78
-57
-66
-130
-25
-65
-337
-48
226
-934
-2029
-1083
173
-1
-315
-53
-26
-149
-13
61
-24
-54
-74
-121
-120
-107
-117
-104
-92
-110
-92
-72
-119
-100
29
113
314
733
756
130
-349
-274
-156
-214
-216
-172
-171
-144
-90
-78
-95
-100
-109
-111
-65
-42
-85
-56
-4
-53
30
147
-24
114
556
-142
-1382
-904
475
575
90
182
239
32
22
70
-2
-23
-4
-17
-6
16
6
2
9
9
14
18
14
25
56
80
89
77
39
10
11
7
-20
-32
-16
-17
-49
-53
-46
-79
-46
73
169
423
852
827
184
-306
-245
-49
-85
-198
-67
-26
-340
-123
347
-831
-2547
-1806
127
396
-97
106
269
119
174
270
247
293
344
334
355
370
336
310
290
238
177
131
103
93
79
57
47
45
33
26
33
38
43
45
25
-2
7
48
72
59
64
122
171
155
110
84
82
72
26
-13
11
47
30
-3
-34
-60
-19
78
165
301
425
274
-62
-181
-83
-50
-82
-78
-81
-104
-110
-117
-144
-168
-183
-194
-199
-196
-189
-176
-154
-128
-99
-64
-31
-5
26
59
68
51
28
-1
-48
-107
