# session 220
-563
121
-1202
-5640
-9604
-7352
-1639
-751
-2943
-1722
-875
-3920
-4142
271
2402
1284
1101
1670
1488
1397
1586
1476
1342
1324
1159
1034
1101
1006
801
1030
1061
-741
-3734
-4769
-2912
-244
1939
2293
-946
-4653
-4333
-3049
-5005
-6834
-5725
-5171
-6392
-5701
-2468
23
387
-628
-1510
-69
2922
4069
3366
3041
2969
2617
2596
2734
2590
2483
2513
2458
2385
2381
2379
2339
2242
2150
2155
2135
2004
1992
2085
1952
1905
2210
2109
1816
2364
2088
-1116
-5275
-7253
-6044
-2007
2044
2602
1253
1813
2547
240
-1900
-215
2115
1933
1311
1656
1779
1641
1815
1951
1954
2113
2288
2273
2409
2801
2446
1362
1260
865
-2566
-5169
-2138
1102
-2019
-7166
-8045
-6480
-6689
-7742
-5908
-1962
-329
-1055
-1492
-2414
-3552
-1850
1362
2104
1322
1838
2375
1059
-82
896
2142
2009
1655
1802
1792
1627
1652
1656
1537
1487
1515
1490
1423
1402
1387
1348
1340
1259
1197
1359
1193
852
1540
884
-4312
-8233
-4301
226
-1762
-3082
-411
-1233
-4311
-2186
1926
2321
1488
1850
2015
1868
2086
2362
2565
2481
1858
1288
1289
1513
1432
1146
1319
1544
41
-3186
-5073
-3279
369
2041
1366
1405
2141
-55
-4926
-7427
-6136
-5756
-7666
-5983
-140
1356
-2410
-3502
-2235
-3111
-2441
1593
3339
2259
2557
2791
-50
-4341
-6795
-4649
520
1758
-1274
-703
3513
4679
3560
4113
4918
4280
3305
2602
2171
2058
1914
1796
1824
1658
1621
1712
1191
1247
1872
-1323
-6898
-5625
747
373
-5070
-5425
-2861
-2454
-780
2403
2880
2011
2384
2611
2211
2180
2182
1964
1896
1837
1704
1616
1520
1585
1615
1212
1219
1780
778
-2133
-4475
-4967
-3493
-336
2005
1882
1370
1629
1010
-102
770
2356
263
-4925
-7689
-7097
-6810
-6542
-4056
-1686
-2243
-3892
-3454
-348
2849
3047
1832
2871
3332
-555
-3236
-26
3205
2433
1618
2255
2208
1834
1978
1958
1779
1787
1754
1693
1658
1564
1544
1493
1378
1552
1552
1186
1711
1879
-1700
-6706
-7683
-6476
-7255
-7120
-4006
-1954
-1690
-737
-313
-457
1250
2983
2491
1951
2415
2455
2206
2266
2203
2055
2103
2092
1957
1883
1831
1735
1659
1644
1628
1549
1499
1493
1385
1336
1456
1448
1524
1841
1610
1099
937
-745
-4336
-6673
-7453
-7780
-4955
-93
471
-2650
-4075
-3922
-3277
-833
1833
2322
1495
1356
2405
1860
-2164
-4402
-828
2959
2677
1844
2303
2216
1767
1826
1814
1629
1620
1619
1529
1484
1491
1402
1226
1294
1359
949
1038
1808
476
-3878
-7496
-7488
-5984
-6535
-7602
-4614
-254
-897
-3013
-368
2984
2690
2144
2861
2802
2714
2817
6
-5509
-7775
-3543
1573
807
-3363
-3989
-570
2495
3097
2275
2222
3160
1988
-1213
-1325
1878
3165
2253
2295
2676
2362
2451
2529
2081
2402
2423
-614
-5419
-7973
-6659
-3401
-1516
-1905
-2825
-3584
-3402
-469
2936
3010
2332
3723
3194
-37
50
3480
4344
2714
2115
2112
1712
1643
1701
1509
1468
1459
1363
1372
1176
1012
1268
797
-291
141
939
-721
-2647
-1294
1647
1593
-3238
-7922
-5340
1399
2391
-1367
-2041
-1553
-3836
-3995
-297
2070
2617
2326
-1002
-3636
-579
3061
2476
1566
2309
2152
1619
2109
2007
1357
2109
2153
-1120
-3687
-1539
1553
1569
1112
2164
1142
-3258
-6610
-7190
-6954
-4339
734
1491
-3174
-4630
-1470
-1374
-4043
-2680
1631
3347
2636
2594
3349
3014
1581
1304
2200
2074
1912
2765
1331
-1732
-625
2448
222
-4434
-3932
591
3275
1520
-3565
-6970
-4172
149
-2161
-7147
-4206
3183
2792
-2721
-2546
-46
-2383
-3741
362
3564
3100
2615
2507
2009
2358
2830
2217
1871
2418
2594
2251
2177
2187
1975
2033
2200
1744
1246
1153
986
1822
2584
-1493
-6974
-4270
2146
561
-4603
-3910
-2168
-4366
-4390
-203
2044
1838
2734
1647
-3787
-6691
-2319
3261
2991
-1573
-3630
-665
2725
2911
2021
2243
2541
2174
2140
2533
2052
1721
3055
1783
-4559
-7778
-3455
285
86
1164
2394
-384
-4206
-4985
-2749
750
2820
2434
1881
2307
2453
2159
2167
2212
2043
2059
2073
1741
1717
1927
1431
1398
2341
800
-3976
-7623
-8250
-6538
-2671
743
1457
553
-2007
-4740
-2780
1846
2570
1736
2797
-65
-6681
-6427
-457
-409
-4051
-1804
2879
3359
2314
2532
2714
2589
2293
2313
3125
1503
-3275
-4379
-990
-2169
-7577
-6324
874
2916
-361
-1117
-312
-2516
-4667
-2695
1250
3316
2719
2175
3630
3461
-444
-1842
2340
5494
4419
3200
3037
2250
1828
2311
1980
1481
2331
1703
-2484
-6529
-7835
-7187
-3931
618
2410
1878
882
-2062
-4815
-2497
2003
2640
1701
3097
2211
-3766
-6451
-949
3779
602
-4478
-4067
229
3126
3220
2610
2714
2831
2377
2290
2633
2145
2017
3147
957
-5448
-7084
-1121
3083
2391
2410
1940
-2524
-5339
-2214
1730
2849
2606
1643
1416
2684
1375
-2364
-1907
2063
3103
1829
1850
2346
1961
1482
1988
2115
-1703
-7029
-5610
980
1598
-4990
-8886
-5318
864
2788
-673
-4131
-4488
-4197
-3071
1178
3989
-389
-6766
-6112
-89
3599
3256
825
-3025
-5304
-2581
2164
3901
3298
3078
3172
3095
2885
2467
2611
2543
-187
-4165
-6246
-7121
-6841
-3582
116
1149
1713
3235
2911
-589
-4461
-4789
-1008
2768
3335
2523
2609
2837
2578
2562
2609
2284
2261
2377
1898
2065
3025
1330
-3952
-8132
-7111
-2211
1511
848
-2321
-4592
-4136
-848
2316
2619
2001
2210
1669
736
1274
2154
1996
1807
2068
2105
1975
1994
2013
1958
1912
1861
1710
1510
1438
1301
1033
1153
1248
681
777
1522
-19
-4183
-8215
-9501
-5853
-371
283
-1375
160
-185
-4759
-5079
-53
2311
1338
1326
1891
1706
1671
1847
1715
1659
1818
1900
2074
2353
2200
1550
1042
1103
1345
1078
797
1430
1275
-2299
-7428
-9016
-6067
-3111
-2938
-3644
-4330
-5026
-3047
953
2500
2583
2887
-531
-5917
-5028
1375
4525
1569
-2099
-1304
2118
3255
2323
2209
2544
2287
2142
2244
2117
2005
2088
2025
1906
2136
2264
1944
2305
2979
432
-5697
-8947
-4975
968
2478
1602
1946
644
-3757
-5547
-1936
1788
2017
1421
1798
1557
663
801
1501
1394
1125
1307
1094
874
1383
1217
742
1949
1830
-2222
-5633
-6232
-5898
-2819
-2
-4382
-8737
-3879
969
-1248
-2207
-829
-3376
-4626
17
3035
2303
2897
1671
-3828
-5228
23
3395
2466
2062
2635
2377
2133
2275
2201
2125
2044
1897
1989
1881
1584
1867
1695
196
-465
797
1978
1908
1295
1658
2898
469
-6509
-8941
-3670
-1004
-3662
-2735
488
-2057
-5666
-2822
1684
2295
1526
1372
1008
1062
1725
1827
1556
1643
1748
1651
1638
1686
1649
1563
1485
1439
1345
1159
1074
1055
854
726
667
-55
-889
-334
823
830
615
1292
1020
-712
-638
1582
1040
-3622
-6969
-5314
-1428
686
661
335
428
433
291
281
285
221
232
206
41
6
40
-171
-230
-81
-349
-234
610
-315
-2943
-2931
99
1484
154
22
1727
-169
-6397
-8067
-2373
1492
303
-401
-1253
-4698
-5521
-1505
1547
1331
982
1339
1309
1206
1338
1332
1248
1254
1233
1197
1189
1151
1147
1182
1163
1199
1244
1071
1018
1173
946
901
1334
761
445
1996
330
-5510
-5695
166
688
-3110
-2161
1104
1368
-435
-3471
-5383
-2674
1282
1813
986
1241
1414
1183
1263
1329
1208
1224
1297
1301
1326
1352
1364
1402
1424
1427
1441
1408
1314
1184
1056
1018
951
791
804
730
430
734
951
48
420
1663
-1590
-6633
-5487
-2306
-4155
-5230
-1029
2029
1260
791
1232
989
865
1251
1329
1191
1276
1378
1255
1295
1757
1931
1849
2182
804
-3407
-4563
167
1442
-5306
-8441
-2863
-1107
-6600
-6574
-150
1002
-2072
-1224
538
-1361
-2965
-2332
-3037
-4351
-2029
2048
2786
1739
2654
2496
-1045
-2451
680
2829
2017
1650
2141
1948
1664
1769
1713
1585
1624
1610
1515
1544
1644
1550
1358
1371
1357
1184
1245
1204
895
1204
1286
410
1151
1891
-2666
-7190
-3909
-39
-1594
-1125
1503
-1342
-4732
-1613
2053
1534
841
1438
1330
996
1197
1241
1124
1190
1155
997
1041
1063
869
1000
1227
752
801
1622
-758
-6357
-7527
-2170
1955
1396
628
1208
910
554
1328
396
-2959
-4016
-1966
-2291
-4987
-3860
754
2930
2356
2477
3087
2638
1751
1201
870
732
760
769
716
643
602
596
532
451
403
230
48
48
-75
-235
-102
-288
-423
500
-508
-5492
-7522
-2387
280
-4959
-7261
-1558
1142
-3231
-4907
-774
2177
1800
1490
1827
1708
1581
1707
1653
1545
1573
1547
1487
1489
1468
1455
1408
1244
1299
1409
1008
1068
1781
-268
-5613
-7537
-2841
1545
1163
1004
2547
184
-4391
-3927
-1309
-3093
-5154
-2138
1798
2526
2240
2439
2007
1360
1433
1609
1497
1505
1563
1453
1399
1464
1406
1274
1317
1365
1232
1264
1315
1024
1161
1453
735
1010
2372
-718
-6286
-4915
-221
-2420
-5992
-2822
-179
-3359
-4709
-899
1995
1746
1407
1704
1647
1563
1772
1947
2102
2371
2597
2747
2976
3025
2398
1513
1114
859
635
1055
818
-2178
-6531
-8415
-6424
-2677
1
-8
-2615
-4878
-4179
-3091
-3746
-2745
580
2088
1611
1572
1339
752
1289
2144
1889
1366
1466
1669
1671
1681
1598
1452
1504
1461
1227
1320
1367
1004
1268
1522
-658
-4622
-7467
-7740
-5167
-1855
-1101
-1250
632
1000
-2549
-4207
-795
2446
2399
1839
2147
2143
1838
1845
1898
1808
1806
1825
1709
1660
1630
1441
1556
1905
1832
2133
2616
54
-5097
-6153
-776
3391
152
-4544
-3023
-185
-2607
-4558
-1025
2195
1725
1228
1711
1560
1261
1408
1572
1617
1416
1079
1194
1605
1583
1317
1454
1530
767
140
772
1259
642
722
1355
-439
-4686
-8106
-8038
-4544
-1397
-1175
-1271
-1116
-3037
-3823
-411
2474
1967
1425
1878
1742
1531
1707
1596
1530
1777
1817
1975
2386
2069
1326
1123
871
805
1514
433
-3582
-7015
-7939
-6780
-3230
-67
-899
-3027
-3244
-3506
-3768
-1297
1858
2327
1669
1891
2086
1865
1887
1982
1889
1795
1719
1631
1560
1468
1395
1334
1256
1246
1185
1080
1210
1105
547
691
1159
643
948
1890
-1208
-5628
-3047
2260
425
-3982
-3204
-2147
-4475
-4171
10
2264
1792
1874
2366
1893
1241
1169
1268
1262
1229
1215
1213
1170
1090
1002
930
926
873
761
887
903
555
948
1299
-1728
-6385
-5526
703
2821
-2243
-6142
-4329
-2333
-3750
-4889
-2397
1543
1817
-1921
-3309
-41
2333
1592
1169
1755
1740
1589
1957
2275
2330
2513
2972
3314
3149
2420
1251
408
467
507
345
759
462
-372
871
909
-3617
-5181
-994
-1335
-6313
-5427
-1735
-3274
-4779
-1445
1374
1148
983
1462
1479
1450
1612
1607
1542
1521
1426
1357
1410
1384
1228
1197
1212
1085
1180
1333
932
912
1557
-26
-4638
-7946
-6730
-2261
1965
1951
-1967
-3848
-2328
-2531
-4096
-2138
1508
2335
1596
1666
1820
1632
1682
1804
1749
1673
1654
1720
1825
1994
2341
2402
1771
1182
1192
1274
1264
1317
1112
1032
1421
561
-3028
-7204
-7292
-1785
2681
-663
-6006
-4844
-1942
-3216
-3219
812
3054
2232
2041
2467
2201
2031
2120
1941
1800
1801
1670
1569
1582
1504
1403
1398
1381
1313
1175
1085
1277
1333
1041
1266
1293
-1044
-4761
-7097
-7414
-4697
583
1959
-2693
-5073
-2786
-2700
-3772
-886
2308
2859
2144
-1888
-6318
-3667
974
-475
-2043
1061
2871
1737
1562
1984
1638
1475
1570
1580
1436
1067
1411
1662
-608
-2754
-591
2205
1378
1008
2594
-157
-5983
-5181
852
1367
-3003
-3239
-385
-1462
-4460
-3139
930
2628
2217
2378
2938
2917
2730
2658
2411
2243
2397
2224
1573
1334
1321
910
1141
1627
215
-1053
542
595
-4307
-8232
-5599
315
2497
-1355
-5644
-5103
-3284
-3796
-2868
687
2391
1570
1103
1359
1547
1706
1723
1605
1608
1612
1521
1498
1510
1456
1425
1436
1376
1295
1271
1234
1230
1228
1063
1105
1354
906
730
1930
471
-5654
-8203
-2526
2054
-74
-1777
-478
-1864
-4947
-3834
83
1831
1474
1320
1462
1370
1283
1303
1286
1209
1107
1034
931
740
582
423
244
289
330
261
629
748
227
1047
1660
-2126
-5736
-2525
1814
1688
1943
2101
-2859
-6298
-2636
-589
-4000
-4478
-512
1350
1224
1826
-511
-6097
-6929
-1865
487
-1118
-341
2178
2236
1440
1780
1840
1459
1603
1807
1698
1764
2021
2058
1977
2015
1786
1539
1940
421
-5081
-7956
-2872
1249
-2275
-4436
-1314
-1324
-3938
-1651
2481
2846
1999
2323
2357
2052
2130
2104
1925
1949
1996
1920
1798
1672
1526
1154
584
320
383
348
393
602
504
419
683
551
453
1075
-164
-4595
-7443
-4904
-712
-608
-4159
-5492
-2981
-2098
-3823
-2545
966
1814
1919
2290
-1104
-5096
-3131
1558
3117
1886
58
-180
1916
3080
1875
1250
1865
1826
1448
1660
1660
1332
1605
1633
860
1446
2152
-1412
-5569
-4304
-3091
-5911
-4648
1305
2354
96
954
478
-2903
-2074
2050
2855
1650
1840
2072
1657
1633
1675
1483
1476
1502
1394
1361
1332
1241
1259
1311
1234
1131
1101
1092
1094
1127
1198
1248
1087
847
956
746
-1720
-6378
-8588
-4414
1217
466
-3595
-3092
-1156
-3659
-4894
-244
2171
-1830
-4155
-1688
96
489
1806
2478
1960
1981
2207
1938
1828
1843
1575
1367
1385
1336
1196
1122
1083
1110
1177
964
817
1186
987
384
1356
1220
-3511
-6477
-2258
456
-3844
-5913
-2538
-2170
-4446
-2067
2317
2980
2232
2890
3371
2918
2307
1653
1153
1048
1022
935
894
870
839
678
488
611
585
132
331
728
-1008
-4513
-7068
-7469
-5661
-2395
-359
-1756
-4721
-5222
-3535
-3381
-3767
-1500
1376
2478
2320
226
-2138
-749
2204
2360
1500
1862
2039
1705
1724
1753
1619
1628
1616
1539
1537
1514
1493
1467
1311
1207
1092
910
1255
1479
693
997
2184
-398
-4648
-3862
-1613
-3584
-4428
-641
1951
1379
1225
1690
1475
1359
1529
1422
1345
1450
1405
1268
1199
1169
1225
1221
1045
1113
1266
850
813
1716
965
-2721
-6447
-7771
-6145
-2121
480
-1230
-3420
-2378
-1196
-2619
-3621
-1719
933
2005
2005
1988
1924
1729
1732
1929
2021
2017
2057
2125
2194
2261
2327
2494
2818
3048
2801
2075
1399
1142
1000
848
985
1004
630
832
1194
-754
-5179
-8387
-6744
-1611
1055
-569
-1492
-347
-774
-1721
-264
1352
1170
875
1234
1650
1855
1549
1078
1089
1211
1068
958
939
886
828
767
749
700
565
617
614
298
608
997
-874
-3546
-3264
-713
1248
983
-2375
-4894
-1769
1495
-1509
-4445
-2155
-1360
-4774
-5594
-2255
178
623
620
-597
-2136
-1317
605
858
355
572
670
400
530
595
269
487
714
45
413
1477
-1022
-4928
-3444
986
1678
363
813
901
-1986
-6211
-7479
-3924
340
1423
1064
243
-2682
-5127
-3328
190
1412
1135
1278
1520
1483
1525
1622
1642
1683
1735
1784
1853
1882
1920
2032
2158
2371
2662
2819
2753
2233
1714
2483
2813
-383
-3171
-21
3310
-662
-5435
-2111
4223
4481
561
-720
447
105
-840
207
