# session 29
-25
-28
-1
22
17
29
27
-26
34
247
382
495
697
546
-71
-408
-209
-57
-132
-139
-88
-109
-119
-87
-82
-96
-85
-62
-58
-68
-65
-36
-9
8
47
107
166
231
304
355
387
414
414
374
312
232
140
59
-2
-52
-90
-115
-131
-133
-123
-126
-130
-111
-89
-89
-98
-107
-113
-95
-75
-104
-131
-69
28
43
-8
-32
-31
-42
-56
-62
-70
-85
-89
-58
-45
-103
-84
97
224
333
664
787
241
-355
-358
-163
-171
-190
-138
-133
-146
-139
-152
-165
-146
-124
-119
-115
-99
-81
-67
-43
-2
42
87
141
203
260
303
322
313
286
233
155
77
14
-40
-74
-83
-90
-101
-100
-90
-82
-78
-70
-59
-60
-75
-62
-29
-46
-95
-81
-23
-4
-15
-28
-55
-80
-81
-90
-104
-89
-74
-87
-78
-70
-103
-61
74
164
292
467
297
-201
-419
-257
-151
-172
-153
-127
-125
-99
-76
-75
-67
-49
-30
-11
-1
2
14
38
67
98
132
174
223
271
311
338
346
335
306
248
168
100
60
24
-16
-32
-23
-21
-23
-9
0
-8
-12
-15
-25
-22
-3
11
9
-2
7
41
49
14
-14
-24
-45
-74
-91
-86
-78
-92
-93
-59
-77
-127
-64
58
143
318
461
192
-280
-403
-243
-179
-204
-189
-174
-177
-170
-158
-148
-139
-144
-151
-144
-129
-118
-105
-82
-50
-13
31
83
143
200
242
266
276
268
230
170
104
43
-11
-47
-61
-75
-96
-118
-138
-141
-120
-105
-122
-150
-162
-162
-157
-157
-169
-169
-135
-91
-79
-104
-136
-158
-160
-155
-165
-159
-121
-107
-108
-77
-79
-101
15
193
329
559
667
253
-272
-281
-39
4
-22
17
21
2
16
20
3
2
17
27
23
29
69
104
110
143
221
286
333
405
492
551
578
587
576
524
441
370
308
233
173
151
146
131
114
108
114
120
125
137
137
116
109
135
146
122
141
230
295
286
265
237
183
157
153
132
143
151
105
178
230
-242
-917
-933
-483
-232
-113
-161
-678
-1185
-1167
-1020
-1041
-954
-745
-643
-595
-481
-404
-478
-609
-636
-552
-455
-389
-331
-273
-217
-154
-75
12
102
209
304
334
335
360
344
241
115
10
-57
-48
-18
-51
-87
-65
-57
-81
-64
-20
-16
-20
8
27
26
35
46
57
112
198
240
230
211
188
163
150
135
115
117
110
79
96
125
71
96
297
443
577
866
835
222
-229
-110
49
1
-5
22
-15
-13
33
27
11
43
62
44
40
69
107
125
117
124
173
221
256
313
370
387
386
378
328
242
159
79
0
-53
-80
-93
-104
-130
-152
-136
-112
-115
-122
-125
-144
-161
-149
-135
-157
-176
-132
-60
-43
-74
-95
-108
-124
-122
-107
-93
-78
-78
-73
-35
-40
-75
15
163
253
478
729
466
-151
-367
-179
-114
-185
-165
-128
-158
-181
-161
-134
-126
-137
-139
-119
-102
-91
-78
-66
-44
4
55
96
154
215
246
263
247
128
-43
-159
-238
-327
-373
-359
-339
-317
-285
-266
-252
-215
-172
-146
-137
-137
-130
-117
-117
-131
-128
-107
-104
-123
-118
-74
-38
-44
-70
-85
-84
-70
-56
-47
-24
-2
10
26
21
11
99
230
340
554
706
397
-118
-243
-57
24
-17
-26
6
39
38
27
46
55
39
51
65
38
37
87
113
99
109
148
192
253
323
358
361
370
378
353
282
194
133
100
62
19
-11
-29
-41
-43
-40
-38
-41
-42
-42
-45
-55
-67
-64
-41
-22
-29
-29
7
34
15
-19
-37
-47
-53
-55
-59
-67
-86
-103
-80
-64
-109
-96
30
141
275
445
286
-228
-503
-365
-237
-245
-227
-206
-222
-212
-193
-201
-204
-193
-180
-151
-126
-121
-103
-64
-40
-23
27
97
153
200
254
307
336
335
309
261
184
98
44
21
-14
-63
-97
-116
-130
-129
-125
-143
-157
-141
-121
-129
-141
-134
-121
-117
-123
-121
-83
-19
22
23
11
-17
-58
-61
-28
-27
-24
18
23
1
18
10
29
194
366
549
873
869
214
-336
-264
-104
-154
-155
-108
-123
-117
-97
-120
-117
-76
-65
-64
-38
-32
-50
-36
14
59
97
143
194
260
337
384
384
361
317
238
145
58
-13
-61
-89
-107
-115
-129
-151
-146
-123
-122
-123
-100
-93
-112
-110
-104
-115
-100
-79
-116
-145
-77
0
-6
-41
-68
-108
-133
-125
-120
-118
-108
-104
-96
-97
-140
-103
72
210
350
611
573
3
-423
-311
-152
-191
-185
-129
-147
-165
-145
-147
-154
-135
-109
-94
-89
-80
-55
-28
-3
46
111
165
218
287
350
391
410
396
342
253
150
62
-4
-60
-98
-113
-124
-134
-122
-108
-117
-117
-89
-72
-70
-52
-40
-70
-101
-79
-50
-70
-90
-43
33
68
60
35
4
-5
4
-12
-25
-3
-4
-13
20
0
-45
57
199
311
638
910
517
-170
-340
-148
-107
-156
-136
-140
-171
-164
-145
-140
-130
-111
-97
-92
-85
-68
-59
-56
-31
19
65
105
157
222
273
300
312
296
244
174
111
58
13
-21
-48
-65
-64
-56
-58
-63
-60
-59
-73
-90
-95
-101
-105
-91
-91
-120
-126
-109
-125
-137
-82
-21
-31
-75
-112
-138
-134
-115
-115
-114
-111
-135
-132
-97
-109
-94
29
142
291
542
492
-16
-360
-243
-104
-128
-122
-85
-90
-80
-52
-48
-51
-40
-28
-22
-19
-17
-15
-8
11
40
76
124
174
222
277
322
330
330
333
286
194
139
110
46
-13
-21
-17
-20
-13
-16
-24
-14
-9
-16
-1
19
-1
-34
-41
-39
-34
-15
-8
-21
-12
27
37
6
-28
-52
-66
-68
-85
-115
-113
-93
-87
-67
-56
-91
-70
42
126
233
379
238
-209
-441
-309
-196
-217
-206
-165
-157
-146
-126
-116
-98
-77
-69
-58
-38
-21
-4
15
30
55
93
127
161
216
270
299
323
337
295
215
146
72
-13
-67
-103
-133
-123
-122
-153
-133
-144
-276
-316
-178
-93
-85
-49
-64
-41
207
424
244
-226
-633
-787
-696
-500
-321
-164
-41
2
4
29
62
83
98
91
77
90
96
80
111
184
238
303
424
544
615
664
700
678
594
501
408
284
168
114
80
13
-48
-71
-91
-121
-134
-126
-117
-114
-115
-118
-126
-142
-154
-142
-127
-133
-138
-127
-124
-133
-132
-130
-131
-119
-111
-123
-123
-99
-91
-112
-126
-115
-100
-99
-100
-94
-107
-132
-132
-102
-88
-114
-127
-75
4
30
2
-36
-55
-58
-66
-69
-44
-38
-58
-26
-1
-44
21
212
360
619
929
672
-63
-384
-210
-138
-199
-169
-152
-189
-177
-159
-173
-163
-142
-154
-164
-147
-134
-123
-90
-62
-50
-21
34
92
147
191
220
237
245
229
192
143
89
35
-13
-52
-82
-98
-99
-98
-108
-112
-99
-76
-44
-18
-17
-14
15
42
81
170
278
407
608
792
910
1155
1527
1569
1038
317
-150
-327
-369
-375
-379
-381
-380
-388
-402
-412
-420
-435
-467
-510
-545
-571
-598
-622
-630
-614
-569
-504
-420
-298
-152
-32
55
127
166
160
142
126
104
96
104
89
53
45
54
51
61
83
82
78
79
47
17
27
26
4
20
53
50
35
29
22
13
9
4
-1
1
1
-17
-45
-55
-38
-20
-26
-34
-2
59
93
87
58
26
20
37
37
33
50
43
22
35
13
-19
82
232
339
539
620
196
-335
-358
-132
-130
-219
-193
-164
-189
-192
-167
-148
-149
-164
-161
-123
-94
-100
-104
-76
-32
16
65
110
153
207
266
309
326
329
318
281
224
168
116
61
5
-33
-43
-40
-42
-40
-20
2
7
18
59
98
131
201
320
525
874
1250
1527
1795
1964
1638
833
102
-244
-367
-433
-459
-464
-474
-485
-498
-517
-542
-579
-617
-649
-697
-772
-843
-889
-927
-963
-972
-934
-851
-738
-599
-447
-316
-222
-142
-70
-30
-20
-10
9
29
51
61
53
51
67
74
60
37
21
28
46
38
24
32
31
7
7
23
9
-6
24
55
41
20
16
12
19
51
54
6
-35
-35
-21
-16
-25
-41
-25
17
40
45
48
24
-13
-23
-30
-42
-33
-37
-54
-23
-26
-76
38
264
390
587
791
466
-172
-323
-83
-23
-74
-27
6
3
27
35
38
70
77
58
79
119
125
114
125
169
242
309
349
405
496
565
600
629
625
587
560
526
450
363
297
245
215
199
175
158
164
177
203
230
219
197
195
164
110
111
180
322
519
685
870
1179
1323
917
149
-485
-821
-969
-1051
-1162
-1293
-1354
-1349
-1343
-1315
-1244
-1183
-1151
-1110
-1070
-1056
-1044
-1025
-1014
-990
-921
-812
-665
-497
-324
-137
44
165
231
279
303
297
286
292
319
340
334
343
391
434
453
487
531
552
551
551
555
565
551
471
352
263
226
224
226
189
115
67
76
111
119
84
77
160
254
282
313
414
511
543
568
596
562
495
438
319
117
-75
-197
-221
-169
-163
-199
-132
-30
37
232
339
-114
-777
-945
-802
-846
-989
-1034
-1053
-1080
-1065
-996
-861
-678
-530
-464
-434
-383
-331
-312
-261
-133
-15
45
121
218
272
313
375
399
384
386
374
317
269
243
195
152
146
131
106
121
148
147
157
186
186
171
191
249
325
389
460
644
908
1060
1184
1507
1736
1411
729
196
-81
-215
-250
-251
-277
-302
-302
-307
-332
-363
-393
-428
-461
-479
-505
-555
-603
-633
-653
-644
-584
-489
-375
-245
-106
9
71
87
84
59
14
-35
-65
-67
-60
-56
-26
-1
-8
63
217
299
407
724
993
890
503
45
-335
-463
-350
-222
-194
-211
-212
-187
-159
-148
-145
-152
-168
-172
-162
-158
-154
-124
-63
9
61
91
128
192
265
312
315
287
244
198
160
131
94
47
24
42
72
75
56
48
59
65
61
66
80
78
57
49
56
48
41
53
-15
-202
-318
-252
-181
-201
-201
-167
-187
-214
-183
-148
-153
-157
-139
-126
-125
-124
-120
-112
-92
-67
-57
-63
-72
-73
-68
-68
-71
-68
-65
-69
-75
-78
-83
-81
-62
-35
-27
-24
15
83
120
107
79
68
71
65
60
70
64
57
79
62
24
118
300
482
745
827
352
-246
-336
-149
-126
-179
-167
-153
-159
-178
-202
-193
-168
-175
-182
-156
-125
-108
-96
-83
-57
-14
35
87
141
189
230
258
263
256
253
236
187
121
54
-1
-32
-41
-48
-62
-64
-53
-51
-63
-62
-51
-62
-88
-90
-72
-79
-117
-137
-97
-34
-18
-48
-66
-73
-94
-109
-107
-103
-88
-73
-62
-32
-46
-98
4
223
396
698
993
628
-176
-437
-162
-61
-144
-119
-96
-156
-157
-105
-103
-121
-97
-74
-81
-69
-33
-22
-15
19
57
108
192
274
336
393
425
420
394
329
220
113
35
-34
-98
-130
-130
-130
-141
-149
-145
-132
-114
-99
-94
-85
-59
-43
-53
-30
49
108
104
83
65
40
35
42
30
31
51
35
28
53
12
-3
143
264
365
660
713
96
-518
-536
-416
-499
-530
-450
-396
-335
-270
-249
-219
-166
-139
-116
-64
-16
11
33
66
116
177
242
328
432
507
526
508
460
367
221
39
-119
-202
-232
-259
-280
-270
-241
-215
-186
-151
-128
-114
-89
-82
-145
-256
-340
-366
-339
-276
-225
-224
-252
-259
-231
-199
-174
-125
-83
-95
-79
-19
-43
-66
68
225
403
748
837
303
-241
-254
-105
-109
-110
-91
-119
-114
-84
-98
-113
-121
-159
-171
-124
-95
-99
-64
2
53
92
133
176
233
294
331
340
318
264
198
129
52
-10
-33
-46
-69
-88
-85
-68
-54
-51
-49
-51
-62
-61
-39
-24
-24
0
53
81
66
52
36
-9
-35
-13
-1
-24
-30
3
60
101
104
162
322
443
519
638
560
172
-78
47
206
210
199
193
142
101
94
81
57
43
47
59
64
68
86
106
117
129
143
164
195
226
246
252
242
222
192
122
10
-98
-176
-232
-271
-300
-364
-472
-544
-507
-404
-333
-311
-281
-218
-148
-93
-57
-40
-28
-24
-55
-97
-110
-114
-132
-143
-144
-139
-122
-110
-101
-102
-148
-143
-6
134
276
508
487
9
-388
-340
-200
-203
-211
-186
-170
-145
-131
-134
-118
-117
-144
-139
-105
-91
-80
-46
-2
36
56
67
109
182
235
264
302
319
274
191
105
37
4
-15
-51
-78
-72
-72
-92
-86
-59
-62
-86
-86
-69
-67
-65
-61
-105
-185
-223
-221
-243
-293
-350
-408
-451
-494
-561
-598
-549
-429
-301
-271
-282
-108
158
286
494
791
576
-59
-268
-29
69
47
129
173
134
140
171
184
227
274
256
221
238
265
259
269
321
366
390
433
499
547
569
577
551
466
336
197
76
-8
-54
-90
-131
-158
-171
-190
-201
-188
-179
-181
-164
-132
-98
-41
29
62
86
169
275
316
295
269
241
215
230
262
233
162
137
178
215
170
108
169
270
353
594
750
326
-290
-381
-185
-200
-264
-183
-129
-156
-153
-120
-129
-186
-244
-268
-273
-292
-307
-302
-310
-323
-270
-149
-35
44
109
160
176
157
116
56
-22
-99
-163
-212
-244
-261
-286
-308
-311
-333
-390
-421
-401
-385
-409
-448
-456
-412
-346
-304
-259
-185
-140
-159
-196
-232
-269
-275
-265
-270
-276
-298
-330
-315
-315
-374
-314
-118
61
349
679
529
10
-134
112
223
197
249
301
309
353
394
396
429
495
533
544
554
547
522
496
462
427
408
390
370
362
334
247
146
69
-21
-147
-257
-311
-339
-360
-348
-318
-327
-362
-357
-305
-249
-213
-186
-141
-70
