# session 27
-22
-8
-1
7
19
33
35
27
28
32
14
-24
-51
-44
-16
-14
-34
-16
36
64
62
50
30
19
18
8
20
45
25
19
70
49
11
154
344
498
840
1037
507
-223
-321
-81
-67
-132
-97
-81
-90
-77
-90
-116
-109
-95
-88
-71
-59
-57
-45
-22
-3
20
68
139
216
288
337
347
334
304
230
134
64
7
-54
-87
-93
-113
-143
-154
-152
-157
-161
-158
-152
-142
-133
-127
-102
-59
-11
52
133
226
395
630
792
917
1240
1644
1633
1048
293
-208
-397
-453
-508
-549
-539
-517
-528
-559
-599
-633
-642
-650
-704
-779
-817
-824
-845
-872
-849
-758
-631
-497
-342
-164
-6
81
101
99
103
92
56
27
23
38
56
48
25
36
70
80
81
100
113
107
97
92
86
82
77
78
90
96
83
74
78
75
70
74
77
82
96
102
98
100
113
125
126
118
121
134
130
107
96
102
104
98
103
129
164
195
204
181
143
120
102
82
82
88
79
85
91
64
80
174
295
527
781
605
25
-291
-183
-96
-132
-117
-107
-145
-137
-109
-122
-124
-93
-89
-121
-132
-104
-80
-81
-82
-66
-38
-5
40
99
146
162
170
188
185
151
116
74
17
-25
-44
-72
-101
-103
-95
-103
-108
-95
-78
-67
-57
-48
-49
-56
-66
-76
-80
-81
-93
-108
-117
-125
-122
-105
-114
-145
-127
-53
-20
-54
-90
-105
-128
-151
-143
-112
-108
-138
-126
-75
-92
-115
-7
134
249
421
403
-14
-373
-288
-96
-89
-108
-73
-64
-61
-43
-49
-61
-53
-48
-56
-58
-52
-43
-25
-13
-9
14
71
135
190
246
303
334
334
317
278
216
154
97
42
-2
-34
-57
-56
-44
-49
-53
-40
-34
-38
-32
-33
-53
-61
-45
-38
-56
-76
-76
-75
-95
-119
-121
-109
-95
-93
-91
-51
24
61
25
-35
-57
-37
-18
-25
-28
-25
-30
-8
11
-22
28
194
300
443
682
531
-80
-399
-210
-68
-118
-113
-78
-91
-85
-63
-65
-68
-58
-46
-32
-23
-12
7
31
55
83
122
177
245
310
357
381
393
397
360
269
170
98
30
-53
-119
-142
-143
-158
-179
-184
-184
-189
-180
-160
-160
-164
-147
-131
-140
-150
-118
-35
81
230
421
576
621
614
564
420
348
441
376
12
-273
-296
-290
-327
-316
-300
-317
-323
-320
-341
-368
-378
-385
-404
-420
-422
-419
-411
-391
-358
-311
-254
-196
-134
-72
-30
5
50
80
84
89
95
95
93
84
77
83
82
78
93
100
90
102
116
93
64
63
63
51
46
48
47
36
21
20
30
34
34
44
54
46
25
12
16
22
23
23
22
17
17
23
25
19
14
7
-8
-16
-8
-7
-27
-22
40
106
124
114
97
68
39
29
29
13
-4
8
20
11
31
33
-21
32
205
303
493
847
755
71
-366
-245
-112
-155
-175
-185
-208
-172
-138
-153
-163
-166
-177
-156
-124
-124
-113
-63
-35
-46
-25
50
123
173
219
257
276
288
285
246
185
131
78
10
-55
-87
-89
-93
-108
-107
-87
-76
-79
-74
-61
-59
-64
-69
-78
-94
-106
-109
-112
-119
-118
-112
-104
-88
-70
-64
-55
-5
70
108
92
66
55
43
26
14
5
-20
-51
-51
-41
-47
-22
17
-17
-34
69
190
354
610
570
58
-337
-262
-125
-166
-192
-163
-171
-175
-149
-148
-165
-143
-103
-100
-115
-96
-60
-44
-22
31
87
128
174
229
276
305
318
305
264
203
132
60
-3
-52
-90
-120
-141
-153
-153
-142
-132
-126
-114
-98
-95
-97
-85
-76
-89
-97
-78
-62
-68
-64
-44
-45
-65
-57
-26
-5
26
90
133
109
54
14
-21
-56
-72
-82
-110
-122
-100
-105
-137
-116
-74
-92
-92
8
131
239
305
131
-259
-444
-282
-115
-111
-116
-77
-61
-59
-36
-25
-37
-16
40
78
108
131
119
118
165
203
221
258
296
322
356
372
339
264
172
83
13
-42
-94
-139
-166
-175
-169
-148
-134
-123
-84
-30
11
82
184
287
467
721
915
1138
1443
1408
799
106
-227
-321
-360
-358
-354
-367
-334
-270
-251
-282
-335
-399
-447
-475
-509
-547
-572
-589
-579
-521
-443
-362
-248
-109
5
91
167
204
183
134
88
51
37
35
21
8
9
9
7
14
21
17
8
7
16
17
11
13
24
29
27
27
33
43
49
51
57
59
55
63
78
76
62
59
61
58
49
36
26
15
0
-3
-2
-22
-45
-36
-16
-26
-42
-29
-21
-44
-56
-44
-42
-47
-45
-51
-61
-57
-44
-41
-55
-42
31
106
98
-23
-203
-302
-327
-493
-811
-1008
-945
-692
-346
-48
94
139
160
163
154
144
126
111
111
124
151
190
226
265
321
379
435
502
568
620
673
710
704
677
649
584
485
411
354
270
186
134
82
32
14
-2
-21
-17
-38
-115
-166
-155
-145
-168
-203
-230
-229
-212
-217
-239
-240
-226
-226
-233
-227
-212
-193
-181
-198
-217
-195
-162
-155
-150
-141
-144
-134
-116
-119
-101
-31
19
8
-18
-38
-60
-79
-93
-100
-99
-97
-92
-89
-99
-96
-93
-130
-116
17
157
291
411
236
-230
-457
-305
-187
-234
-253
-232
-235
-224
-198
-186
-178
-162
-154
-152
-144
-127
-113
-94
-52
-7
13
39
104
176
233
282
310
310
301
274
215
137
61
7
-10
-10
-20
-29
-27
-29
-29
0
44
60
54
67
95
101
96
131
210
303
451
659
792
812
848
873
771
707
757
568
83
-211
-163
-116
-169
-175
-153
-164
-163
-135
-124
-144
-175
-185
-168
-166
-196
-212
-185
-152
-130
-82
-3
57
80
111
160
188
191
191
183
162
139
125
115
92
73
94
117
98
92
115
103
90
105
73
74
132
-197
-1052
-1653
-1497
-1109
-935
-823
-692
-614
-551
-487
-436
-364
-311
-314
-281
-204
-176
-183
-164
-144
-131
-103
-89
-91
-67
-46
-57
-18
90
149
130
112
106
80
66
96
123
100
82
120
119
88
204
388
488
687
863
506
-130
-302
-106
-51
-99
-70
-43
-61
-83
-96
-76
-33
-17
-28
-26
-12
6
32
64
99
140
188
258
340
394
430
476
507
488
442
397
337
246
148
83
47
10
-29
-51
-55
-53
-55
-58
-49
-21
10
39
78
139
220
319
472
695
903
1075
1383
1813
1934
1442
641
21
-272
-351
-350
-367
-407
-414
-409
-441
-478
-487
-497
-520
-547
-580
-614
-659
-725
-760
-727
-662
-588
-479
-341
-205
-73
57
148
176
172
157
123
81
66
81
79
62
75
82
62
96
109
37
119
172
-432
-1323
-1481
-1058
-829
-764
-613
-510
-470
-380
-304
-286
-244
-170
-130
-133
-125
-77
-29
-19
-19
21
81
116
134
139
113
88
93
98
94
97
88
87
101
81
108
257
397
515
645
495
23
-236
-118
-16
-32
-13
12
8
22
34
32
42
56
70
87
84
77
108
146
160
190
248
292
329
393
452
471
478
479
440
374
316
252
180
128
90
44
8
-4
-17
-36
-37
-19
8
36
48
64
129
217
319
504
721
853
1016
1282
1288
814
222
-113
-241
-302
-322
-329
-353
-372
-368
-376
-406
-427
-447
-485
-516
-540
-581
-619
-631
-639
-644
-609
-516
-387
-258
-149
-54
20
48
39
22
-5
-42
-68
-85
-104
-113
-107
-101
-102
-103
-100
-92
-88
-98
-107
-100
-97
-112
-115
-100
-92
-87
-79
-81
-83
-73
-69
-63
-45
-45
-68
-70
-48
-49
-72
-62
1
69
94
83
60
31
8
3
19
29
6
5
34
-5
-34
115
305
451
710
773
238
-360
-385
-162
-128
-167
-163
-158
-134
-112
-129
-136
-118
-105
-87
-57
-41
-32
-4
33
71
123
187
243
303
375
429
446
447
435
391
327
258
185
118
63
3
-53
-70
-60
-72
-103
-101
-84
-94
-97
-66
-28
34
147
261
404
682
982
1115
1229
1483
1561
1122
409
-111
-320
-374
-393
-402
-405
-415
-439
-458
-463
-470
-492
-527
-562
-601
-655
-703
-717
-716
-732
-728
-656
-534
-402
-263
-117
4
75
105
109
88
63
42
14
-9
6
39
38
19
15
7
-4
13
34
21
4
7
-2
-24
-27
-18
-15
-11
-8
-20
-30
-25
-23
-28
-19
-9
-21
-21
33
101
125
101
59
27
22
35
57
58
18
3
25
-9
-19
126
288
417
634
634
134
-341
-313
-135
-140
-175
-150
-130
-117
-122
-144
-134
-106
-107
-101
-70
-49
-35
-9
15
35
72
123
176
218
250
294
332
319
268
229
189
113
34
-5
-34
-73
-91
-87
-94
-111
-119
-115
-108
-113
-127
-137
-132
-104
-74
-76
-71
-16
27
7
-17
-15
-19
-13
25
70
111
164
236
331
437
544
703
1014
1408
1487
943
129
-324
-343
-282
-287
-310
-325
-314
-304
-340
-367
-339
-329
-374
-410
-417
-430
-459
-487
-500
-488
-460
-426
-369
-282
-187
-102
-30
25
57
72
69
50
30
23
15
-1
-12
-19
-33
-33
-7
14
10
2
7
20
37
51
56
66
105
161
183
156
115
97
95
90
93
107
100
90
105
90
74
177
319
416
603
701
320
-214
-283
-66
-32
-105
-86
-55
-78
-96
-90
-90
-101
-98
-79
-111
-227
-344
-372
-318
-236
-157
-73
19
101
170
240
288
291
264
214
139
67
24
-15
-62
-92
-102
-105
-105
-108
-110
-104
-96
-100
-114
-119
-106
-84
-75
-76
-50
0
27
11
-21
-43
-47
-47
-45
-29
-23
-22
7
8
-15
75
216
326
609
878
544
-125
-319
-131
-94
-141
-96
-79
-108
-113
-125
-139
-119
-96
-86
-76
-83
-99
-85
-45
3
46
76
124
207
269
294
327
342
284
196
130
75
6
-67
-117
-143
-163
-166
-146
-147
-173
-170
-152
-169
-179
-140
-113
-146
-172
-124
-43
-1
-2
-22
-55
-82
-91
-89
-77
-75
-85
-70
-70
-112
-38
167
295
430
630
435
-191
-492
-277
-139
-237
-253
-179
-177
-197
-174
-156
-158
-147
-140
-142
-112
-71
-59
-37
19
71
119
185
253
321
397
446
430
367
296
223
138
57
10
-19
-44
-52
-53
-62
-57
-25
34
115
208
379
680
951
1127
1448
1839
1724
970
178
-217
-341
-404
-444
-458
-465
-476
-494
-507
-518
-549
-594
-631
-659
-697
-753
-810
-827
-795
-741
-660
-525
-356
-193
-54
41
100
150
177
169
148
118
89
81
68
38
42
74
79
68
70
69
58
52
42
33
45
55
40
31
39
39
21
7
9
12
4
-7
-11
-15
-27
-40
-41
-22
0
-13
-29
17
96
129
112
77
48
40
44
43
35
28
48
61
16
27
156
285
482
762
641
19
-381
-267
-128
-160
-169
-152
-163
-155
-146
-168
-171
-137
-107
-107
-110
-89
-65
-49
-7
53
90
129
192
242
277
307
308
288
280
252
179
109
69
31
-13
-43
-54
-49
-43
-49
-62
-66
-64
-67
-81
-99
-109
-97
-74
-68
-65
-28
19
27
-1
-32
-50
-53
-50
-45
-42
-46
-31
-15
-42
-27
89
208
378
616
518
-8
-340
-218
-89
-144
-175
-144
-134
-134
-133
-142
-133
-105
-93
-104
-102
-84
-76
-68
-37
10
55
101
156
208
242
260
267
252
208
142
69
2
-45
-75
-103
-132
-153
-163
-162
-159
-156
-149
-143
-146
-145
-129
-112
-106
-107
-100
-65
-12
10
-10
-36
-46
-53
-62
-55
-34
-42
-56
-29
-36
-72
19
176
290
509
657
279
-304
-403
-186
-147
-199
-163
-136
-145
-133
-139
-162
-151
-116
-99
-98
-88
-52
-16
-3
21
81
149
210
278
346
398
426
420
374
306
235
154
76
30
4
-27
-46
-36
-34
-55
-65
-59
-61
-63
-52
-57
-85
-101
-95
-99
-112
-78
-3
37
17
-7
-8
-5
-16
-36
-34
-9
-4
-2
15
-10
-25
63
182
410
810
839
178
-398
-321
-112
-153
-182
-117
-126
-173
-167
-142
-131
-114
-93
-90
-105
-101
-69
-40
-18
30
94
130
164
244
319
338
336
327
279
191
83
-11
-73
-138
-203
-211
-196
-227
-251
-224
-206
-211
-196
-176
-177
-176
-176
-179
-164
-143
-150
-145
-84
-14
7
-16
-50
-69
-72
-85
-85
-69
-82
-80
-36
-60
-76
79
240
384
726
842
257
-361
-336
-121
-148
-181
-135
-153
-169
-125
-101
-108
-112
-114
-100
-69
-52
-44
-17
22
48
74
121
197
285
352
384
388
368
320
247
164
91
35
-16
-54
-70
-87
-112
-123
-123
-118
-110
-107
-109
-97
-81
-87
-91
-68
-58
-85
-95
-48
25
69
62
25
6
15
10
-6
-4
-3
-1
21
1
-30
69
197
288
612
974
688
-27
-299
-155
-123
-158
-123
-146
-178
-121
-96
-140
-142
-114
-115
-117
-104
-91
-61
-17
9
25
62
120
186
244
284
310
321
291
220
145
79
10
-48
-83
-108
-124
-125
-123
-121
-111
-103
-105
-106
-100
-98
-91
-76
-75
-98
-110
-94
-65
-44
-35
-19
16
47
57
51
19
-20
-28
-25
-41
-50
-50
-44
-42
-72
-74
20
126
256
457
403
-70
-435
-361
-210
-225
-240
-197
-189
-211
-214
-196
-183
-184
-174
-154
-146
-133
-99
-79
-77
-43
19
69
115
187
258
286
288
299
288
216
127
80
48
-6
-57
-69
-63
-68
-74
-75
-76
-67
-46
-43
-47
-30
-21
-46
-60
-39
-29
-39
-33
-13
-9
-15
9
73
124
119
83
66
66
53
41
62
81
77
107
132
90
127
292
413
569
850
800
203
-218
35
