# session 156
-95
-58
-28
2
30
34
12
-22
-55
-67
-52
-26
13
63
101
136
169
156
176
328
489
578
662
579
256
80
196
264
213
234
275
246
235
268
291
305
322
353
419
494
551
605
668
741
822
888
926
949
949
906
829
729
607
499
438
394
328
270
256
252
220
178
129
65
30
30
-14
-91
-95
-50
-40
-70
-130
-202
-233
-254
-302
-317
-293
-281
-283
-314
-327
-219
-83
-14
78
37
-323
-614
-506
-318
-308
-319
-276
-239
-210
-200
-217
-218
-183
-133
-98
-65
1
36
-23
-74
-46
-25
-52
-87
-140
-227
-324
-424
-526
-620
-693
-737
-755
-769
-781
-773
-752
-745
-755
-755
-723
-694
-713
-737
-706
-642
-571
-480
-403
-381
-372
-330
-244
-127
-41
2
54
59
14
83
229
335
517
643
370
2
42
270
329
343
401
408
411
466
483
450
457
495
499
487
511
568
642
723
785
818
840
847
823
776
717
649
556
438
350
347
404
468
523
559
582
614
646
673
731
800
801
741
684
593
405
166
-40
-204
-352
-472
-552
-617
-693
-743
-748
-749
-705
-549
-346
-76
326
516
184
-239
-293
-211
-259
-326
-347
-387
-435
-461
-475
-494
-539
-621
-730
-837
-899
-924
-935
-871
-670
-402
-182
-56
1
40
60
22
-50
-96
-109
-100
-69
-34
1
43
76
84
77
59
29
4
-36
-136
-257
-330
-387
-487
-606
-714
-805
-819
-728
-621
-594
-590
-492
-394
-468
-537
-328
28
348
616
632
352
214
355
415
349
365
408
393
405
445
453
454
465
464
450
424
378
323
266
211
177
186
240
325
392
393
356
343
380
446
514
567
617
673
724
754
760
746
714
674
657
672
668
629
604
607
599
574
534
463
393
346
296
241
190
137
90
14
-100
-127
-53
3
114
202
-117
-695
-915
-772
-706
-733
-670
-560
-492
-476
-506
-552
-590
-645
-716
-763
-786
-824
-864
-864
-841
-823
-766
-608
-379
-171
-16
89
107
60
46
63
41
15
43
70
47
-2
-77
-205
-338
-420
-495
-616
-713
-693
-605
-561
-585
-628
-633
-558
-441
-347
-266
-200
-171
-112
-21
27
130
353
522
598
639
467
122
17
169
204
96
74
125
134
122
132
139
145
176
211
241
281
325
367
421
467
494
540
593
595
548
488
418
336
255
195
170
165
164
173
202
234
259
282
283
255
244
258
244
200
192
230
258
228
136
36
-16
-48
-79
-70
-40
-28
0
4
-57
-54
33
105
302
558
364
-208
-462
-341
-302
-345
-301
-271
-286
-259
-232
-245
-242
-212
-189
-163
-118
-83
-65
-16
75
165
246
309
326
332
352
314
200
101
68
78
85
47
-34
-112
-185
-274
-354
-402
-441
-476
-486
-471
-452
-431
-380
-292
-216
-206
-234
-218
-151
-107
-120
-139
-140
-166
-275
-489
-692
-745
-731
-708
-526
-385
-718
-1243
-1358
-1176
-1072
-976
-794
-647
-533
-357
-155
3
150
318
462
558
671
824
966
1095
1221
1279
1252
1212
1166
1058
923
846
808
764
743
752
743
709
677
652
626
589
559
563
580
571
579
650
720
723
723
771
801
754
655
530
398
288
189
85
-13
-97
-162
-230
-320
-351
-301
-259
-157
8
-114
-555
-781
-639
-482
-387
-209
-9
83
72
41
39
37
25
42
70
80
119
182
195
142
60
-22
-72
-120
-229
-357
-433
-506
-595
-594
-511
-519
-654
-776
-840
-908
-983
-1038
-1086
-1143
-1202
-1244
-1261
-1269
-1299
-1336
-1332
-1317
-1351
-1395
-1357
-1205
-980
-766
-630
-557
-507
-424
-280
-162
-97
60
316
571
838
934
639
320
400
621
662
628
567
378
160
35
-57
-134
-117
-34
30
89
169
227
259
307
358
378
388
381
329
265
210
130
61
63
82
83
107
91
-55
-212
-206
-86
4
50
99
138
151
169
193
178
159
223
347
416
389
330
302
299
301
336
393
409
419
461
467
488
636
819
973
1112
998
570
329
486
647
656
703
784
815
837
865
879
896
930
977
1008
1000
996
1018
1037
1066
1138
1214
1262
1305
1314
1230
1108
1041
1014
1000
1012
959
704
342
66
-112
-275
-419
-524
-609
-686
-721
-691
-644
-577
-396
-148
46
263
498
419
-135
-844
-1346
-1573
-1636
-1657
-1685
-1700
-1699
-1710
-1728
-1737
-1744
-1768
-1811
-1850
-1867
-1879
-1884
-1825
-1695
-1551
-1395
-1216
-1065
-959
-878
-850
-876
-891
-881
-887
-894
-854
-749
-614
-513
-481
-469
-409
-299
-184
-97
-45
-27
-51
-128
-219
-271
-315
-384
-390
-267
-108
-40
-85
-165
-173
-121
-122
-159
-79
143
379
539
615
658
727
790
803
818
850
857
874
893
879
925
1040
1153
1384
1629
1425
894
693
842
875
777
761
774
710
610
551
558
590
597
592
604
614
609
625
673
714
736
774
819
829
808
788
746
663
570
468
333
207
130
70
23
9
-6
-44
-58
-42
-40
-49
-47
-41
-49
-64
-57
-25
-11
-39
-76
-101
-130
-170
-215
-255
-307
-376
-420
-424
-429
-401
-307
-206
-43
169
73
-405
-735
-690
-617
-664
-671
-612
-555
-515
-508
-524
-523
-497
-478
-483
-493
-470
-413
-358
-312
-252
-191
-165
-165
-164
-186
-236
-267
-286
-332
-355
-296
-210
-162
-139
-107
-69
-37
-14
3
14
27
65
120
152
170
226
302
326
304
285
276
274
294
330
358
372
395
430
441
452
543
688
839
1055
1221
965
394
289
640
505
327
816
495
-241
1068
1077
-3668
-6196
-1749
2063
984
102
912
872
561
885
973
855
905
760
425
198
-3
-243
-435
-597
-754
-846
-879
-932
-993
-971
-887
-819
-755
-702
-717
-757
-765
-801
-868
-877
-828
-799
-801
-812
-822
-820
-811
-818
-806
-753
-679
-551
-372
-241
-115
97
279
423
606
551
166
-43
113
261
292
337
361
373
439
473
444
454
509
541
565
597
610
624
662
695
737
827
921
979
990
942
872
801
642
375
136
-20
-157
-282
-355
-401
-451
-472
-448
-411
-378
-337
-263
-150
-41
56
250
577
852
1006
1245
1574
1597
1072
296
-287
-542
-608
-628
-653
-686
-710
-705
-699
-732
-772
-772
-771
-808
-840
-836
-823
-803
-740
-605
-411
-218
-66
72
193
255
272
294
314
316
326
354
379
412
464
509
532
545
557
576
605
633
650
661
668
686
713
723
746
768
657
421
264
209
98
-66
-177
-202
-126
23
146
204
249
307
353
390
406
343
251
209
121
-31
-64
-29
-1
303
679
388
-360
-688
-629
-704
-844
-881
-949
-1053
-1070
-1061
-1108
-1135
-1084
-1043
-1054
-1044
-1008
-993
-894
-621
-255
80
291
293
142
12
-57
-148
-230
-206
-119
-72
-94
-133
-55
132
183
118
260
516
526
388
364
428
552
717
842
995
1120
879
301
-153
-325
-393
-431
-449
-478
-488
-480
-507
-540
-517
-495
-534
-566
-552
-577
-609
-485
-251
-116
-80
-6
113
201
223
203
194
200
182
158
179
248
316
374
503
693
843
1099
1571
1795
1340
577
82
-103
-175
-205
-219
-237
-251
-265
-292
-327
-366
-410
-461
-522
-576
-607
-598
-532
-433
-315
-139
74
204
226
221
202
165
160
165
134
124
149
142
126
140
128
92
98
126
116
99
107
110
84
67
88
109
79
41
60
102
186
399
606
670
768
943
921
746
656
496
143
-137
-232
-280
-299
-282
-297
-318
-296
-288
-312
-337
-375
-414
-417
-424
-476
-525
-527
-511
-485
-412
-303
-214
-146
-49
70
141
134
84
34
12
21
34
36
52
94
150
222
328
452
531
544
502
363
215
298
470
289
-118
-255
-170
-176
-226
-215
-207
-213
-219
-255
-294
-299
-296
-295
-287
-283
-275
-240
-193
-165
-150
-114
-50
22
71
69
25
-13
-25
-48
-88
-83
-3
61
33
-30
-54
-56
-66
-75
-84
-111
-121
-75
-14
12
13
7
-13
-36
-44
-16
24
9
-26
-11
-14
-39
42
152
226
445
614
283
-236
-323
-155
-142
-180
-145
-140
-153
-127
-116
-131
-125
-102
-69
-25
3
23
78
149
202
250
307
354
380
366
308
237
186
129
48
16
77
136
130
140
179
166
126
119
112
91
98
112
98
91
104
98
63
18
-25
-54
-72
-95
-107
-104
-109
-103
-80
-94
-96
-12
84
178
318
267
-104
-375
-283
-148
-168
-181
-136
-125
-131
-124
-129
-138
-119
-91
-79
-76
-66
-45
-14
24
72
111
119
115
119
103
46
-23
-88
-148
-186
-206
-230
-240
-231
-252
-300
-299
-259
-258
-268
-232
-199
-192
-137
-38
46
131
201
212
249
347
362
261
184
152
118
109
86
27
54
153
224
379
536
302
-187
-360
-225
-172
-219
-219
-210
-219
-211
-204
-218
-216
-178
-151
-160
-142
-80
-27
10
66
132
195
251
277
261
235
205
143
66
15
-22
-55
-54
-28
-24
-35
-32
-29
-43
-55
-42
-9
11
-4
-12
43
147
225
241
267
357
450
543
698
839
918
968
771
216
-211
-209
-174
-336
-405
-289
-186
-140
-89
-61
-88
-142
-198
-245
-291
-351
-408
-437
-441
-430
-389
-310
-202
-73
60
165
215
219
221
226
198
145
119
104
64
39
67
107
110
97
100
115
126
124
110
92
77
60
35
-6
-64
-95
-66
-11
2
-47
-112
-131
-122
-138
-155
-150
-162
-169
-150
-180
-193
-83
13
119
424
541
58
-469
-485
-349
-391
-427
-396
-408
-423
-403
-397
-403
-391
-374
-371
-368
-343
-304
-262
-208
-150
-105
-64
-23
-9
-28
-61
-112
-187
-268
-329
-363
-389
-420
-434
-375
-181
139
487
797
1058
1251
1401
1505
1423
1136
876
749
626
464
326
211
103
18
-47
-92
-136
-181
-172
-146
-149
-61
124
266
450
612
293
-414
-809
-782
-772
-845
-853
-839
-855
-872
-884
-894
-913
-949
-964
-962
-966
-890
-685
-458
-257
-1
317
637
951
1248
1519
1764
1898
1824
1610
1415
1358
1422
1409
1193
920
735
585
431
314
228
133
31
-40
-54
-61
-115
-170
-183
-198
-246
-302
-343
-346
-317
-292
-273
-251
-229
-195
-165
-156
-104
4
146
338
360
-43
-526
-633
-530
-445
-295
-181
-251
-347
-357
-372
-397
-394
-397
-408
-407
-393
-353
-296
-261
-232
-180
-122
-74
-42
-45
-67
-95
-163
-257
-310
-333
-367
-395
-391
-376
-377
-389
-381
-351
-337
-337
-327
-313
-305
-292
-283
-289
-282
-237
-187
-193
-247
-277
-268
-273
-286
-260
-245
-282
-273
-219
-248
-257
-114
32
165
350
268
-163
-370
-133
122
212
286
363
432
544
656
717
794
935
1079
1171
1236
1327
1439
1543
1638
1685
1611
1477
1405
1368
1267
1128
997
837
635
446
311
233
168
69
-33
-77
-103
-166
-229
-267
-320
-381
-410
-413
-439
-490
-500
-448
-409
-429
-471
-507
-533
-549
-557
-555
-557
-584
-583
-556
-601
-638
-542
-452
-356
-72
29
-422
-888
-878
-747
-784
-812
-775
-765
-772
-775
-778
-777
-765
-728
-695
-705
-696
-621
-551
-510
-436
-350
-307
-274
-229
-221
-256
-298
-359
-436
-473
-476
-487
-446
-314
-187
-121
-41
61
88
24
-27
-10
19
89
377
798
1004
1057
1290
1428
998
292
-144
-317
-392
-330
-225
-224
-211
-87
53
215
397
401
237
186
290
370
413
522
736
1024
1318
1581
1811
1985
2119
2249
2351
2428
2493
2424
2137
1787
1511
1277
1073
920
770
613
504
416
297
194
138
79
0
-69
-132
-197
-247
-280
-308
-334
-363
-405
-444
-466
-486
-511
-531
-547
-572
-605
-623
-614
-603
-615
-620
-590
-568
-596
-649
-690
-723
-755
-772
-775
-800
-836
-833
-845
-894
-853
-732
-642
-498
-390
-669
-1145
-1266
-1104
-1060
-1099
-1081
-1077
-1108
-1120
-1115
-1104
-1092
-1088
-1077
-1063
-1050
-1026
-1006
-995
-955
-895
-839
-777
-738
-707
-582
-382
-208
22
318
414
211
-36
-158
-212
-228
-206
-181
-176
-185
-192
-168
-97
61
307
535
739
980
1042
682
131
-204
-256
-168
-37
91
191
266
324
379
429
467
497
519
517
482
429
404
461
604
798
1052
1394
1760
2044
2232
2349
2357
2251
2083
1853
1597
1447
1396
1343
1373
1586
1874
2198
2586
2873
3051
3400
3789
3739
3259
2627
1875
1123
605
273
-27
-295
-528
-746
-930
-1103
-1298
-1492
-1658
-1815
-1978
-2122
-2208
-2230
-2215
-2165
-2049
-1863
-1660
-1524
-1500
-1551
-1607
-1648
-1681
-1705
-1722
-1724
-1710
-1715
-1718
-1594
-1281
-895
-570
-346
-228
-211
-261
-321
-328
-297
-321
-430
-550
-633
-697
-750
-789
-825
-857
-859
-863
-933
-928
-612
-148
37
-49
-63
49
118
137
181
224
216
180
171
194
207
196
192
197
179
149
151
185
229
296
362
354
301
300
310
259
244
350
474
519
531
569
639
709
748
774
808
838
862
855
828
894
1037
1168
1411
1638
1343
682
390
491
499
400
353
280
182
132
69
-14
-37
-44
-109
-152
-117
-91
-97
-64
-21
-18
3
56
75
76
98
92
45
9
-20
-74
-129
-164
-195
-216
-219
-224
-242
-255
-259
-263
-272
-287
-302
-301
-288
-294
-318
-314
-274
-245
-249
-275
-313
-337
-333
-344
-355
-324
-309
-331
-320
-307
-322
-249
-94
6
24
-83
-319
-433
-308
-178
-156
-119
-69
-66
-68
-59
-60
-49
-26
-32
-41
-8
39
78
137
206
254
299
357
403
419
404
359
298
231
159
93
46
18
7
8
16
33
51
50
25
-14
-55
-87
-103
-110
-121
-140
-148
-131
-114
-129
-171
-198
-187
-169
-162
-122
-28
81
170
197
174
221
342
446
638
863
692
167
-96
10
72
26
34
50
28
27
