# session 229
191
200
204
180
117
73
78
63
9
-16
3
23
-3
-65
-52
-20
-105
-106
-24
-190
-216
93
-131
-225
675
-655
-5352
-6973
-3156
-913
-2259
-1610
1082
1484
268
22
181
-591
-2283
-3559
-2777
-571
676
547
412
551
490
381
393
358
286
244
168
98
118
184
268
391
526
656
776
827
834
851
800
733
745
647
558
790
555
-1055
-2857
-2862
-1209
206
447
265
349
523
609
657
656
620
490
402
826
1312
723
-290
-127
715
890
676
694
751
720
716
813
984
1040
1180
1606
1532
696
171
16
-248
63
-229
-3342
-6082
-3820
-64
-643
-3146
-3063
-2231
-2411
-1407
-367
-2058
-3191
-852
1219
823
514
971
952
812
954
928
806
808
780
718
698
673
647
631
611
616
622
588
595
682
772
827
848
881
1032
1239
1384
1632
1998
2104
1824
1235
446
158
178
-1376
-3648
-2696
301
-248
-3237
-2950
-397
78
-681
-548
-364
-594
-556
-394
-358
-224
-91
-82
78
372
405
360
546
433
132
533
509
-1122
-1944
-408
814
384
103
378
321
174
239
237
186
194
170
123
85
43
53
99
88
63
61
-10
-63
-8
-77
-131
145
134
-148
423
546
-1625
-3062
-870
1615
1384
480
481
510
380
414
365
223
177
149
104
97
98
87
80
77
96
133
143
143
175
210
224
259
309
319
297
272
246
220
157
66
60
68
-15
5
52
-146
-104
296
-271
-2304
-4164
-4143
-2181
61
807
417
300
455
369
277
287
236
214
237
217
221
289
485
828
911
440
-66
-114
16
5
-4
58
40
14
91
-19
-433
-596
-240
101
126
128
205
219
233
308
358
368
382
395
394
374
333
268
155
85
125
106
31
97
59
-130
77
224
-927
-2986
-4231
-3606
-1472
416
707
254
229
327
231
221
259
252
318
364
344
416
519
632
907
1016
582
93
51
134
55
11
65
90
76
60
59
93
116
99
98
122
131
150
205
252
264
297
362
388
358
342
338
278
187
125
74
29
29
54
38
-31
-86
-59
7
-2
-78
-100
-37
19
7
-37
-73
-96
-84
-75
-118
-105
-45
-130
-170
-64
-175
-46
617
85
-1888
-2271
-537
340
-116
-158
104
5
-38
67
36
7
65
77
64
79
90
100
126
166
218
261
283
303
316
283
225
190
152
73
2
-25
-47
-77
-84
-74
-72
-89
-109
-94
-57
-83
-148
-98
35
55
0
-4
-44
-75
-1
-45
-100
81
-22
-227
341
218
-1764
-2438
-151
1381
458
-244
105
170
4
76
87
21
49
51
19
32
37
20
33
48
50
69
96
120
152
187
203
200
193
193
186
149
104
72
40
24
36
30
8
16
22
-13
-42
-41
-35
-15
26
58
69
58
27
4
-1
-19
-45
-47
-19
10
-23
-108
-140
-122
-16
333
661
437
-102
-285
-164
-153
-217
-207
-191
-202
-192
-166
-141
-118
-97
-68
-38
-22
-1
47
96
119
134
156
175
170
139
100
80
67
23
-39
-69
-64
-52
-54
-78
-104
-104
-85
-70
-68
-69
-54
-15
12
-2
-34
-63
-100
-121
-88
-53
-64
-63
-43
-61
-57
17
123
326
533
384
-36
-209
-106
-75
-122
-104
-86
-105
-105
-98
-112
-119
-108
-99
-86
-60
-29
9
61
106
132
157
177
174
165
173
161
103
51
42
20
-23
-15
25
10
-32
-32
-20
-17
5
14
-8
26
120
152
98
48
24
2
18
54
31
6
48
41
-47
-62
22
183
418
407
-17
-340
-224
-62
-108
-166
-166
-173
-154
-105
-82
-79
-77
-66
-17
37
52
72
129
175
208
266
316
325
311
286
245
198
133
48
-4
0
-7
-36
-28
-11
-32
-28
-8
-5
61
107
135
498
872
736
1016
1737
633
-2058
-3327
-3068
-2723
-1595
50
417
-36
7
128
-29
-26
64
-7
-87
-101
-138
-190
-222
-236
-228
-182
-93
12
108
199
265
284
275
269
259
236
216
214
210
196
194
201
191
170
162
163
163
162
150
136
137
125
87
78
104
95
46
32
84
159
194
164
120
104
87
71
81
81
64
80
81
49
81
162
270
505
643
334
-123
-233
-136
-128
-144
-120
-122
-137
-134
-136
-139
-136
-133
-128
-118
-99
-63
-26
4
44
98
141
160
169
174
158
120
80
37
-14
-50
-63
-76
-88
-89
-100
-131
-142
-111
-81
-83
-83
-44
-3
-11
-47
-69
-83
-102
-97
-82
-104
-127
-111
-113
-129
-89
-21
83
235
181
-160
-360
-225
-95
-110
-103
-63
-62
-57
-41
-42
-41
-29
-25
-20
3
31
54
84
121
158
195
219
215
200
178
125
58
7
-38
-79
-95
-82
-55
-47
-77
-103
-76
-40
-48
-58
-15
41
65
61
27
-5
18
20
-19
40
64
-46
69
162
-185
33
764
-219
-2157
-1781
-11
241
-217
40
195
6
45
86
-1
25
26
-9
87
82
37
221
157
-63
412
494
-966
-1676
-209
884
438
208
478
358
158
194
156
72
83
82
59
68
76
79
117
195
288
443
745
1096
1353
1637
1948
1858
1158
288
-244
-407
-443
-480
-502
-512
-542
-578
-588
-588
-624
-689
-735
-752
-771
-792
-789
-744
-635
-481
-348
-241
-111
12
69
78
78
69
60
57
42
27
40
60
44
15
14
28
20
-2
-4
8
4
-8
0
2
-33
-53
-19
-2
-46
-73
-22
51
87
86
72
57
63
91
103
130
277
501
660
825
1040
1101
1059
1105
922
300
-215
-297
-292
-360
-371
-368
-395
-389
-391
-439
-481
-518
-550
-543
-538
-574
-604
-611
-619
-618
-586
-520
-426
-332
-254
-174
-97
-39
12
49
59
72
92
93
114
173
236
373
642
942
1226
1456
1425
1217
1171
1025
391
-225
-296
-195
-267
-303
-252
-289
-361
-353
-335
-369
-417
-439
-441
-447
-463
-457
-421
-376
-319
-245
-175
-115
-62
-37
-36
-29
-20
-15
11
54
77
79
73
56
42
43
42
31
28
32
30
25
28
26
13
6
6
-15
-48
-45
-9
0
-17
2
61
101
91
62
54
59
58
60
68
65
80
96
72
107
240
350
529
809
726
158
-209
-82
30
-56
-42
40
2
-23
8
-26
34
130
-10
58
331
-9
-36
870
-271
-3818
-4544
-1414
614
342
387
795
619
450
488
359
256
291
265
222
244
247
238
258
253
220
239
317
372
352
304
283
264
235
238
246
215
221
273
236
183
313
477
460
399
317
43
-183
-59
126
83
41
102
71
61
139
30
29
332
88
-194
673
135
-3565
-5348
-2071
1148
1029
499
903
910
630
620
583
405
260
305
326
27
86
545
-475
-3306
-5570
-5706
-3805
-878
957
919
615
796
786
637
670
647
563
592
604
541
504
478
502
624
726
828
980
862
395
123
234
316
242
210
225
226
207
158
159
209
203
241
279
127
155
398
180
148
862
88
-2627
-3338
-1018
586
322
163
355
221
115
168
105
47
82
64
18
42
68
28
-15
5
57
89
104
104
68
39
67
93
62
64
151
172
91
96
176
281
551
705
487
315
-105
-1324
-1931
-839
240
139
-33
176
177
66
95
87
40
62
76
67
96
138
158
179
212
238
236
216
187
124
39
-11
-39
-99
-163
-179
-151
-103
-78
-89
-71
-14
74
238
374
513
972
1330
1126
1400
1957
302
-2799
-3504
-1937
-873
-396
97
73
-160
-94
-95
-222
-227
-238
-323
-372
-401
-427
-410
-353
-258
-134
-1
140
237
251
262
292
231
132
143
199
186
159
173
223
245
192
238
322
124
124
511
-128
-1667
-1538
265
1146
982
1146
1235
781
440
366
268
213
192
78
-28
-59
-110
-185
-229
-252
-281
-325
-401
-472
-484
-481
-531
-588
-598
-578
-525
-417
-293
-172
-38
30
58
225
325
128
170
468
-32
-962
-726
197
299
-24
45
140
60
84
126
65
48
89
86
49
26
22
29
33
16
-18
-38
-45
-66
-83
-70
-80
-145
-175
-95
26
89
79
58
75
85
49
42
93
131
136
114
109
219
361
437
575
587
117
-416
-437
-238
-209
-201
-140
-130
-124
-86
-68
-63
-68
-85
-63
-26
-42
-48
24
93
123
179
244
264
281
289
228
149
113
60
-23
-67
-81
-96
-96
-88
-60
-2
15
31
125
187
306
690
961
998
1406
1704
899
-9
93
180
-349
-600
-474
-518
-584
-516
-516
-551
-523
-516
-554
-587
-624
-674
-734
-789
-800
-741
-639
-499
-294
-45
151
244
289
322
313
300
331
330
288
282
253
226
347
363
173
310
503
-154
-868
-383
384
329
137
308
376
294
312
337
311
322
369
429
466
420
357
377
428
441
429
396
396
446
411
362
474
575
710
1164
1310
598
9
42
-30
135
442
-1350
-4664
-4996
-1881
-360
-2753
-5651
-5067
-1545
447
-521
-745
544
70
-954
732
2016
-279
-1929
-21
1687
1418
1253
908
-167
-58
1060
1190
778
872
921
764
826
901
821
800
857
906
900
814
759
735
634
631
672
488
603
903
-876
-4815
-5994
-2240
888
-314
-1797
-814
107
134
650
1062
765
659
815
742
679
737
696
645
672
669
633
614
608
628
673
708
730
741
718
695
746
776
623
490
509
338
215
488
257
-168
674
467
-2864
-4700
-2361
-617
-1434
-1924
-1683
-1229
-13
759
340
115
344
264
121
165
172
160
167
203
351
504
609
685
486
57
-67
158
258
184
222
308
244
204
276
197
176
385
146
-63
759
144
-3618
-5324
-1532
1632
-185
-2033
-749
268
-100
272
927
649
344
491
501
442
522
512
426
421
415
348
303
323
365
388
386
378
353
290
249
277
274
227
281
329
242
278
387
344
565
838
483
509
756
-1426
-4410
-3535
-696
-604
-1938
-1753
-669
145
483
348
214
321
342
269
296
378
454
522
567
618
673
678
635
572
474
366
321
322
278
241
251
189
172
282
168
99
399
120
-163
1002
418
-3699
-4597
-268
926
-1834
-1373
588
-572
-1306
408
1029
241
179
438
304
254
502
831
804
310
-33
9
-4
-154
-243
-280
-292
-292
-255
-79
87
118
279
492
435
505
711
96
-915
-769
260
753
429
-5
159
403
-548
-2133
-2853
-2747
-1954
-335
826
730
493
655
704
716
896
1049
1208
1449
1559
1440
1210
972
813
744
636
460
353
348
342
312
273
196
152
176
101
-11
47
26
-120
-22
-189
-829
-581
24
-1241
-2672
-1528
43
315
801
250
-2320
-2807
-49
1459
317
-814
-664
232
908
813
584
740
892
910
1012
1174
1279
1348
1462
1476
1184
908
743
318
251
610
-813
-4119
-5660
-3769
-425
1492
-202
-3327
-3071
-815
-1107
-2529
-2462
-2117
-1552
5
892
569
545
884
897
883
989
978
939
939
884
841
861
844
769
730
748
724
658
661
669
605
623
629
496
567
618
245
455
940
-678
-2663
-1104
649
-2536
-6367
-4550
114
1460
-814
-2525
-1390
604
1086
701
734
878
825
851
864
745
703
743
707
643
626
610
585
550
520
598
744
858
1082
1285
954
291
82
296
336
230
282
318
213
203
217
121
228
267
-135
46
593
-901
-3402
-2922
-279
673
170
212
437
321
267
195
14
-13
13
-89
-151
-95
-68
-115
-151
-135
-91
-38
2
13
41
118
222
384
544
572
695
998
1058
1233
1889
1607
415
506
224
-2930
-4707
-2244
-727
-2319
-2879
-1648
-814
-315
47
-135
-243
-28
13
-43
-29
-115
-222
-173
-43
91
226
336
438
496
434
359
381
398
412
476
435
382
646
1056
1274
1227
746
100
-52
-137
-470
-58
420
-728
-1826
-1048
-591
-1916
-3069
-2636
-1107
363
843
670
617
783
1129
1159
461
188
1018
1573
1245
992
1002
845
681
650
570
470
462
467
419
408
421
376
391
425
307
359
530
187
135
857
-463
-4449
-5643
-1759
1313
-136
-2286
-2268
-1961
-1994
-797
828
1073
688
819
982
917
981
1012
837
705
688
658
615
583
584
659
706
628
566
586
567
542
556
509
513
584
460
431
666
517
643
1716
456
-4598
-6988
-3240
-234
-1626
-2373
-1408
-1975
-2279
-326
1058
798
581
606
849
1004
-222
-1426
-321
1219
1090
735
1037
1064
872
925
934
821
787
768
695
649
625
552
506
532
476
442
540
356
269
873
-136
-4263
-6585
-3423
-82
-941
-2359
-1893
-1479
-922
591
1268
711
546
857
929
946
1072
1305
1683
1701
1062
474
460
601
529
463
552
535
385
421
472
378
551
554
77
585
1049
-1867
-5058
-2809
1105
1079
681
1669
-1004
-5136
-3347
1271
1100
-2048
-2602
-759
660
913
596
383
560
601
365
648
815
-522
-1676
-525
995
879
495
758
813
659
737
774
728
820
833
706
780
967
1026
1283
1660
1336
488
227
486
451
359
522
420
276
563
33
-1750
-2298
-632
734
593
327
435
425
434
592
702
796
882
837
734
675
611
509
393
291
225
164
115
130
127
77
117
139
94
282
481
440
945
1616
52
-3937
-6980
-6352
-2647
781
701
-1908
-3215
-2503
-2011
-1899
-840
253
-39
-494
75
-5
-1519
-2174
-1059
73
176
-772
-1946
-1507
200
843
496
599
835
747
766
818
704
689
720
648
679
685
549
658
662
297
732
928
-2171
-5646
-3457
1149
618
-2548
-1950
20
-715
-1303
347
1363
896
872
1266
1240
1194
1281
1196
1066
1020
971
935
964
1012
986
919
952
1039
1183
1603
1924
1447
612
375
574
579
482
569
