# session 84
-26
4
43
48
12
-17
-6
49
150
272
386
466
478
397
224
100
265
560
465
-8
-298
-277
-257
-290
-270
-254
-277
-286
-284
-294
-302
-299
-293
-287
-280
-265
-248
-230
-190
-129
-95
-96
-87
-61
-52
-63
-75
-77
-68
-69
-85
-89
-77
-75
-72
-47
-24
-33
-49
-40
-11
10
5
-5
25
96
149
141
103
79
68
59
59
62
62
89
109
65
59
170
284
444
717
682
138
-283
-211
-80
-130
-151
-115
-140
-167
-140
-130
-167
-171
-118
-90
-88
-51
-16
-10
39
136
208
254
313
376
411
417
405
364
279
164
74
31
-2
-47
-70
-57
-56
-88
-92
-38
9
3
-6
19
42
51
51
17
-33
-51
-59
-75
-75
-63
-57
-61
-75
-50
48
143
251
418
368
-26
-303
-205
-87
-128
-133
-80
-79
-102
-104
-100
-93
-82
-76
-72
-61
-36
-11
10
47
99
141
185
249
292
291
281
259
194
116
61
-8
-94
-139
-146
-151
-149
-145
-151
-140
-107
-93
-108
-129
-134
-118
-117
-158
-201
-200
-188
-199
-203
-192
-201
-201
-187
-208
-191
-74
45
181
348
242
-175
-398
-269
-157
-179
-168
-124
-112
-110
-107
-107
-96
-75
-62
-46
-24
-7
10
41
75
110
162
229
296
354
393
400
373
315
233
149
82
30
-8
-33
-50
-64
-89
-111
-94
-71
-91
-105
-61
-1
26
18
-16
-53
-74
-77
-46
-5
-15
-26
16
18
24
184
353
430
571
563
122
-283
-221
-46
-45
-44
-10
-31
-39
-4
24
48
64
55
52
58
44
38
70
87
78
110
185
228
235
239
222
163
67
-55
-177
-274
-334
-350
-352
-368
-368
-335
-303
-275
-231
-191
-176
-140
-57
16
24
-5
-17
-19
-30
-20
10
10
3
34
27
12
136
295
391
609
744
353
-181
-228
-46
-63
-119
-90
-103
-127
-97
-90
-112
-91
-52
-53
-69
-56
-26
-11
5
59
126
165
204
271
322
333
325
279
185
99
37
-28
-73
-88
-110
-139
-144
-130
-118
-108
-86
-54
-41
-35
12
67
45
-26
-58
-68
-102
-120
-111
-122
-128
-115
-148
-163
-55
65
182
400
407
-48
-462
-440
-312
-316
-307
-278
-300
-308
-280
-271
-265
-232
-191
-170
-149
-96
-45
-30
4
87
160
209
289
385
420
405
399
372
282
190
145
99
55
61
78
57
37
36
30
39
71
68
37
54
107
115
66
9
-21
-35
-51
-62
-71
-97
-103
-95
-129
-127
-17
83
181
335
252
-168
-424
-305
-195
-239
-245
-208
-223
-249
-232
-191
-155
-139
-121
-85
-54
-42
-18
31
87
136
186
238
288
336
380
397
382
347
286
206
143
112
96
83
76
62
34
18
44
99
148
194
246
351
571
793
882
1012
1260
1203
648
52
-244
-364
-431
-442
-438
-451
-466
-479
-493
-509
-526
-538
-568
-625
-670
-683
-698
-724
-719
-652
-540
-423
-301
-157
-15
74
106
109
98
82
58
34
28
25
5
1
18
18
9
17
14
-9
-22
-15
-11
-35
-79
-103
-114
-127
-115
-108
-134
-121
-33
41
45
3
-39
-44
-19
-5
-13
-30
-20
28
29
12
118
268
401
683
833
371
-233
-288
-92
-99
-138
-85
-72
-74
-38
-35
-67
-60
-15
18
22
30
63
105
139
180
245
310
354
395
436
441
408
369
317
231
134
59
3
-38
-61
-71
-84
-101
-110
-103
-76
-29
42
146
286
459
663
852
1016
1266
1594
1664
1210
468
-115
-381
-457
-482
-501
-502
-493
-503
-513
-508
-536
-603
-635
-624
-640
-690
-729
-752
-761
-730
-644
-522
-383
-242
-118
-23
35
40
4
-31
-60
-91
-104
-105
-116
-114
-86
-72
-78
-78
-72
-61
-53
-57
-53
-36
-44
-63
-39
-10
-32
-37
24
82
98
101
78
35
28
43
40
38
49
64
67
40
65
193
333
516
704
512
-46
-329
-178
-61
-100
-106
-97
-122
-123
-110
-115
-118
-111
-99
-74
-52
-46
-34
3
55
108
146
181
241
299
301
282
283
257
173
88
27
-27
-56
-60
-75
-78
-41
-1
32
109
213
268
324
531
819
968
1051
1217
1182
720
186
-77
-194
-297
-336
-335
-370
-418
-441
-458
-491
-530
-559
-581
-616
-667
-713
-742
-748
-713
-638
-539
-401
-225
-70
35
110
139
117
101
106
87
53
47
52
34
25
59
86
72
76
109
113
99
108
114
98
87
82
64
47
63
98
109
95
110
172
236
237
169
110
107
110
100
92
69
57
60
23
53
210
325
485
772
648
-13
-363
-164
-64
-155
-100
-19
-66
-90
-49
-33
-43
-48
-54
-53
-34
-2
17
18
52
132
202
248
322
400
407
365
338
295
190
67
-37
-139
-221
-250
-266
-324
-384
-391
-367
-378
-421
-414
-337
-260
-215
-195
-211
-233
-229
-235
-262
-267
-272
-286
-283
-289
-259
-106
58
156
252
160
-244
-528
-412
-238
-231
-244
-218
-181
-115
-78
-96
-94
-64
-43
-2
62
97
105
151
255
360
424
471
513
537
540
516
459
376
276
163
66
6
-38
-79
-105
-134
-176
-199
-186
-158
-126
-92
-53
6
64
66
24
13
31
19
-4
-2
9
40
74
36
10
129
265
406
749
926
448
-153
-194
-5
-20
-67
-39
-38
-26
7
-4
-20
-11
-22
-31
-1
40
61
64
67
105
183
246
285
333
366
349
313
265
180
88
21
-53
-145
-204
-227
-257
-293
-308
-309
-301
-291
-295
-287
-235
-182
-177
-200
-213
-215
-219
-214
-194
-185
-189
-187
-200
-193
-97
18
107
229
209
-123
-417
-357
-201
-191
-205
-175
-158
-152
-154
-174
-176
-145
-107
-79
-65
-61
-53
-31
9
54
92
134
179
208
224
233
217
168
111
61
18
-10
-25
-34
-37
-31
-36
-38
-3
48
80
124
201
315
517
743
840
934
1190
1289
927
408
87
-81
-179
-202
-204
-221
-232
-249
-279
-306
-339
-388
-436
-472
-506
-555
-609
-633
-620
-594
-547
-443
-290
-130
18
139
213
252
264
241
200
174
170
166
151
132
118
114
129
147
142
126
123
123
116
113
104
79
64
74
65
23
12
83
172
182
119
61
51
67
79
70
36
14
11
-33
-52
64
187
289
551
656
167
-405
-424
-230
-259
-324
-291
-299
-354
-379
-377
-359
-326
-296
-266
-225
-183
-151
-119
-72
1
92
167
213
264
321
340
312
267
206
116
9
-77
-119
-124
-130
-148
-166
-176
-169
-153
-161
-179
-132
-40
-20
-83
-135
-145
-153
-152
-125
-125
-153
-118
-61
-108
-116
62
234
388
680
702
154
-312
-241
-95
-149
-171
-130
-127
-113
-81
-77
-74
-53
-38
-25
-11
3
35
87
129
168
233
309
370
426
451
406
330
267
187
87
13
-26
-56
-82
-95
-102
-108
-106
-78
-44
-40
-44
-6
52
66
30
-16
-44
-49
-42
-38
-54
-62
-33
-28
-55
10
135
223
435
677
452
-115
-328
-155
-83
-147
-133
-75
-66
-84
-93
-78
-51
-47
-56
-45
-24
-9
7
17
38
91
148
186
233
271
258
227
201
147
63
-10
-54
-82
-104
-119
-131
-150
-165
-149
-108
-57
9
90
176
311
510
666
751
901
1031
844
376
-32
-248
-359
-407
-416
-431
-458
-480
-496
-515
-542
-574
-606
-645
-681
-704
-727
-750
-740
-696
-639
-556
-423
-263
-122
-8
72
93
71
56
43
5
-30
-37
-38
-45
-48
-48
-40
-23
-17
-27
-26
-5
13
20
15
2
2
25
32
3
1
74
154
167
147
135
99
70
115
157
119
123
194
176
155
298
465
672
1045
1089
463
-94
-36
141
96
51
52
21
25
56
42
14
16
35
48
38
22
37
73
110
151
188
227
290
362
403
400
354
284
221
148
39
-57
-88
-95
-123
-146
-145
-132
-102
-56
4
113
325
648
949
1116
1317
1619
1587
942
137
-314
-434
-464
-507
-561
-584
-570
-577
-609
-634
-672
-738
-794
-825
-849
-875
-909
-936
-921
-849
-730
-572
-389
-219
-98
-27
3
-5
-28
-39
-45
-58
-66
-50
-21
-3
-4
4
22
14
-4
10
28
14
11
29
10
-31
-20
6
-15
-35
-9
32
82
118
82
12
3
25
17
8
15
10
3
-2
19
100
200
362
638
657
156
-314
-269
-78
-91
-132
-98
-82
-80
-73
-87
-95
-68
-44
-37
-23
-2
23
78
146
191
243
318
366
382
401
401
368
332
283
206
137
81
22
-6
8
3
-30
-31
5
34
45
56
82
111
110
72
33
13
-9
-28
-25
-25
-32
-18
-21
-48
0
102
196
372
482
192
-269
-382
-221
-149
-165
-159
-159
-156
-126
-107
-112
-114
-98
-65
-36
-25
-17
9
45
84
132
189
238
264
279
287
272
221
146
73
13
-35
-71
-92
-93
-90
-108
-116
-74
-18
16
59
152
328
556
698
782
977
1110
843
313
-98
-307
-403
-426
-425
-437
-450
-462
-481
-501
-535
-581
-614
-647
-709
-767
-785
-805
-826
-787
-690
-580
-444
-281
-132
-13
68
109
133
120
59
24
44
30
-32
-50
-11
7
-12
-20
-5
3
-7
-11
5
16
-1
-18
-3
6
-22
-24
44
118
137
126
131
135
99
68
97
124
115
130
135
131
250
412
533
840
1104
713
5
-186
6
64
34
27
-26
-52
-7
3
-27
-28
-17
-17
-2
29
60
82
101
147
231
312
363
405
439
436
400
351
280
182
82
-6
-70
-91
-95
-134
-167
-123
-81
-121
-152
-85
4
28
6
-17
-37
-71
-113
-126
-121
-131
-122
-107
-138
-100
72
203
299
454
351
-128
-420
-280
-143
-189
-216
-198
-208
-215
-209
-213
-209
-192
-179
-165
-145
-125
-103
-77
-42
12
85
159
215
247
252
226
164
78
-4
-66
-121
-167
-182
-178
-190
-210
-213
-196
-169
-152
-152
-124
-59
-28
-61
-93
-101
-131
-164
-160
-157
-161
-129
-122
-148
-65
84
168
299
393
107
-331
-378
-172
-130
-180
-149
-112
-109
-89
-55
-32
-24
-27
-24
-5
19
46
81
114
149
208
275
317
342
380
405
381
315
229
146
79
21
-25
-36
-34
-44
-43
-21
0
13
18
14
27
59
64
36
8
-1
5
16
13
9
38
57
29
46
144
230
375
589
498
26
-268
-170
-70
-109
-108
-77
-89
-91
-64
-41
-30
-25
-19
2
35
54
58
72
108
147
176
196
212
226
237
224
180
119
45
-39
-101
-122
-128
-145
-169
-190
-195
-180
-166
-175
-183
-154
-111
-110
-143
-163
-175
-187
-167
-144
-159
-154
-118
-135
-137
-21
100
193
336
289
-108
-418
-335
-182
-188
-206
-175
-168
-174
-166
-159
-146
-125
-113
-103
-82
-57
-29
4
35
73
133
197
247
293
332
336
291
207
101
6
-46
-72
-113
-150
-142
-118
-128
-137
-107
-82
-77
-30
47
57
-4
-40
-28
-16
1
54
152
270
344
407
584
814
952
991
788
210
-305
-325
-151
-145
-195
-194
-195
-186
-178
-205
-237
-266
-301
-313
-322
-366
-392
-365
-333
-305
-239
-144
-50
41
120
171
192
166
93
35
38
42
-3
-39
-23
-11
-28
-21
4
-6
-15
38
118
150
126
81
33
3
30
79
51
-5
19
34
13
116
264
337
572
830
529
-94
-263
-77
-43
-87
-56
-69
-103
-92
-113
-148
-125
-99
-106
-107
-105
-107
-80
-24
29
77
133
197
252
285
284
250
190
105
15
-42
-69
-99
-125
-136
-149
-158
-143
-132
-138
-136
-108
-64
-45
-95
-163
-175
-173
-196
-201
-190
-184
-173
-196
-225
-136
17
135
286
322
-3
-387
-414
-267
-231
-231
-199
-195
-197
-169
-146
-132
-107
-85
-72
-50
-14
10
25
75
154
211
255
317
357
359
352
319
245
168
93
18
-17
-21
-39
-59
-57
-37
1
30
20
15
64
118
113
71
48
43
38
48
59
44
49
80
56
45
145
237
326
544
586
172
-230
-206
-75
-103
-125
-80
-77
-101
-91
-69
-67
-73
-56
-22
-6
2
35
71
97
140
186
208
239
276
268
231
201
150
71
4
-40
-76
-103
-114
-107
-105
-116
-100
-71
-87
-112
-79
-49
-84
-127
-139
-168
-207
-211
-205
-209
-184
-164
-195
-162
-32
74
191
301
119
-278
-408
-254
-180
-211
-196
-169
-172
-174
-171
-164
-158
-153
-128
-94
-81
-65
-23
14
45
95
163
237
293
308
301
285
226
132
56
11
-37
-86
-117
-144
-165
-153
-135
-143
-145
-110
-62
-19
-5
-28
-44
-52
-74
-68
-27
-20
-12
23
22
85
308
508
661
855
726
120
-307
-211
-61
-106
-139
-98
-74
-74
-77
-85
-85
-61
-28
-25
-42
-32
7
33
36
49
107
186
228
232
240
240
198
114
15
-42
-51
-88
-144
-123
-80
-112
-138
-97
-78
-80
-25
48
67
45
14
-8
-7
0
-8
-22
-3
32
17
6
107
259
399
526
424
-5
-327
-249
-83
-86
-126
-104
-104
-151
-162
-108
-64
-77
-101
-97
-71
-51
-51
-27
52
130
171
223
283
303
288
256
189
89
-14
-99
-154
-183
-212
-250
-274
-268
-246
-228
-219
-204
-161
-85
-28
-37
-80
-107
-125
-133
-118
-116
-121
-78
-61
-116
-50
134
216
367
675
582
-13
-352
-216
-111
-166
-173
-134
-123
-131
-134
-113
-101
-111
-87
-46
-54
-66
-31
7
42
112
182
215
233
253
259
235
172
85
11
-40
-88
-123
-122
-109
-108
-83
-31
-11
-24
-1
59
96
98
87
59
26
19
31
37
41
