# session 175
16
12
-5
-27
-36
-39
-60
-104
-153
-186
-209
-236
-263
-269
-242
-195
-126
-23
93
193
277
350
388
382
349
309
277
258
231
195
175
173
165
142
129
128
115
90
83
85
60
27
21
17
-12
-35
-39
-45
-69
-102
-107
-62
-18
-31
-71
-97
-111
-115
-107
-107
-108
-90
-85
-87
-51
-45
-76
6
156
259
475
675
371
-204
-345
-149
-113
-182
-155
-128
-152
-150
-135
-148
-153
-127
-107
-101
-91
-83
-77
-60
-38
-5
47
90
117
163
223
263
282
285
273
248
198
125
60
8
-42
-70
-71
-70
-73
-83
-97
-87
-63
-71
-101
-111
-119
-141
-148
-135
-133
-143
-137
-110
-94
-104
-120
-129
-133
-126
-109
-95
-76
-56
-44
-13
12
-13
14
149
250
361
561
515
78
-230
-150
-38
-53
-56
-49
-62
-51
-51
-84
-83
-53
-59
-85
-86
-73
-54
-23
-12
-36
-36
15
59
67
82
132
187
193
138
88
79
41
-45
-106
-122
-137
-152
-152
-142
-128
-124
-135
-134
-112
-99
-99
-94
-89
-84
-49
11
57
102
186
287
404
555
678
785
988
1153
982
514
74
-179
-288
-306
-289
-301
-332
-335
-325
-330
-337
-338
-348
-362
-375
-395
-416
-418
-413
-419
-421
-394
-346
-282
-195
-91
15
114
203
281
328
310
260
239
234
202
150
103
67
51
47
43
37
28
17
9
2
0
6
13
18
27
35
40
56
70
68
74
96
101
88
88
86
65
59
81
84
70
90
130
132
106
84
62
55
77
73
34
19
15
0
25
49
12
24
109
191
369
542
307
-199
-380
-242
-192
-227
-208
-212
-245
-221
-187
-199
-214
-207
-203
-204
-192
-168
-148
-132
-113
-96
-77
-32
32
87
137
194
238
254
257
245
208
159
108
55
8
-28
-52
-61
-72
-98
-116
-110
-109
-121
-119
-109
-121
-139
-138
-129
-140
-172
-169
-112
-87
-95
-74
-108
-161
-78
-115
-449
-550
-193
37
-59
-88
-7
-26
-46
81
240
379
546
492
65
-270
-181
-20
-37
-47
2
-6
-43
-43
-32
-28
-15
-5
-14
-24
-16
-2
4
23
66
121
176
229
276
326
391
441
444
419
386
323
225
140
86
34
-7
-7
-6
-40
-60
-45
-40
-38
-23
-14
-12
2
34
108
208
318
506
746
938
1177
1482
1476
938
237
-204
-352
-369
-371
-398
-435
-458
-456
-453
-480
-521
-536
-540
-559
-579
-601
-642
-678
-686
-673
-650
-603
-516
-393
-258
-133
-18
78
125
128
117
95
60
38
32
17
3
5
2
-15
-22
-17
-10
-1
8
-7
-30
-23
-3
-12
-32
-35
-44
-59
-49
-26
-31
-52
-51
-32
-32
-34
-16
-11
-32
-33
-8
16
34
55
92
135
145
124
107
96
87
88
76
43
18
3
-1
9
-11
-39
24
136
251
468
583
247
-225
-286
-112
-83
-106
-60
-44
-48
-21
-12
-23
2
37
39
33
44
66
82
88
97
122
154
178
199
232
272
301
310
307
301
281
245
201
158
113
65
19
-9
-23
-47
-75
-79
-55
-11
35
82
226
462
620
736
953
996
556
-39
-315
-327
-340
-393
-426
-443
-459
-469
-464
-458
-459
-460
-458
-465
-480
-490
-485
-464
-424
-367
-298
-214
-120
-28
54
119
154
154
131
101
73
43
13
1
3
-6
-16
-10
-13
-34
-36
-21
-24
-38
-50
-59
-53
-40
-53
-71
-57
-43
-57
-54
-9
31
33
27
42
65
64
47
47
59
60
57
60
59
52
37
8
-5
17
24
-7
-13
38
78
60
32
22
15
13
18
19
19
17
15
37
51
33
76
197
318
496
642
422
-32
-179
-21
44
-1
3
12
-9
-14
-17
-33
-31
-15
-18
-36
-31
-1
20
21
16
22
53
95
115
121
143
173
183
170
148
128
106
67
11
-49
-96
-125
-144
-152
-144
-135
-143
-157
-153
-142
-142
-148
-156
-169
-174
-165
-159
-154
-148
-135
-106
-73
-77
-107
-121
-116
-104
-92
-88
-81
-61
-62
-71
-56
-76
-103
-1
147
270
490
563
135
-350
-337
-145
-156
-192
-146
-140
-153
-145
-151
-144
-118
-118
-111
-78
-75
-82
-47
-9
8
44
91
120
169
256
324
349
365
371
334
257
174
103
45
-1
-34
-54
-61
-66
-69
-62
-46
-37
-38
-42
-40
-37
-33
-10
22
36
74
190
346
497
663
797
862
1020
1314
1377
946
312
-92
-221
-255
-268
-261
-266
-280
-275
-268
-286
-311
-324
-336
-359
-383
-400
-427
-470
-500
-508
-522
-539
-517
-444
-344
-238
-130
-26
52
100
124
114
80
63
66
56
36
22
5
-10
-22
-36
-42
-36
-42
-57
-63
-73
-85
-82
-81
-87
-85
-72
-57
-38
-21
-17
-27
-39
-35
-23
-47
-69
-11
51
40
50
118
241
433
333
-378
-1102
-1165
-919
-845
-781
-581
-350
-117
63
102
88
118
136
118
122
153
181
202
220
249
307
364
395
439
511
567
607
670
740
762
740
718
683
597
487
399
322
241
176
123
59
-1
-34
-55
-80
-100
-110
-118
-119
-118
-132
-150
-149
-140
-144
-145
-131
-119
-113
-107
-108
-121
-127
-108
-86
-88
-91
-49
-3
-17
-61
-71
-65
-79
-95
-86
-62
-61
-88
-81
-54
-83
-92
-5
71
191
454
487
57
-319
-282
-166
-191
-203
-166
-157
-156
-147
-152
-159
-150
-135
-135
-150
-164
-173
-161
-116
-64
-28
13
70
119
151
184
217
233
226
202
169
132
83
27
-16
-46
-74
-92
-95
-102
-120
-131
-130
-125
-123
-133
-155
-170
-164
-145
-127
-118
-111
-81
-33
-14
-47
-95
-125
-122
-96
-96
-118
-110
-92
-104
-95
-60
-55
-27
69
189
321
330
50
-261
-246
-70
-28
-59
-38
3
31
44
39
23
15
18
21
9
-8
-3
19
32
46
83
136
185
228
282
343
388
398
388
379
343
260
172
119
76
36
31
44
21
-20
-28
-12
-2
-4
1
13
4
-35
-55
-33
-14
-13
5
52
97
103
74
42
18
2
-2
-5
2
44
90
141
273
435
525
727
1161
1403
1036
327
-187
-360
-370
-368
-383
-395
-403
-414
-416
-408
-417
-439
-446
-454
-492
-524
-521
-523
-559
-595
-592
-562
-539
-515
-448
-332
-200
-95
-37
12
90
126
73
39
69
71
34
32
57
66
65
64
63
70
81
81
82
95
110
124
136
125
90
78
111
137
114
67
37
27
21
12
3
12
30
30
40
76
67
45
134
263
371
559
614
246
-163
-154
6
-1
-30
14
27
6
-2
-9
-12
-10
-7
3
16
25
26
14
12
47
88
110
137
177
209
223
240
280
299
258
189
125
51
-31
-101
-164
-206
-208
-199
-192
-167
-133
-119
-115
-107
-109
-122
-127
-116
-99
-102
-129
-132
-95
-80
-117
-159
-179
-188
-188
-184
-187
-174
-149
-141
-129
-101
-104
-102
-24
93
249
431
378
-5
-290
-220
-91
-92
-86
-51
-65
-68
-21
-12
-54
-52
-14
-17
-39
-29
-15
-10
21
74
121
153
176
205
242
262
258
249
237
210
169
120
68
27
6
-4
-12
-11
-2
8
15
18
19
19
20
25
21
1
-9
9
20
2
3
51
79
49
19
22
9
-21
-31
-27
-12
13
-15
-69
-48
-9
-27
-12
55
184
483
681
361
-144
-245
-114
-137
-199
-155
-129
-169
-201
-207
-196
-170
-143
-123
-106
-88
-62
-34
-14
1
24
58
95
127
157
181
191
186
170
145
105
46
-21
-68
-93
-110
-116
-108
-103
-109
-113
-105
-85
-74
-95
-115
-82
-46
-76
-114
-85
-57
-95
-112
-35
41
23
-24
-32
-37
-58
-62
-54
-57
-63
-67
-66
-42
-37
-86
-87
23
180
382
529
328
-110
-277
-136
-63
-102
-97
-85
-109
-108
-82
-81
-98
-104
-98
-89
-79
-67
-55
-42
-24
1
24
36
55
96
139
156
159
157
142
117
76
2
-63
-73
-76
-105
-119
-124
-139
-125
-104
-136
-168
-146
-125
-146
-182
-194
-166
-157
-225
-257
-157
-74
-86
-21
145
271
384
519
643
900
1250
1208
635
111
49
187
218
232
364
501
524
494
454
357
218
95
-1
-84
-162
-238
-300
-347
-375
-357
-295
-227
-168
-104
-36
22
58
70
67
48
6
-41
-62
-59
-79
-132
-145
-108
-110
-137
-109
-100
-163
-191
-145
-95
-73
-98
-144
-142
-153
-235
-253
-202
-264
-325
-254
-300
-349
-167
-278
-506
9
-14
-1728
-2518
-825
538
201
-6
313
272
152
255
264
213
245
260
241
244
257
253
220
235
333
451
662
904
739
160
-175
-64
53
8
-23
-9
-19
-35
-34
-28
-24
-21
-30
-50
-56
-37
-11
3
5
12
32
65
122
180
204
218
256
282
257
202
150
91
11
-76
-137
-159
-155
-138
-116
-103
-94
-83
-75
-72
-62
-50
-55
-75
-88
-86
-85
-99
-111
-84
-37
-28
-62
-86
-82
-93
-113
-98
-70
-80
-94
-66
-30
-49
-93
-48
72
167
312
458
243
-241
-401
-205
-115
-168
-153
-123
-150
-166
-152
-127
-80
-32
-18
-26
-27
-22
-12
10
37
64
103
161
217
265
320
376
404
397
362
306
234
152
76
33
15
-10
-37
-43
-40
-33
-13
-13
-45
-53
-17
8
25
83
157
273
489
673
795
1150
1618
1531
831
148
-242
-376
-333
-423
-524
-270
-346
-1169
-1430
-648
-198
-450
-532
-423
-478
-517
-479
-496
-503
-473
-461
-419
-320
-218
-124
-29
46
88
101
84
51
19
-11
-39
-49
-33
-16
-26
-33
-2
25
3
-15
10
20
2
20
55
45
20
23
32
33
30
22
25
38
33
23
41
64
61
53
68
79
59
47
88
142
155
146
163
187
179
147
106
70
64
77
68
51
50
39
28
46
40
13
69
199
367
597
640
249
-182
-196
-41
-44
-78
-42
-41
-71
-63
-54
-72
-76
-60
-61
-60
-37
-19
-12
-6
-27
-43
16
83
73
82
177
242
222
197
191
176
160
122
26
-75
-123
-142
-155
-157
-155
-145
-119
-99
-93
-84
-73
-79
-96
-111
-111
-96
-101
-134
-133
-79
-45
-68
-111
-145
-158
-145
-132
-136
-125
-104
-112
-107
-72
-89
-106
2
147
283
491
486
20
-405
-345
-160
-175
-192
-115
-104
-171
-193
-159
-127
-109
-90
-70
-51
-25
10
42
67
111
194
284
340
378
420
455
467
450
401
324
238
151
69
2
-42
-59
-59
-64
-73
-65
-43
-28
-23
-20
-26
-33
-33
-42
-61
-60
-51
-67
-63
2
55
38
-3
-36
-61
-55
-38
-46
-47
-39
-71
-80
-33
-46
-82
-1
130
297
562
567
69
-371
-322
-173
-215
-253
-223
-231
-238
-206
-189
-186
-176
-173
-169
-151
-129
-107
-81
-54
-23
20
69
116
162
206
241
264
271
254
224
180
106
24
-15
-32
-73
-108
-108
-113
-132
-132
-130
-134
-113
-78
-80
-109
-119
-94
-63
-54
-55
-33
1
11
-3
-29
-56
-57
-26
-7
-21
-35
-44
-52
-31
-7
-28
-10
104
238
397
523
340
-64
-204
-53
12
-48
-62
-58
-89
-108
-107
-110
-111
-94
-75
-67
-54
-22
10
32
56
89
130
176
219
246
269
301
318
300
267
234
179
111
65
29
-15
-47
-45
-31
-37
-51
-35
-7
-4
-2
13
58
212
448
629
838
1177
1295
854
194
-185
-300
-363
-390
-374
-394
-451
-458
-410
-398
-429
-435
-428
-465
-526
-551
-536
-514
-485
-432
-370
-310
-220
-93
19
89
138
167
161
128
87
49
18
-6
-18
-24
-32
-39
-39
-41
-42
-28
-15
-21
-19
-4
-15
-34
-2
32
8
-12
12
23
17
25
22
16
35
42
17
3
14
34
45
23
-13
-21
-13
-6
13
32
33
51
112
174
188
163
134
116
102
75
40
25
30
16
-1
16
16
2
72
194
318
514
591
263
-153
-191
-41
-31
-56
-18
-20
-64
-69
-50
-40
-37
-45
-43
-13
16
18
17
27
41
59
67
75
122
172
177
181
194
183
176
178
142
94
69
21
-55
-111
-141
-163
-180
-190
-184
-166
-161
-172
-169
-153
-149
-162
-165
-146
-132
-147
-150
-102
-54
-69
-122
-149
-151
-148
-145
-143
-140
-138
-151
-146
-99
-104
-132
-17
167
301
481
503
69
-379
-328
-114
-131
-176
-116
-102
-120
-83
-84
-138
-122
-63
-77
-109
-67
-9
12
33
76
117
158
221
291
330
352
394
438
436
383
294
195
122
73
18
-37
-74
-78
-60
-63
-98
-112
-81
-46
-34
-41
-42
-24
3
9
-15
-15
55
122
103
48
30
25
13
5
1
14
27
-10
-32
21
16
-47
57
264
366
479
545
209
-277
-338
-133
-97
-144
-106
-82
-106
-98
-69
-77
-117
-132
-111
-103
-132
-154
-135
-80
-26
-3
25
108
207
260
279
304
320
300
241
151
53
-20
-74
-131
-174
-180
-179
-194
-203
-190
-181
-184
-176
-155
-149
-155
-129
-87
-107
-161
-126
-31
-13
-56
-75
-106
-145
-124
-109
-166
-188
-130
-98
-99
-88
-102
-83
47
175
288
475
469
59
-299
-225
-29
-8
-35
-23
-31
-57
-66
-66
-67
-69
-71
-71
-65
-60
-56
-39
-3
36
80
144
214
263
302
352
384
377
356
329
255
144
67
38
8
-23
-29
-37
-59
-67
-59
-49
-31
-32
-82
-124
-105
-69
-72
-111
-142
-126
-64
-16
-20
-43
-57
-83
-97
-67
-51
-78
-89
-87
-90
-68
-65
-63
40
149
249
552
758
376
-154
-192
-19
-20
-37
9
18
17
