# session 2
-23
5
44
80
105
124
142
174
207
211
236
322
368
309
223
153
68
-2
-32
-69
-118
-137
-138
-142
-145
-148
-154
-155
-145
-124
-114
-132
-143
-123
-106
-115
-124
-131
-137
-123
-97
-94
-95
-69
-31
-6
10
14
1
-7
-1
3
4
8
6
-4
-12
-8
-22
-80
-63
104
270
446
763
830
300
-238
-223
-30
-45
-89
-51
-46
-69
-70
-66
-59
-44
-39
-27
4
31
42
61
85
95
110
142
153
128
110
119
121
108
114
131
128
127
135
102
61
95
138
86
11
13
26
-19
-58
-47
-37
-43
-41
-49
-85
-121
-126
-106
-84
-82
-94
-101
-100
-97
-96
-108
-138
-166
-179
-185
-181
-154
-122
-101
-64
-2
26
-5
-32
-19
-5
-18
-38
-48
-43
-35
-44
-36
5
-1
-33
61
228
347
502
566
235
-214
-269
-79
-32
-79
-73
-59
-73
-91
-89
-61
-41
-53
-63
-44
-31
-52
-75
-59
-33
-39
-46
-32
-22
-11
17
35
32
44
79
98
97
102
117
133
133
104
76
68
50
25
11
-31
-81
-70
-62
-101
-94
-78
-101
-62
-84
-202
47
542
449
-84
-222
-85
-136
-201
-154
-158
-174
-118
-68
-57
-39
3
37
32
2
-16
-25
-32
-26
-22
-20
6
22
-1
0
30
7
4
129
287
422
550
442
31
-241
-157
-34
-46
-62
-50
-67
-94
-119
-158
-202
-229
-232
-221
-214
-210
-189
-150
-125
-124
-94
-1
88
135
186
227
224
256
364
456
522
617
655
555
412
320
252
178
107
41
-2
-8
-6
-25
-57
-85
-108
-123
-128
-132
-143
-150
-148
-138
-127
-119
-113
-107
-108
-117
-118
-100
-76
-67
-69
-59
-20
16
8
-28
-54
-74
-93
-95
-92
-110
-122
-116
-139
-174
-167
-172
-183
-81
82
230
422
432
12
-413
-388
-210
-215
-252
-211
-188
-188
-175
-172
-176
-165
-143
-122
-106
-106
-116
-112
-76
-32
-4
12
27
43
62
84
101
119
143
171
195
219
241
250
247
241
230
206
161
102
62
50
35
3
-18
-23
-32
-41
-30
-11
5
22
42
52
49
45
42
25
1
-8
6
24
25
25
58
109
123
94
63
38
14
3
-12
-42
-53
-47
-66
-78
-59
-97
-147
-29
171
320
581
779
430
-174
-330
-151
-102
-140
-130
-144
-171
-163
-154
-148
-122
-98
-90
-89
-97
-100
-94
-99
-111
-99
-70
-55
-44
-23
-1
21
59
116
170
203
218
235
268
309
344
349
313
249
180
125
74
12
-39
-55
-59
-78
-102
-115
-110
-98
-106
-119
-97
-74
-101
-139
-146
-136
-133
-148
-173
-159
-100
-60
-69
-100
-130
-147
-143
-135
-141
-156
-155
-150
-166
-167
-138
-163
-178
-18
195
339
573
678
235
-330
-367
-146
-122
-168
-144
-134
-137
-138
-163
-162
-119
-94
-87
-71
-61
-57
-43
-37
-39
-19
14
26
25
46
80
108
136
167
189
215
256
287
301
323
344
327
269
207
159
118
74
35
17
13
6
-9
-24
-35
-36
-20
-9
-16
-20
-12
-15
-33
-39
-23
-19
-34
-25
24
73
88
71
47
35
32
39
56
51
21
5
-15
-49
-48
-62
-119
-50
137
271
506
804
576
-118
-434
-257
-175
-256
-255
-223
-243
-251
-241
-240
-235
-225
-218
-213
-208
-192
-171
-154
-137
-117
-103
-88
-66
-46
-33
-21
-1
31
64
92
121
152
175
196
217
214
175
129
96
66
35
7
-28
-67
-72
-44
-46
-77
-68
-35
-49
-84
-81
-61
-66
-84
-94
-93
-90
-89
-87
-80
-63
-36
-21
-45
-82
-90
-90
-101
-98
-81
-70
-62
-58
-46
-18
-29
-28
108
280
417
651
756
359
-153
-200
-13
7
-32
-13
-26
-44
-16
-9
-20
0
18
18
34
59
67
81
109
124
137
162
180
196
230
261
279
295
306
318
340
355
346
331
322
301
254
204
179
123
-99
-439
-665
-700
-655
-575
-493
-468
-434
-333
-260
-254
-231
-168
-118
-99
-93
-93
-89
-65
-14
35
57
83
122
135
111
81
56
34
29
30
22
20
15
-16
-40
-46
-67
-57
32
120
196
263
124
-229
-411
-299
-196
-219
-227
-203
-193
-171
-131
-99
-80
-64
-46
-18
10
27
38
53
70
78
74
70
86
115
119
105
112
136
143
138
144
154
163
164
144
113
97
95
80
48
19
6
-3
-24
-49
-51
-30
-25
-40
-42
-48
-73
-87
-87
-92
-72
-34
-27
-30
-7
0
-22
-5
49
64
39
24
14
-10
-24
-27
-44
-58
-48
-40
-22
12
8
14
121
247
348
470
398
2
-292
-191
-18
-15
-36
-23
-47
-72
-61
-54
-56
-50
-50
-52
-41
-38
-50
-36
6
34
37
36
45
58
63
68
89
84
24
-8
48
117
134
136
147
145
135
122
90
46
9
-24
-47
-58
-72
-83
-77
-76
-87
-72
-41
-44
-76
-97
-102
-117
-139
-150
-136
-115
-110
-110
-79
-30
-25
-69
-106
-114
-115
-105
-81
-70
-63
-51
-61
-67
-44
-58
-64
64
239
409
680
756
290
-236
-255
-61
-50
-95
-77
-71
-69
-48
-37
-33
-26
-20
-2
11
1
-4
4
3
6
18
20
25
39
36
27
44
74
93
100
104
111
124
139
153
152
118
71
33
-9
-57
-86
-106
-129
-136
-135
-150
-159
-144
-130
-134
-135
-112
-79
-75
-99
-107
-89
-84
-100
-102
-79
-52
-35
-46
-87
-126
-133
-118
-104
-97
-87
-71
-76
-78
-29
-11
-35
83
296
454
744
1026
692
-30
-266
-53
6
-74
-57
-28
-46
-51
-51
-61
-61
-59
-60
-58
-60
-63
-62
-65
-61
-46
-38
-32
-4
25
38
65
111
136
151
191
232
244
249
261
267
297
400
512
457
174
-163
-384
-518
-619
-637
-553
-447
-380
-358
-365
-362
-318
-264
-244
-243
-229
-213
-216
-222
-204
-159
-93
-38
-30
-47
-38
-17
2
34
61
73
92
112
140
169
133
133
329
544
681
945
1044
526
-70
-72
150
134
74
102
93
68
76
74
61
56
50
57
69
60
53
65
73
84
110
105
70
72
100
82
37
8
-24
-54
-20
71
139
128
69
26
26
36
24
7
7
-8
-44
-52
-49
-74
-76
-51
-77
-126
-108
-47
-6
-20
-98
-160
-148
-146
-208
-250
-234
-215
-214
-213
-206
-210
-245
-296
-310
-286
-264
-240
-212
-203
-179
-161
-202
-169
16
153
305
660
734
123
-499
-522
-347
-367
-423
-407
-371
-319
-279
-271
-242
-193
-159
-116
-56
-19
-7
10
26
22
20
39
63
83
102
120
144
164
166
171
200
236
270
302
316
314
302
260
191
145
128
107
81
74
76
68
65
78
81
79
96
114
115
128
150
140
119
125
135
122
111
134
180
210
189
136
100
96
98
92
87
91
79
47
55
94
74
54
145
267
393
542
436
-11
-311
-224
-97
-107
-121
-118
-126
-102
-76
-86
-100
-102
-122
-148
-154
-150
-165
-190
-192
-171
-142
-105
-65
-34
-4
27
48
75
123
145
108
52
4
-19
5
29
-28
-136
-219
-268
-308
-341
-370
-387
-375
-350
-323
-277
-222
-184
-164
-145
-126
-103
-77
-65
-54
-20
5
1
32
109
147
125
106
105
99
96
93
77
74
86
61
29
42
20
-59
-44
78
190
315
361
105
-241
-262
-67
5
-36
-48
-23
9
28
24
24
25
1
-28
-31
-29
-38
-46
-43
-43
-53
-61
-54
-37
-19
3
30
67
112
153
179
199
225
250
263
265
250
215
175
136
102
89
91
80
65
73
85
77
64
58
54
52
43
11
-22
-34
-44
-57
-58
-56
-52
-39
-42
-83
-130
-150
-152
-145
-140
-134
-116
-116
-150
-148
-113
-139
-153
-30
124
247
407
370
-41
-380
-299
-122
-118
-140
-112
-107
-109
-91
-87
-92
-86
-80
-84
-92
-98
-95
-83
-79
-82
-69
-44
-30
-13
23
55
76
110
153
187
216
249
280
301
311
311
295
258
214
172
129
95
86
87
68
43
38
34
10
-13
-24
-43
-70
-96
-121
-143
-146
-134
-137
-150
-126
-78
-73
-107
-128
-128
-127
-133
-142
-135
-120
-144
-174
-147
-141
-181
-93
104
247
477
731
490
-132
-378
-206
-140
-205
-191
-160
-168
-165
-152
-138
-121
-119
-119
-104
-94
-88
-78
-72
-65
-46
-33
-27
-9
15
34
55
78
107
155
212
256
283
311
351
383
369
309
244
194
151
110
66
30
10
-19
-57
-58
-29
-21
-38
-50
-67
-103
-130
-130
-127
-140
-145
-110
-47
-13
-29
-60
-69
-61
-64
-85
-105
-98
-87
-100
-91
-59
-90
-102
54
245
411
709
813
308
-275
-296
-97
-117
-173
-135
-133
-160
-146
-131
-132
-126
-116
-113
-110
-110
-110
-101
-87
-78
-67
-48
-25
0
31
63
91
130
181
214
232
262
290
295
303
322
309
248
166
92
43
16
-16
-51
-73
-91
-109
-114
-113
-117
-125
-137
-137
-113
-96
-95
-85
-69
-60
-25
18
6
-38
-56
-65
-84
-91
-97
-109
-99
-99
-112
-92
-94
-132
-56
99
210
419
612
337
-209
-373
-205
-145
-181
-165
-152
-160
-146
-137
-140
-131
-111
-97
-87
-73
-55
-35
-21
-14
-10
5
34
57
62
69
96
125
146
165
191
223
240
240
255
280
259
188
111
49
-4
-48
-88
-115
-125
-130
-132
-126
-129
-139
-146
-147
-153
-167
-186
-186
-152
-115
-122
-137
-86
11
74
118
189
238
216
163
128
110
84
44
34
47
17
4
97
207
313
457
382
-35
-342
-263
-118
-123
-138
-109
-101
-102
-86
-71
-62
-54
-52
-48
-36
-24
-19
-15
1
12
5
11
47
79
94
124
150
142
150
205
238
206
172
172
156
105
61
37
-3
-61
-96
-103
-107
-107
-97
-89
-89
-89
-79
-58
-49
-66
-77
-70
-69
-64
-38
-30
-54
-45
0
5
-39
-80
-102
-108
-99
-93
-95
-88
-86
-98
-88
-72
-94
-74
39
146
234
307
162
-183
-321
-164
-49
-73
-81
-56
-51
-45
-29
-18
2
19
22
41
90
125
121
109
109
102
86
81
87
86
76
75
80
77
73
80
92
100
110
134
160
162
128
74
27
-4
-25
-41
-52
-60
-71
-87
-92
-79
-59
-33
-3
-5
-37
-49
-26
-2
-1
-9
8
52
66
26
-19
-45
-65
-80
-92
-112
-120
-119
-123
-97
-75
-116
-92
69
209
369
597
493
-36
-360
-236
-106
-126
-115
-89
-101
-90
-68
-77
-81
-64
-54
-53
-51
-48
-48
-63
-81
-83
-84
-104
-110
-91
-86
-97
-91
-70
-52
-32
-2
24
40
58
81
95
74
20
-25
-33
-45
-109
-190
-222
-201
-164
-130
-89
-35
-3
-30
-95
-143
-160
-146
-83
-1
40
62
143
247
263
223
245
291
236
118
65
57
10
-14
19
-11
-38
118
318
472
758
901
482
6
84
348
355
294
292
242
188
183
168
135
108
63
14
-13
-39
-76
-101
-118
-142
-161
-173
-189
-201
-202
-192
-171
-151
-138
-118
-95
-81
-70
-52
-37
-36
-60
-114
-177
-214
-217
-223
-247
-261
-256
-255
-259
-252
-240
-233
-235
-243
-248
-242
-232
-227
-230
-213
-158
-110
-115
-142
-153
-144
-113
-76
-52
-4
64
95
131
195
193
207
371
528
661
974
1106
614
27
-43
100
85
41
46
27
18
38
37
11
-20
-41
-46
-54
-68
-74
-81
-112
-145
-146
-139
-149
-154
-147
-138
-117
-86
-75
-79
-58
-15
11
29
56
40
-7
33
141
138
16
-60
-48
-38
-55
-66
-80
-110
-111
-63
-34
-63
-80
-45
-1
22
29
33
58
81
62
19
-6
1
30
53
55
69
78
51
52
81
33
5
136
283
380
517
458
39
-272
-177
-26
-43
-65
-39
-47
-70
-72
-60
-55
-60
-58
-55
-69
-71
-60
-89
-142
-147
-108
-80
-69
-52
-30
-14
2
24
44
47
46
71
118
146
129
85
44
18
-7
-37
-53
-51
-60
-88
-109
-112
-108
-101
-92
-89
-98
-117
-129
-115
-87
-81
-95
-81
-42
-27
-40
-49
-55
-59
-47
-35
-30
-12
3
9
43
62
39
96
243
364
534
701
501
31
-145
9
80
25
15
25
-3
-34
-53
-62
-68
-88
-119
-128
-119
-112
-110
-104
-92
-72
-52
-35
-14
11
33
48
49
48
73
108
122
127
146
157
142
122
104
68
18
-27
-57
-76
-87
-96
-109
-116
-105
-102
-124
-148
-154
-155
-144
-122
-118
-119
-83
-40
-37
-58
-81
-107
-112
-88
-66
-28
27
33
13
33
19
-4
128
325
477
750
924
515
-118
-249
-46
-3
-67
-64
-61
-82
-84
-86
-95
-90
-84
-99
-122
-126
-119
-115
-114
-111
-103
-90
-80
-75
-63
-34
4
36
68
111
144
155
172
195
189
151
97
28
-26
-51
-75
-101
-116
-128
-138
-134
-130
-131
-128
-122
-126
-132
-127
-113
-108
-109
-81
-27
5
-4
-34
-65
-70
-41
-26
-39
-29
-9
-11
12
27
4
96
302
445
666
938
708
45
-237
-61
1
-71
-48
-26
-57
-38
-7
-30
-56
-48
-49
-82
-110
-102
-84
-84
-83
-69
-51
-36
-24
-1
40
82
109
131
153
164
160
149
146
163
177
155
101
44
-7
-53
-92
-124
-149
-164
-166
-165
-176
-205
-243
-272
-289
-322
-360
-355
-301
-236
-171
-112
-82
-73
-66
-77
-98
-102
-91
-72
-48
-23
16
33
-3
45
227
363
519
813
788
221
-197
-79
76
6
-34
3
11
28
54
34
22
53
71
62
66
