# session 75
22
-12
-71
-128
-145
-129
-118
-131
-146
-138
-123
-130
-144
-144
-150
-167
-166
-140
-106
-75
-69
-103
-131
-121
-110
-108
-92
-87
-94
-75
-77
-104
-42
77
144
250
329
93
-279
-337
-179
-140
-172
-150
-137
-147
-129
-112
-125
-131
-115
-97
-85
-71
-48
-16
19
58
111
167
209
251
289
273
203
136
78
-1
-80
-123
-146
-167
-172
-158
-142
-126
-113
-106
-104
-94
-63
-25
-14
-18
5
47
58
21
-30
-53
-54
-62
-57
-33
-32
-29
9
14
-3
75
200
300
430
417
60
-284
-240
-62
-42
-66
-43
-39
-47
-42
-42
-43
-37
-33
-20
8
30
49
86
137
185
236
305
382
424
422
408
374
290
182
97
32
-24
-57
-65
-60
-59
-65
-59
-54
-81
-104
-75
-30
25
117
229
400
687
946
1073
1274
1577
1557
997
263
-227
-413
-441
-445
-478
-513
-538
-562
-575
-592
-654
-726
-751
-771
-830
-879
-882
-855
-807
-725
-597
-436
-272
-124
-9
56
64
34
5
-2
-4
-24
-51
-53
-32
-23
-34
-32
-8
7
1
-7
-11
-8
6
10
-3
0
15
12
9
2
-31
-48
-22
-17
-44
-23
52
103
93
53
31
29
16
13
49
55
24
43
58
29
119
312
462
642
706
295
-248
-310
-94
-51
-95
-73
-56
-58
-57
-64
-53
-13
13
15
22
48
82
117
158
209
267
328
378
401
393
372
336
269
178
90
17
-32
-63
-96
-118
-108
-95
-104
-95
-48
-14
8
83
197
299
469
756
1048
1336
1703
1914
1583
812
104
-276
-418
-457
-467
-479
-498
-526
-556
-570
-580
-607
-651
-698
-742
-771
-786
-792
-776
-715
-612
-471
-295
-134
-41
-5
2
-19
-56
-86
-92
-85
-94
-104
-80
-51
-56
-72
-74
-74
-69
-58
-48
-43
-52
-71
-68
-44
-36
-43
-40
-35
-42
-47
-49
-61
-66
-52
-45
-45
-9
41
44
13
2
6
-4
-11
-1
-3
-12
11
22
-1
59
193
302
489
674
440
-87
-267
-90
-13
-42
-1
25
-4
-7
10
15
16
20
36
62
74
91
129
170
217
278
336
380
413
429
422
384
320
250
179
104
35
-20
-60
-82
-88
-89
-80
-61
-50
-46
-34
-22
-13
-5
-8
-11
14
52
51
10
-33
-59
-68
-75
-87
-101
-109
-92
-71
-100
-106
2
139
287
488
438
-21
-378
-304
-160
-177
-186
-149
-155
-166
-153
-154
-164
-154
-136
-117
-92
-71
-52
-22
19
62
112
165
208
241
251
221
153
60
-45
-135
-190
-220
-237
-245
-242
-229
-219
-220
-216
-202
-191
-181
-163
-153
-152
-124
-65
-28
-42
-79
-96
-90
-86
-83
-66
-61
-63
-36
-40
-74
13
171
285
507
674
304
-296
-408
-205
-179
-211
-135
-104
-140
-146
-125
-102
-71
-54
-43
-8
41
77
111
156
213
301
416
496
514
505
489
441
341
219
130
77
23
-22
-31
-20
-5
1
-24
-40
-11
35
94
177
279
481
793
1063
1300
1613
1714
1246
463
-116
-364
-447
-473
-474
-474
-488
-503
-516
-542
-575
-603
-640
-691
-744
-798
-835
-833
-799
-722
-586
-417
-243
-83
38
120
153
108
41
38
50
3
-47
-40
-22
-38
-44
-11
4
-22
-31
5
29
17
1
-5
-21
-34
-26
-23
-40
-51
-50
-61
-85
-95
-85
-82
-106
-116
-63
23
61
35
-2
-12
-8
-8
0
8
8
32
39
-13
26
206
335
487
754
657
59
-301
-155
-45
-119
-113
-70
-96
-104
-84
-88
-88
-67
-41
-20
-16
-12
26
80
115
158
234
309
356
378
370
344
306
242
164
103
48
-14
-59
-79
-89
-86
-73
-72
-72
-42
0
44
119
205
283
465
790
1068
1237
1467
1660
1441
803
152
-250
-434
-502
-528
-543
-549
-554
-567
-579
-591
-612
-646
-693
-739
-775
-806
-822
-806
-745
-634
-473
-291
-129
-12
76
136
146
116
86
66
48
39
44
43
29
23
34
42
37
26
17
22
42
46
20
-5
-14
-21
-24
-27
-42
-47
-34
-45
-72
-61
-34
-36
-29
29
74
40
-12
0
22
-8
-24
-3
-2
6
26
3
24
143
264
437
622
439
-78
-324
-183
-83
-111
-101
-88
-106
-103
-103
-125
-119
-88
-71
-63
-47
-27
-2
33
82
139
188
236
289
321
312
293
272
211
123
59
3
-69
-108
-92
-78
-93
-90
-60
-42
-42
-35
-13
19
43
40
35
89
192
273
339
465
608
642
579
465
312
326
607
694
270
-189
-267
-214
-263
-301
-288
-299
-327
-344
-360
-376
-399
-428
-439
-426
-414
-410
-393
-358
-315
-265
-211
-161
-107
-50
-10
11
31
46
42
35
33
25
23
38
42
29
34
56
56
35
26
43
63
54
17
-12
-5
20
27
13
21
66
97
81
42
16
8
5
4
6
-9
-31
-21
-25
-66
-23
111
235
463
713
491
-126
-411
-255
-155
-201
-193
-157
-156
-153
-148
-149
-137
-122
-114
-95
-58
-20
8
31
72
143
220
283
332
371
383
360
308
231
127
16
-68
-126
-178
-207
-200
-196
-210
-209
-200
-201
-180
-146
-148
-176
-171
-116
-43
-11
-51
-106
-104
-78
-81
-84
-66
-58
-43
-21
-39
-8
153
312
434
541
361
-125
-357
-169
-25
-71
-75
-35
-57
-80
-67
-67
-83
-82
-70
-63
-45
-12
25
69
139
231
324
399
456
495
487
406
288
188
99
2
-72
-103
-125
-141
-133
-129
-135
-111
-82
-72
-27
42
71
130
328
621
879
1071
1308
1607
1673
1229
481
-114
-381
-452
-463
-462
-472
-493
-510
-528
-556
-589
-629
-676
-720
-771
-832
-871
-883
-883
-840
-722
-561
-390
-217
-68
26
63
61
40
17
3
1
2
0
-2
-2
-3
-1
5
18
29
18
1
17
40
19
-14
-5
11
2
2
-3
-39
-51
-13
-9
-51
-41
36
90
85
65
52
29
6
16
48
63
71
73
31
41
193
319
401
650
764
313
-220
-236
-53
-61
-83
-37
-47
-65
-33
-23
-37
-35
-34
-37
-22
-1
7
20
68
144
213
271
335
393
420
415
379
316
238
154
77
16
-25
-45
-60
-81
-88
-80
-81
-75
-43
6
69
135
246
506
835
1070
1344
1699
1669
1031
271
-181
-387
-475
-482
-487
-527
-547
-532
-534
-558
-573
-576
-595
-640
-694
-731
-730
-702
-653
-541
-364
-197
-76
11
47
35
20
4
-29
-49
-47
-44
-45
-48
-51
-44
-29
-32
-45
-47
-42
-44
-54
-63
-62
-56
-51
-52
-53
-45
-37
-42
-64
-83
-84
-68
-57
-66
-63
-23
15
22
5
-29
-53
-35
-14
-29
-44
-19
18
19
10
79
207
326
439
418
108
-225
-223
-46
12
-2
9
11
9
29
44
47
48
43
39
48
60
69
88
126
170
211
260
312
343
349
336
307
262
206
139
72
20
-19
-47
-61
-66
-68
-63
-48
-41
-56
-67
-44
-11
-12
-28
-7
40
55
28
-5
-15
-15
-25
-34
-33
-40
-36
-15
-33
-49
54
181
284
504
590
174
-323
-343
-165
-162
-189
-139
-117
-126
-134
-152
-162
-153
-131
-86
-55
-78
-86
-21
59
114
175
242
295
335
352
326
247
123
5
-77
-148
-199
-204
-210
-244
-245
-209
-200
-202
-182
-176
-181
-159
-148
-168
-134
-53
-28
-56
-86
-120
-136
-130
-131
-127
-128
-141
-106
-86
-120
-24
189
305
388
391
34
-389
-370
-145
-102
-126
-101
-93
-78
-54
-59
-49
-8
0
-18
-3
48
93
122
176
256
326
395
476
525
512
459
381
276
150
27
-65
-115
-147
-176
-188
-181
-166
-144
-120
-111
-110
-88
-58
-65
-83
-53
9
46
49
29
-3
-19
-17
-17
-16
-27
-43
-15
-1
-39
34
206
299
507
843
670
-27
-364
-179
-94
-179
-150
-96
-141
-170
-129
-92
-103
-122
-91
-35
-26
-49
-24
47
101
132
179
238
269
265
250
214
133
20
-77
-136
-176
-209
-228
-234
-229
-217
-206
-199
-191
-186
-179
-159
-146
-157
-153
-111
-65
-59
-90
-119
-125
-130
-144
-130
-110
-121
-107
-80
-123
-110
49
178
320
593
561
13
-391
-296
-146
-151
-130
-100
-124
-126
-103
-97
-83
-45
-9
11
22
51
109
158
178
212
293
374
415
431
431
387
300
209
125
44
-18
-52
-68
-75
-83
-98
-107
-102
-96
-97
-101
-97
-58
33
120
193
396
714
907
1020
1270
1382
1006
412
-2
-232
-355
-368
-365
-405
-425
-425
-453
-476
-472
-496
-543
-559
-567
-606
-630
-607
-571
-514
-407
-268
-126
8
114
171
172
132
93
70
36
-3
-6
14
11
2
11
22
21
18
9
-1
7
22
23
9
-4
2
23
20
-10
-26
-13
-2
-12
-26
-12
17
20
15
49
104
122
101
67
42
32
24
21
28
24
14
17
-2
-9
77
189
326
554
560
93
-354
-331
-166
-161
-170
-143
-165
-177
-144
-122
-117
-121
-128
-99
-47
-31
-28
7
68
141
211
254
290
340
372
362
328
277
201
113
43
1
-31
-54
-52
-33
-26
-33
-33
-16
-6
-23
-47
-39
-14
-20
-55
-56
-10
24
4
-46
-86
-99
-108
-112
-91
-87
-126
-118
-82
-118
-89
73
182
343
659
573
-90
-502
-345
-203
-247
-217
-163
-186
-194
-171
-159
-153
-145
-124
-90
-78
-70
-24
34
85
167
277
362
414
450
459
425
344
230
107
7
-54
-91
-124
-137
-113
-95
-103
-95
-75
-89
-112
-107
-93
-91
-107
-133
-119
-40
23
11
-30
-51
-62
-79
-93
-81
-71
-93
-86
-71
-125
-107
56
169
345
704
656
-27
-488
-343
-191
-249
-242
-207
-236
-223
-186
-204
-208
-160
-134
-137
-129
-110
-83
-31
45
137
219
271
327
397
424
386
314
222
119
27
-44
-81
-89
-93
-94
-80
-72
-79
-72
-45
-32
-36
-25
2
2
-22
-11
43
75
47
-3
-34
-39
-42
-45
-29
-20
-31
-8
14
-18
27
165
255
449
769
647
16
-349
-223
-121
-171
-165
-128
-127
-122
-121
-120
-89
-68
-75
-60
-19
10
28
65
118
164
205
261
322
345
324
289
249
182
88
11
-27
-48
-68
-77
-82
-110
-150
-161
-141
-128
-137
-155
-178
-199
-190
-168
-169
-165
-119
-69
-62
-85
-99
-90
-83
-98
-99
-74
-76
-83
-59
-71
-86
13
125
209
419
513
142
-301
-321
-160
-147
-177
-162
-154
-146
-126
-110
-100
-105
-104
-68
-39
-36
3
68
96
120
196
291
356
388
392
370
319
235
146
73
8
-44
-67
-74
-82
-82
-73
-68
-66
-59
-52
-53
-66
-81
-82
-63
-45
-49
-54
-26
8
-4
-48
-71
-61
-48
-45
-33
-18
-24
-20
-2
-34
-34
88
193
315
617
694
174
-344
-309
-123
-140
-158
-108
-108
-113
-84
-78
-84
-69
-54
-41
-23
-8
4
30
68
107
157
235
307
342
359
355
292
197
108
13
-76
-132
-173
-204
-207
-210
-228
-240
-249
-265
-255
-224
-225
-262
-275
-233
-191
-206
-229
-178
-89
-56
-85
-120
-132
-120
-102
-90
-87
-89
-53
-2
-54
-105
54
261
378
602
709
264
-282
-305
-109
-108
-126
-58
-47
-90
-95
-50
-8
-25
-59
-24
41
54
53
88
149
229
310
372
446
519
527
474
391
268
143
67
16
-32
-74
-114
-134
-117
-102
-116
-115
-68
-19
2
50
132
201
346
605
802
992
1441
1888
1727
970
209
-205
-375
-472
-503
-451
-437
-526
-572
-519
-515
-609
-674
-667
-680
-756
-822
-816
-783
-757
-672
-506
-337
-187
-25
105
147
137
121
95
57
27
14
14
3
-21
-21
7
7
-18
-15
4
-1
-14
-19
-23
-21
-10
-14
-29
-27
-11
-2
-3
-17
-59
-90
-64
-22
-35
-79
-101
-96
-88
-99
-122
-109
-50
4
7
-24
-49
-58
-74
-79
-61
-63
-61
6
26
-20
80
268
370
600
870
593
-37
-224
-36
-11
-85
-49
-21
-74
-111
-87
-41
-22
-35
-45
-41
-21
19
55
87
153
232
280
328
401
439
413
374
344
286
191
93
20
-25
-54
-78
-100
-120
-129
-114
-89
-76
-73
-76
-81
-76
-74
-90
-89
-52
-44
-77
-65
11
62
43
-2
-36
-48
-52
-68
-74
-62
-69
-68
-48
-75
-61
89
221
375
703
755
198
-302
-248
-84
-116
-132
-85
-83
-100
-100
-84
-58
-44
-45
-28
-1
19
47
91
137
190
259
322
363
394
423
429
389
293
160
58
23
-3
-62
-95
-79
-78
-98
-82
-46
-34
-5
67
162
342
619
826
1014
1390
1627
1205
382
-197
-420
-505
-538
-566
-616
-639
-630
-644
-678
-704
-731
-778
-835
-883
-919
-946
-949
-903
-818
-709
-563
-394
-245
-128
-55
-47
-77
-94
-103
-129
-159
-169
-154
-148
-162
-153
-117
-115
-143
-131
-96
-105
-123
-96
-73
-93
-100
-72
-52
-52
-56
-58
-43
-20
-23
-36
-28
-16
-16
-7
13
23
18
19
34
45
45
41
33
20
25
53
66
47
50
98
133
121
94
84
82
81
95
121
127
137
172
164
145
243
390
532
799
931
507
-67
-139
76
123
86
113
132
131
149
170
184
204
232
245
235
246
304
354
373
403
454
499
541
584
607
605
584
542
484
425
354
252
161
121
94
45
17
26
29
20
8
-10
-16
2
3
-27
-44
-34
-37
-57
-43
31
139
236
299
376
511
610
667
925
1361
1427
827
26
-437
-570
-621
-661
-674
-696
-738
-772
-808
-863
-910
-947
-1002
-1067
-1126
-1202
-1276
-1305
-1311
-1314
-1267
-1151
-997
-830
-675
-567
-510
-480
