# session 12
3
-265
-459
-476
-346
-256
-250
-178
-58
6
103
174
-48
-396
-440
-264
-195
-211
-190
-191
-244
-276
-262
-239
-223
-200
-172
-152
-137
-109
-79
-57
-32
1
33
73
135
187
194
184
193
188
142
79
15
-49
-91
-103
-115
-138
-152
-146
-130
-110
-91
-77
-63
-50
-58
-77
-62
-20
-11
-19
14
63
65
32
1
-36
-84
-110
-115
-132
-141
-131
-152
-139
-4
130
237
428
411
-59
-450
-328
-93
-77
-97
-53
-33
-30
-17
-13
-11
2
7
9
31
58
74
96
137
178
206
237
288
342
369
373
385
395
354
269
186
114
44
4
16
39
25
4
9
14
-7
-30
-51
-90
-126
-111
-64
-64
-102
-84
-1
72
119
138
103
54
60
110
155
173
198
235
210
183
309
472
584
811
913
454
-131
-200
-37
-81
-165
-157
-177
-213
-211
-211
-221
-225
-234
-239
-226
-212
-201
-187
-179
-177
-140
-59
11
44
68
86
88
77
46
-24
-122
-210
-264
-298
-324
-338
-339
-343
-358
-375
-370
-337
-318
-326
-300
-210
-125
-98
-98
-70
-3
62
84
66
47
43
32
12
13
21
14
23
10
-46
21
192
267
402
648
467
-157
-443
-242
-121
-172
-161
-128
-134
-125
-117
-122
-109
-103
-119
-113
-77
-43
-12
11
5
8
77
177
234
256
279
298
298
268
194
91
0
-58
-93
-128
-171
-208
-221
-224
-233
-244
-243
-231
-215
-202
-202
-208
-205
-194
-194
-203
-175
-96
-48
-77
-122
-136
-151
-169
-144
-107
-115
-116
-85
-92
-30
254
573
839
1245
1482
1067
487
437
645
667
637
693
739
722
619
458
345
291
224
163
139
99
44
32
35
-18
-95
-113
-66
-7
36
57
59
51
19
-51
-127
-188
-253
-307
-318
-317
-334
-336
-311
-294
-293
-292
-284
-266
-260
-273
-270
-243
-232
-241
-232
-196
-151
-118
-115
-142
-167
-172
-174
-171
-153
-148
-144
-121
-132
-145
-41
101
196
334
340
-29
-407
-369
-182
-168
-198
-164
-142
-146
-147
-149
-136
-113
-117
-131
-114
-90
-89
-75
-35
-11
-3
30
77
108
137
165
170
154
128
82
33
1
-25
-51
-65
-67
-68
-62
-53
-42
-30
-17
-5
-2
-10
-11
2
14
33
63
75
72
99
137
136
107
91
85
68
62
79
82
72
86
85
58
109
213
287
425
512
211
-252
-329
-109
-13
-35
-16
4
-26
-60
-68
-55
-34
-10
6
-2
-26
-43
-53
-68
-62
-14
49
101
162
233
285
317
341
344
317
262
195
126
64
39
49
40
12
-2
-18
-25
3
16
-12
-33
-44
-61
-47
-20
-23
6
101
169
169
150
124
88
56
25
18
32
3
-24
17
4
-53
50
200
265
504
713
276
-448
-622
-421
-380
-406
-338
-282
-262
-235
-183
-91
-23
-16
22
95
109
94
115
121
104
120
145
139
140
164
164
142
118
56
-61
-176
-256
-329
-400
-450
-488
-519
-532
-539
-551
-548
-533
-546
-565
-549
-530
-526
-507
-498
-509
-479
-402
-345
-334
-360
-405
-433
-429
-419
-405
-382
-338
-263
-218
-186
-6
269
475
713
858
507
-14
-28
241
290
268
350
370
328
321
284
220
205
196
151
130
148
171
195
214
216
240
304
375
434
482
517
553
578
555
493
439
395
342
298
265
230
203
195
186
171
175
210
273
335
362
368
388
427
465
480
486
526
606
671
682
665
673
707
739
775
801
788
774
716
472
182
114
222
462
827
815
165
-363
-240
4
-92
-309
-389
-346
-294
-263
-146
56
172
189
255
330
329
389
463
172
-511
-1149
-1555
-1869
-2120
-2257
-2324
-2394
-2478
-2478
-2350
-2253
-2224
-2061
-1764
-1526
-1366
-1211
-1086
-984
-865
-756
-661
-546
-438
-344
-215
-82
-2
65
144
195
246
336
407
416
410
415
414
421
440
437
436
497
564
552
575
715
829
917
1067
996
567
270
376
512
484
467
492
480
464
464
459
457
446
430
446
475
465
453
483
512
511
503
498
507
536
544
543
599
646
568
430
338
263
163
77
29
-7
-60
-111
-134
-149
-163
-163
-190
-210
-117
-1
10
19
81
68
-23
-97
-137
-149
-145
-162
-196
-227
-263
-295
-298
-276
-286
-343
-366
-319
-292
-297
-230
-20
275
366
32
-345
-240
100
165
96
178
250
196
132
105
146
286
397
363
230
107
70
79
84
150
243
228
219
381
548
537
430
315
206
127
-31
-348
-620
-690
-687
-685
-616
-513
-453
-427
-412
-382
-311
-237
-184
-100
-7
9
-29
-41
-49
-83
-80
-13
40
35
28
46
37
-18
-52
-47
-68
-91
-64
-74
-104
-13
124
266
551
689
253
-345
-503
-447
-543
-648
-660
-710
-759
-686
-547
-448
-385
-328
-271
-218
-188
-183
-156
-92
-37
3
63
147
221
271
328
416
481
461
377
278
163
52
5
11
2
-20
-18
-16
-27
-13
23
37
32
39
57
80
118
172
248
402
671
950
1098
1194
1436
1696
1508
776
55
-221
-241
-280
-318
-302
-298
-335
-367
-360
-358
-407
-458
-468
-488
-532
-564
-636
-796
-937
-959
-903
-808
-663
-502
-364
-231
-91
13
50
45
35
22
2
-8
-5
-1
14
54
89
88
88
117
130
126
152
176
145
99
100
136
156
130
87
73
66
36
7
-2
0
26
65
69
52
93
193
255
237
202
192
184
179
193
198
206
249
248
206
313
520
651
870
1116
841
169
-80
136
211
97
83
143
174
200
209
188
188
228
273
306
321
320
316
318
319
322
325
301
248
200
161
111
59
17
-36
-118
-205
-268
-310
-348
-395
-440
-460
-459
-465
-470
-453
-426
-403
-380
-378
-395
-380
-343
-348
-371
-339
-270
-231
-233
-244
-248
-258
-271
-272
-258
-246
-245
-229
-204
-223
-228
-123
5
120
300
292
-127
-507
-448
-263
-247
-260
-224
-215
-228
-227
-215
-212
-220
-193
-141
-146
-180
-148
-88
-81
-80
-34
19
49
85
139
158
115
58
13
-50
-135
-214
-272
-312
-345
-372
-380
-374
-361
-310
-230
-144
16
236
374
447
501
360
10
-248
-284
-207
-67
69
103
97
133
168
165
153
149
155
155
132
101
89
92
97
123
200
317
427
506
578
655
722
750
718
654
622
628
611
559
515
495
480
464
442
424
426
421
394
373
354
325
325
340
312
273
276
284
262
248
250
243
240
244
229
208
208
205
176
130
47
-89
-230
-340
-436
-492
-464
-392
-336
-291
-232
-170
-138
-143
-168
-193
-212
-219
-229
-249
-239
-231
-290
-309
-189
-58
52
179
54
-396
-661
-533
-427
-487
-500
-483
-569
-700
-787
-836
-868
-895
-913
-896
-836
-765
-709
-657
-579
-487
-416
-357
-272
-170
-78
1
61
93
107
113
107
89
57
23
10
17
22
21
22
36
58
70
82
102
107
95
98
119
123
107
108
150
201
208
179
154
137
114
107
125
117
70
66
96
84
136
299
417
578
859
764
148
-230
-61
107
61
55
105
107
100
113
120
122
132
153
182
204
210
221
256
289
312
362
440
502
547
600
633
622
601
556
450
335
275
229
162
124
132
134
103
79
92
85
0
-89
-82
-10
29
12
18
96
177
194
180
168
147
113
83
79
102
109
91
84
30
-69
-53
39
72
175
258
-72
-573
-661
-501
-520
-616
-625
-628
-640
-633
-634
-633
-641
-659
-605
-502
-480
-517
-513
-495
-486
-432
-352
-303
-259
-190
-135
-126
-161
-229
-309
-384
-453
-491
-481
-477
-515
-553
-568
-572
-562
-531
-485
-421
-328
-193
-31
91
149
220
340
437
472
470
453
449
467
486
506
526
540
584
619
583
629
820
959
1091
1280
1122
589
360
564
665
589
601
645
630
650
674
625
607
652
600
445
331
123
-310
-555
-290
-3
-166
-422
-342
-111
-75
-252
-408
-383
-295
-298
-337
-365
-453
-586
-682
-735
-723
-622
-575
-723
-907
-907
-854
-942
-1031
-954
-820
-728
-593
-418
-327
-334
-344
-317
-258
-179
-109
-53
7
80
142
151
163
279
420
535
734
831
531
165
188
389
462
496
553
566
589
640
637
592
573
557
507
467
455
424
364
323
311
291
250
234
251
252
233
231
217
161
110
84
24
-104
-231
-271
-231
-208
-219
-199
-210
-389
-643
-734
-643
-527
-434
-335
-250
-176
-96
-32
2
17
20
16
18
33
67
67
-20
-132
-203
-253
-227
-91
42
131
146
-78
-406
-458
-282
-183
-175
-173
-200
-235
-247
-259
-252
-193
-110
-40
1
21
50
97
133
153
176
220
275
322
350
367
371
354
321
279
224
163
107
60
19
-19
-41
-6
79
143
142
96
35
-16
-38
-37
-38
-58
-67
-31
15
11
-32
-62
-69
-84
-101
-85
-65
-60
-28
-27
-79
-3
174
269
461
707
431
-232
-441
-208
-147
-229
-185
-142
-170
-153
-125
-148
-158
-139
-134
-124
-100
-95
-99
-77
-42
-11
40
115
179
214
244
289
318
285
204
107
11
-59
-100
-137
-166
-169
-172
-190
-198
-188
-184
-203
-213
-196
-193
-212
-196
-149
-114
-108
-135
-177
-209
-244
-255
-210
-201
-246
-222
-193
-233
-135
98
228
384
583
352
-187
-305
-41
51
16
107
198
176
140
141
133
99
55
14
3
51
122
154
174
253
379
459
455
433
446
457
433
390
318
219
144
92
33
-8
-8
13
34
37
16
4
17
20
-2
-19
-6
17
16
3
36
112
154
121
52
-5
-38
-56
-50
-46
-88
-94
-17
-9
-56
33
140
199
462
655
263
-258
-251
-48
-79
-142
-122
-152
-193
-176
-167
-196
-223
-216
-178
-153
-163
-162
-131
-102
-84
-58
-20
29
79
117
135
126
85
27
-39
-118
-197
-249
-281
-307
-321
-327
-331
-326
-313
-302
-291
-289
-284
-249
-213
-217
-234
-220
-179
-136
-129
-169
-208
-218
-228
-234
-220
-207
-192
-177
-206
-210
-96
29
146
375
432
4
-454
-424
-203
-182
-229
-191
-148
-116
-60
-31
-50
-41
24
95
157
235
311
368
435
519
589
650
709
723
684
644
613
557
476
377
268
181
131
88
32
-18
-41
-47
-55
-61
-57
-69
-107
-136
-140
-134
-119
-105
-104
-97
-64
-16
24
41
34
22
37
86
110
115
187
240
168
152
292
420
537
637
456
106
49
233
295
245
227
210
183
174
158
129
118
115
98
75
68
55
3
-55
-62
-35
-20
-12
9
50
120
197
245
252
205
103
-8
-90
-154
-206
-243
-271
-289
-306
-356
-431
-486
-512
-531
-547
-550
-533
-521
-541
-559
-544
-549
-616
-680
-676
-637
-596
-539
-483
-447
-395
-362
-377
-304
-123
-5
124
299
131
-367
-548
-298
-121
-127
-100
-41
-13
15
40
60
87
103
110
129
141
145
172
213
235
254
301
361
416
467
502
515
529
529
469
369
274
193
141
127
109
78
72
83
69
45
47
63
64
50
46
56
54
42
56
96
128
132
107
67
40
18
-6
-11
0
19
50
32
23
179
378
488
683
781
356
-210
-283
-111
-128
-185
-127
-98
-151
-174
-140
-115
-109
-79
-48
-49
-32
24
60
72
119
184
226
300
424
513
530
494
387
253
162
72
-47
-126
-144
-154
-164
-161
-164
-181
-197
-205
-216
-237
-250
-241
-225
-230
-242
-219
-147
-72
-53
-92
-155
-205
-214
-187
-175
-204
-200
-145
-170
-238
-125
61
136
354
637
344
-356
-588
-360
-248
-252
-175
-125
-153
-166
-142
-101
-72
-82
-104
-97
-74
-66
-70
-59
-32
-10
37
134
221
242
232
236
238
203
139
74
19
-33
-76
-94
-92
-74
-46
-25
-26
-44
-76
-108
-116
-108
-93
-66
-56
-81
-80
-28
8
-12
-51
-73
-82
-90
-76
-55
-64
-69
-68
-108
-84
71
209
364
585
482
-43
-360
-223
-87
-113
-101
-64
-71
-57
-25
-29
-40
-26
-10
-5
5
25
40
54
78
119
174
238
302
358
405
427
425
415
385
321
261
228
194
162
151
145
153
180
185
171
172
149
65
-33
-101
-142
-166
-195
-227
-211
-144
-93
-90
-103
-104
-83
-24
41
53
49
93
118
77
99
211
290
390
516
374
-26
-223
-126
-67
-110
-106
-82
-103
-124
-126
-132
-135
-130
-139
-156
-159
-150
-143
-129
-101
-78
-68
-43
1
32
34
21
-6
-55
-122
-201
-281
-344
-379
-402
-424
-431
-419
-403
-387
-354
-312
-294
-300
-297
-270
-244
-243
-249
-216
-145
-71
-18
-2
-24
-42
-22
13
15
-6
11
47
32
33
137
251
358
491
383
-71
-370
-221
17
86
95
102
90
85
90
106
142
166
178
220
266
271
270
308
351
362
356
361
385
420
444
452
452
435
375
281
186
100
27
-19
-41
-63
-82
-84
-82
-79
-62
-48
-50
-51
-49
-58
-71
-72
-50
-6
30
34
11
-20
-48
-56
-42
-38
-56
-46
-21
-56
-54
97
236
342
575
600
90
-396
-350
-166
-188
-231
-217
-224
-218
-200
-213
-211
-175
-163
-183
-185
-153
-133
-145
-141
-93
-46
-10
50
118
147
154
173
176
121
25
-57
-108
-148
-188
-221
-235
-227
-219
-225
-220
-190
-167
-169
-183
-189
-173
-157
-157
-134
-66
-17
-36
-78
-98
-109
-109
-89
-80
-68
-17
-14
-67
33
265
410
565
697
398
-148
-262
-14
75
43
105
150
134
173
213
186
200
244
138
-66
-125
-34
19
3
17
89
