# session 60
64
63
59
58
70
88
106
143
200
255
300
353
411
447
444
411
351
265
168
83
20
-21
-53
-81
-95
-100
-112
-114
-96
-61
18
106
150
288
591
818
926
1157
1301
939
327
-51
-220
-342
-383
-369
-375
-386
-394
-410
-427
-451
-492
-530
-565
-608
-648
-672
-672
-636
-563
-464
-335
-179
-36
51
80
88
84
45
-11
-38
-43
-50
-52
-53
-65
-74
-63
-46
-33
-24
-20
-26
-35
-32
-23
-31
-50
-51
-41
-58
-98
-104
-65
-56
-80
-41
51
81
35
0
-3
-6
3
23
10
-10
22
20
-20
89
283
391
619
876
560
-126
-325
-98
-34
-74
-29
-30
-60
-31
-24
-50
-49
-54
-65
-40
-11
9
46
84
120
185
264
323
365
392
388
349
271
166
78
25
-17
-44
-47
-53
-81
-115
-143
-144
-119
-105
-98
-72
-29
48
178
296
376
505
685
818
964
1240
1453
1229
575
-63
-356
-400
-416
-451
-462
-462
-482
-512
-542
-572
-599
-622
-648
-680
-722
-770
-788
-770
-740
-672
-531
-358
-202
-64
45
110
131
112
76
58
48
26
15
14
6
9
34
45
31
25
33
33
25
36
48
30
14
33
34
3
25
113
167
141
91
70
75
82
79
70
78
111
110
59
84
185
255
475
863
813
166
-298
-226
-105
-151
-170
-149
-145
-116
-95
-113
-112
-81
-65
-60
-50
-26
12
53
90
135
193
258
314
341
337
315
269
195
105
25
-32
-75
-110
-133
-148
-152
-144
-149
-167
-145
-95
-89
-118
-106
-61
-42
-60
-93
-127
-145
-137
-125
-140
-162
-140
-113
-140
-118
11
115
183
260
133
-211
-355
-210
-104
-111
-93
-73
-81
-66
-51
-60
-51
-24
-5
14
36
53
77
119
176
242
312
373
408
415
403
367
289
182
85
16
-34
-67
-92
-110
-109
-93
-77
-59
-30
68
295
545
729
1014
1434
1534
1010
259
-189
-319
-365
-405
-416
-409
-408
-424
-449
-468
-484
-512
-549
-584
-616
-642
-656
-641
-562
-424
-283
-158
-26
85
134
136
121
102
87
47
-22
-58
-50
-44
-49
-56
-66
-64
-58
-70
-75
-56
-47
-60
-68
-65
-56
-51
-62
-78
-79
-72
-81
-117
-140
-114
-98
-129
-113
-27
33
35
20
-4
-26
-26
-12
-8
-13
6
8
-41
14
211
352
506
737
576
-35
-362
-202
-68
-93
-104
-117
-121
-75
-58
-55
37
204
353
406
356
289
261
266
307
374
419
432
436
443
451
424
328
207
122
53
-38
-111
-140
-159
-168
-153
-154
-184
-187
-152
-138
-143
-91
42
179
302
500
718
806
899
1189
1397
1115
473
-88
-364
-426
-425
-457
-488
-471
-469
-516
-546
-553
-596
-650
-673
-703
-752
-775
-786
-813
-801
-700
-551
-405
-251
-94
23
80
93
78
50
33
25
23
26
23
16
24
37
45
56
68
69
61
54
54
53
24
-7
21
62
12
-64
-19
94
125
90
71
52
23
32
66
52
23
64
90
42
90
237
335
609
1041
913
170
-265
-166
-99
-153
-126
-116
-155
-134
-99
-103
-92
-67
-61
-50
-25
-8
14
57
101
149
221
295
336
343
331
309
269
192
89
0
-61
-107
-135
-146
-157
-171
-177
-187
-186
-154
-129
-151
-170
-138
-89
-66
-72
-93
-124
-166
-183
-150
-133
-158
-133
-89
-116
-85
67
172
296
485
340
-152
-369
-200
-107
-153
-154
-140
-126
-80
-63
-82
-75
-51
-36
-14
15
42
80
121
154
199
265
322
348
350
326
274
205
119
28
-46
-86
-103
-117
-131
-124
-102
-105
-124
-113
-75
-42
-30
-28
-7
50
102
110
107
140
193
274
423
560
628
807
1144
1245
834
222
-156
-271
-317
-355
-343
-300
-299
-350
-390
-388
-384
-411
-448
-477
-493
-496
-508
-525
-510
-459
-398
-320
-208
-89
14
91
128
121
90
54
21
-2
-13
-14
-12
-13
-14
-7
7
14
7
-9
-19
-14
5
20
13
3
29
75
83
47
16
2
-13
-14
1
-8
-11
22
8
-29
61
217
354
561
604
170
-320
-340
-147
-108
-129
-120
-134
-137
-119
-126
-139
-123
-93
-63
-39
-26
2
56
114
163
217
291
372
418
417
394
359
286
173
63
-1
-35
-73
-100
-100
-92
-90
-86
-81
-72
-52
-38
-41
-35
-8
21
22
-10
-47
-70
-98
-117
-100
-92
-111
-82
-50
-79
-15
157
266
451
705
491
-139
-405
-225
-133
-167
-137
-112
-121
-109
-113
-132
-112
-74
-66
-80
-73
-33
13
48
85
152
247
309
318
326
332
290
205
98
-21
-103
-131
-162
-202
-207
-188
-185
-190
-188
-187
-188
-180
-167
-152
-121
-72
-42
-62
-103
-122
-122
-125
-118
-108
-117
-100
-72
-104
-79
87
205
324
607
610
51
-392
-293
-129
-161
-167
-125
-136
-140
-105
-85
-90
-86
-57
-26
-17
-7
24
71
123
170
216
281
343
367
361
343
288
182
65
-19
-70
-108
-140
-164
-162
-138
-132
-156
-148
-53
77
161
276
545
855
1088
1371
1632
1479
882
251
-168
-396
-493
-537
-548
-495
-463
-531
-590
-570
-559
-600
-634
-658
-699
-732
-728
-676
-563
-410
-272
-152
-21
91
135
135
124
96
59
42
37
31
37
45
37
31
36
37
35
39
43
37
22
13
18
24
18
12
14
15
6
-9
-17
-9
-5
-9
15
62
81
73
69
64
48
28
22
22
7
15
66
64
32
116
240
324
512
614
266
-190
-218
-42
-45
-94
-56
-48
-76
-68
-57
-63
-44
-15
-11
-8
15
38
59
92
130
169
218
265
291
300
297
271
219
150
74
3
-56
-101
-130
-138
-144
-154
-145
-131
-129
-99
-38
-3
37
140
274
447
672
833
935
1136
1277
1022
476
-9
-293
-410
-432
-461
-501
-496
-480
-503
-540
-569
-600
-629
-664
-710
-745
-766
-780
-774
-732
-634
-475
-306
-178
-71
42
125
133
92
62
49
28
19
47
97
134
134
115
118
150
178
182
157
115
82
73
68
51
20
-13
-23
-8
-2
-13
10
86
144
137
111
100
69
37
57
73
28
21
65
40
43
197
337
495
809
803
179
-321
-205
-9
-61
-92
-47
-60
-65
-26
-10
-10
4
14
32
58
67
88
143
190
228
298
369
407
426
415
363
292
197
75
-31
-106
-184
-263
-305
-292
-262
-262
-284
-292
-297
-296
-258
-221
-227
-220
-157
-117
-155
-210
-236
-229
-166
-71
-44
-76
-64
-59
-108
-46
115
187
339
607
442
-169
-448
-259
-150
-198
-176
-143
-163
-167
-161
-165
-152
-133
-117
-85
-54
-42
-16
36
84
132
198
268
326
354
329
253
155
62
-18
-92
-153
-185
-202
-224
-236
-218
-190
-179
-180
-158
-121
-112
-117
-78
4
66
78
86
134
212
312
450
576
682
946
1381
1526
1044
303
-156
-290
-320
-328
-325
-326
-318
-304
-307
-323
-339
-358
-382
-409
-436
-470
-505
-510
-477
-422
-330
-188
-46
63
162
244
270
257
240
222
201
181
164
160
173
181
180
190
200
202
205
210
199
176
170
198
225
223
231
277
310
286
251
244
239
219
211
213
208
224
238
193
187
295
372
437
624
609
93
-477
-669
-703
-830
-1020
-1219
-1305
-1183
-997
-887
-803
-702
-612
-539
-466
-386
-303
-222
-137
-42
55
147
226
285
328
347
324
258
180
117
66
18
-12
-16
-14
-12
-16
-32
-44
-24
2
5
0
19
72
129
137
90
37
11
5
25
49
28
14
56
45
-2
122
330
416
530
600
247
-240
-265
-41
-14
-62
-26
-6
-18
-13
-12
-21
-20
-12
15
50
64
76
114
166
227
311
397
447
465
473
446
345
203
89
10
-76
-155
-190
-197
-197
-189
-192
-200
-186
-158
-132
-109
-105
-98
-39
35
44
-1
-36
-45
-60
-70
-51
-44
-63
-46
-44
-85
-4
173
297
511
706
373
-269
-452
-242
-180
-236
-205
-183
-201
-179
-155
-161
-148
-117
-91
-61
-45
-57
-44
33
125
183
226
271
303
312
292
230
133
40
-34
-99
-149
-182
-201
-199
-179
-171
-172
-149
-103
-42
50
144
256
502
824
1037
1251
1582
1660
1177
456
-71
-348
-467
-497
-515
-535
-531
-537
-576
-608
-629
-673
-716
-731
-765
-837
-869
-827
-764
-672
-508
-322
-170
-43
50
93
105
86
50
40
42
21
0
-5
-16
-20
4
28
31
25
17
19
39
59
61
59
53
45
60
82
69
35
34
63
70
49
55
111
152
130
91
73
51
31
58
90
70
60
86
74
79
186
307
438
601
495
42
-238
-117
15
-11
-14
19
5
-7
9
11
2
7
26
40
42
54
88
122
151
191
233
266
304
334
327
299
268
221
161
96
20
-48
-81
-93
-99
-105
-113
-118
-116
-108
-82
-29
33
91
184
374
626
797
884
1053
1240
1114
611
61
-273
-395
-411
-412
-437
-459
-459
-463
-481
-506
-544
-592
-633
-676
-738
-791
-805
-795
-779
-717
-573
-398
-245
-96
49
127
124
93
58
20
4
16
13
-15
-29
-29
-32
-29
-21
-15
6
23
1
-20
0
27
34
31
18
-3
-13
-10
-20
-46
-25
69
145
122
63
51
56
43
56
81
67
71
102
69
79
245
395
543
804
743
135
-319
-219
-65
-114
-141
-114
-123
-113
-78
-67
-63
-39
-16
-9
4
39
73
99
139
190
244
302
356
384
377
333
280
237
181
92
-5
-72
-97
-114
-148
-163
-144
-134
-152
-169
-159
-129
-116
-108
-61
-10
-16
-50
-67
-85
-106
-99
-78
-94
-117
-88
-85
-129
-56
93
165
369
689
519
-108
-388
-222
-145
-201
-182
-156
-169
-157
-139
-132
-114
-99
-88
-66
-46
-26
12
56
96
156
230
293
338
347
312
261
199
95
-16
-76
-112
-155
-171
-160
-163
-183
-199
-202
-182
-150
-141
-155
-160
-130
-62
8
35
40
74
160
300
453
551
655
918
1221
1195
747
198
-158
-301
-338
-355
-383
-395
-380
-376
-390
-397
-403
-421
-448
-476
-497
-510
-517
-509
-472
-416
-342
-235
-117
-22
49
104
123
108
85
64
43
31
27
20
20
39
55
57
62
69
67
64
58
47
50
60
52
55
101
152
162
141
113
86
62
51
64
75
63
61
68
61
104
193
270
452
661
463
-71
-311
-169
-83
-118
-99
-75
-103
-108
-85
-90
-103
-83
-61
-63
-51
-13
14
39
89
154
221
289
334
347
351
341
282
185
91
13
-55
-105
-136
-157
-158
-151
-168
-192
-185
-161
-152
-152
-139
-100
-48
-28
-53
-76
-90
-130
-161
-141
-126
-144
-133
-133
-188
-116
92
179
253
461
328
-249
-516
-298
-175
-232
-202
-155
-172
-165
-151
-165
-153
-120
-111
-107
-75
-39
-18
15
87
181
270
348
408
435
421
367
276
163
59
-24
-89
-128
-142
-159
-183
-191
-183
-173
-154
-119
-93
-87
-67
-12
48
76
64
39
31
25
9
22
52
41
42
73
48
65
223
347
503
858
901
285
-234
-140
30
-41
-59
24
30
-3
-2
-3
-4
18
41
43
35
52
113
189
236
263
313
379
405
377
312
189
16
-121
-175
-191
-207
-217
-220
-225
-247
-289
-330
-347
-351
-336
-263
-166
-91
82
379
579
678
869
950
616
76
-313
-515
-594
-574
-531
-524
-531
-532
-523
-516
-534
-574
-605
-620
-649
-700
-725
-690
-634
-558
-401
-193
-34
75
176
239
238
207
182
161
151
154
151
146
160
176
172
175
192
189
172
166
169
176
185
182
174
176
182
182
167
132
108
119
128
116
112
130
156
162
126
69
36
24
15
12
8
20
55
42
12
99
242
349
501
536
176
-259
-297
-116
-62
-79
-67
-64
-69
-62
-52
-45
-54
-83
-111
-133
-136
-92
-33
1
36
104
182
250
294
295
275
258
223
158
93
42
-5
-48
-76
-87
-92
-93
-82
-73
-81
-82
-44
30
113
194
335
571
754
826
1014
1283
1178
634
107
-176
-325
-384
-372
-372
-394
-405
-416
-437
-456
-483
-519
-548
-572
-612
-656
-678
-672
-633
-554
-441
-304
-156
-19
79
127
129
92
40
8
-10
-35
-55
-55
-51
-56
-66
-73
-68
-58
-63
-73
-59
-47
-63
-70
-52
-48
-66
-71
-53
-30
-28
-47
-35
34
101
102
70
63
59
28
17
39
31
22
47
33
48
199
351
518
816
815
226
-286
-234
-54
-89
-150
-122
-91
-105
-145
-155
-131
-108
-86
-64
-56
-44
-13
27
89
170
239
308
384
434
453
444
385
289
186
90
18
-32
-87
-128
-138
-142
-136
-122
-145
-173
-142
-106
-117
-111
-47
4
-12
-64
-104
-118
-115
-106
-99
-96
-73
-31
-54
-112
-16
176
286
460
630
333
-242
-398
-200
-145
-199
-174
-155
-176
-160
-128
-120
-112
-98
-91
-73
-40
-14
16
69
135
204
283
355
393
393
360
298
221
130
27
-51
-79
-91
-117
-135
-130
-110
-66
-27
15
215
564
789
949
1378
1759
1421
549
-107
-355
-457
-507
-506
-523
-562
-558
-519
-519
-565
-591
-597
-637
-693
-716
-724
-721
-673
-574
-437
-261
-83
57
147
172
139
109
99
79
62
57
43
26
34
44
23
-8
-19
-24
-30
-23
-19
-35
-42
-26
-9
-3
-1
9
20
23
30
48
43
11
8
29
26
19
44
80
111
122
93
59
56
61
58
57
62
86
97
66
96
222
326
487
736
660
153
-186
-94
34
18
11
32
30
33
47
48
