# session 179
-33
8
20
44
63
47
46
63
42
18
28
48
75
106
108
120
190
255
254
245
269
279
245
194
140
76
8
-58
-122
-172
-197
-207
-221
-240
-247
-217
-159
-125
-123
-125
-136
-147
-112
-55
-15
37
70
31
-7
-46
-120
-59
37
-83
-30
176
-163
-162
707
-449
-3980
-4574
-1004
1326
775
512
1016
947
816
1000
811
343
195
292
306
230
181
170
140
84
59
56
25
-8
1
3
-21
3
85
135
144
192
269
300
306
343
374
373
384
398
369
328
295
220
142
125
93
27
33
66
10
-32
24
27
-64
-77
-21
-48
-107
-109
-136
-188
-168
-140
-174
-190
-179
-183
-160
-140
-193
-241
-212
-166
-135
-102
-60
-18
-7
1
52
92
104
161
247
373
517
400
-15
-241
-104
14
-13
-3
29
3
-13
-4
-18
-28
-15
-26
-62
-97
-137
-147
-112
-108
-145
-134
-82
-64
-38
29
59
51
80
97
47
-7
-61
-150
-209
-228
-277
-325
-320
-303
-308
-320
-335
-350
-356
-350
-338
-326
-324
-348
-391
-385
-304
-244
-240
-202
-107
-25
26
59
53
26
27
45
36
21
49
90
118
157
165
114
129
249
410
643
777
494
45
-57
90
143
122
110
85
85
109
101
82
84
86
85
86
80
80
114
152
155
150
180
238
287
301
295
292
295
319
358
355
303
241
173
112
96
90
49
10
14
35
40
34
34
37
28
14
7
-7
-37
-62
-59
-28
-7
-20
-23
14
34
9
-15
-21
-28
-40
-44
-36
-13
4
-14
-28
-4
-29
-108
-75
49
145
306
384
36
-436
-505
-375
-386
-411
-382
-410
-442
-430
-440
-473
-482
-469
-453
-456
-462
-435
-389
-352
-312
-266
-221
-166
-117
-85
-28
63
135
168
190
204
186
133
82
56
50
49
46
44
53
65
59
40
38
45
23
3
37
91
111
104
99
110
131
122
95
122
195
234
220
185
150
142
161
154
111
106
146
149
129
135
110
96
199
336
523
830
841
304
-143
-84
35
-17
-21
-7
-87
-141
-130
-138
-154
-135
-113
-114
-121
-117
-107
-104
-103
-86
-56
-20
35
100
151
186
214
229
224
202
166
110
38
-33
-86
-120
-137
-140
-152
-180
-183
-163
-183
-227
-209
-157
-157
-186
-178
-158
-174
-197
-181
-155
-160
-154
-101
-68
-91
-114
-116
-137
-166
-169
-151
-121
-101
-111
-107
-76
-82
-80
12
117
255
483
475
38
-330
-281
-149
-163
-172
-143
-147
-149
-134
-131
-119
-86
-65
-58
-45
-25
-1
27
60
103
149
186
231
296
345
364
389
423
435
439
434
389
317
260
217
178
153
140
137
138
120
97
88
63
33
51
78
70
67
75
47
22
51
94
101
72
28
-10
-37
-68
-107
-135
-152
-175
-202
-202
-170
-136
-98
-24
50
98
204
397
620
921
1163
884
104
-457
-496
-429
-476
-488
-460
-470
-477
-459
-440
-419
-406
-409
-413
-427
-463
-475
-461
-474
-498
-480
-454
-461
-453
-400
-336
-263
-154
-55
-11
24
79
110
109
96
77
59
54
58
59
48
37
47
62
69
89
118
136
160
196
206
188
176
183
185
167
153
190
261
298
289
271
249
220
195
162
122
109
100
57
46
86
83
97
219
346
525
797
717
136
-251
-135
-20
-96
-113
-79
-92
-96
-88
-105
-107
-89
-81
-72
-64
-65
-31
48
97
94
103
157
216
229
202
195
233
272
281
272
237
160
66
-3
-52
-87
-91
-84
-111
-140
-138
-155
-214
-251
-258
-283
-305
-301
-317
-360
-358
-292
-207
-136
-100
-85
-55
-20
-33
-69
-79
-80
-97
-106
-116
-143
-154
-149
-168
-170
-149
-189
-208
-80
62
167
320
248
-194
-478
-306
-110
-131
-152
-107
-78
-44
7
30
37
55
76
86
94
104
114
122
117
98
90
106
122
143
194
239
245
256
310
363
380
356
266
128
32
4
-14
-45
-60
-47
-19
-4
-6
4
34
83
149
188
238
432
685
826
1016
1323
1267
629
-52
-331
-371
-425
-498
-538
-552
-566
-586
-583
-549
-515
-488
-463
-451
-461
-477
-491
-505
-506
-487
-461
-424
-349
-243
-146
-65
20
90
108
84
60
36
1
-28
-34
-26
-18
-8
4
9
10
17
31
43
57
84
103
87
67
85
119
119
98
99
117
125
119
101
80
99
141
137
106
111
127
119
104
82
56
53
60
56
72
110
130
124
119
135
158
165
169
183
173
125
82
57
33
36
60
70
72
74
63
65
72
56
106
247
384
572
752
559
64
-172
-69
3
-29
-48
-74
-109
-104
-96
-126
-154
-156
-172
-186
-156
-135
-170
-205
-201
-150
-84
-89
-101
-32
-24
-33
131
95
-357
-504
-65
220
107
27
17
-62
-94
-62
-89
-165
-192
-131
-47
-25
-39
-31
-27
-61
-97
-98
-97
-127
-141
-96
-56
-56
-37
9
30
24
3
-43
-83
-87
-85
-90
-81
-83
-114
-115
-71
-82
-118
-22
171
361
575
605
200
-240
-231
-36
-15
-38
-20
-70
-143
-148
-148
-186
-210
-197
-169
-156
-165
-157
-114
-71
-55
-68
-97
-82
5
89
118
131
149
141
95
32
-33
-98
-161
-211
-231
-217
-193
-188
-197
-198
-193
-195
-198
-186
-156
-140
-141
-121
-89
-60
11
106
184
341
599
809
1048
1454
1652
1219
447
-113
-347
-413
-422
-436
-461
-461
-445
-449
-449
-407
-369
-376
-379
-352
-331
-323
-318
-321
-314
-292
-256
-169
-22
134
276
413
532
613
659
681
682
664
651
664
692
714
720
714
715
735
753
744
725
726
740
730
690
672
707
759
764
694
560
368
178
116
78
-148
-274
-125
-247
-484
-239
-375
-836
-38
31
-2989
-4724
-1932
575
-41
-558
-46
-153
-437
-284
-273
-380
-328
-287
-271
-222
-204
-183
-145
-105
-15
94
275
560
548
15
-460
-389
-174
-342
-675
-649
-381
-317
-355
-249
-155
-97
-30
-99
-63
116
-88
-115
496
-151
-2757
-4900
-5417
-4600
-1972
935
1570
965
1090
1326
1115
1059
1111
983
865
807
747
737
695
596
576
581
496
456
534
564
527
573
684
815
1044
1271
1362
1513
1722
1528
859
243
-29
-89
-59
-14
-31
-79
-96
-98
-109
-125
-128
-120
-123
-150
-197
-250
-294
-333
-369
-382
-356
-296
-198
-80
19
115
222
277
245
200
173
104
19
14
53
66
102
127
60
30
68
35
94
171
-108
-70
493
-657
-3752
-4560
-1682
690
546
149
395
374
228
312
325
259
293
324
290
247
221
239
258
213
170
157
87
4
33
126
159
107
31
31
71
5
-38
52
-16
-117
81
7
-274
250
304
-1556
-2446
-322
1425
662
-241
-77
45
-62
-16
17
-2
32
24
-32
-40
-9
-8
-23
16
76
36
-67
-62
47
97
62
58
105
149
194
244
286
318
288
258
328
279
115
213
196
-135
210
389
-1717
-3866
-2411
355
710
9
234
454
225
283
507
584
757
1024
1190
1374
1602
1518
961
315
-16
-91
-136
-203
-269
-313
-289
-233
-232
-275
-287
-286
-331
-387
-401
-427
-499
-527
-513
-558
-569
-446
-368
-392
-263
29
209
242
267
267
205
146
108
65
41
49
53
43
39
44
66
70
25
2
32
36
31
54
33
6
38
16
-72
-71
-17
-21
-30
-10
-12
-26
-8
22
45
74
40
-39
79
139
-953
-3245
-4374
-2572
149
997
487
373
574
520
458
511
512
473
461
467
442
412
492
623
738
990
1158
763
135
-26
135
150
88
103
105
69
52
65
103
81
11
77
136
25
96
180
-115
125
630
-913
-3273
-2458
344
1092
393
499
795
598
523
581
476
372
341
296
227
153
142
177
130
71
126
154
59
6
39
36
12
19
9
-23
-18
30
88
87
12
7
76
7
-47
107
51
-132
252
372
-1152
-3412
-4440
-3430
-918
1246
1774
1614
1522
962
286
241
379
281
244
292
227
144
149
160
99
5
-16
25
11
-45
-69
-121
-188
-157
-117
-172
-193
-172
-190
-110
-34
-119
31
265
11
113
631
-668
-2991
-2493
17
703
19
100
345
134
112
243
190
147
188
201
208
203
153
140
218
287
255
187
164
146
108
92
93
93
124
128
89
154
196
10
66
475
462
544
1410
744
-2338
-3569
-1185
656
188
-136
221
164
23
130
108
43
109
133
106
123
150
171
178
162
187
227
205
187
246
325
379
408
397
351
284
213
159
85
-32
-102
-91
-108
-176
-163
-91
-124
-183
-65
127
158
76
28
-9
-57
-59
-39
-25
23
67
29
-27
-25
-26
-63
-76
-54
-39
-44
-71
-78
-45
-28
-1
101
229
432
721
667
82
-334
-149
-5
-181
-77
46
-326
-168
357
-942
-2889
-2045
199
511
-142
10
185
-2
29
148
153
210
270
280
335
402
419
424
419
363
278
207
127
18
-54
-63
-75
-117
-157
-166
-118
-78
-134
-176
-132
-147
-186
-117
-111
-176
-74
-58
-138
225
-32
-2349
-4351
-2855
132
1008
438
395
558
400
352
457
441
376
433
555
632
825
1144
1046
419
29
147
243
165
145
148
103
85
96
107
91
41
49
104
91
118
172
76
145
349
60
48
825
-55
-2863
-3195
-324
1267
653
459
740
500
319
419
359
277
309
283
227
217
212
222
213
141
108
146
126
40
20
69
73
14
-4
76
139
55
-87
-92
10
30
-7
32
39
-55
-37
44
-59
-56
170
-503
-2784
-4672
-3562
-578
826
293
55
450
464
285
340
372
326
337
324
288
329
366
299
223
239
275
270
266
260
237
261
303
289
309
417
464
427
438
480
504
479
291
171
411
-2
-2243
-4576
-3932
-974
799
609
348
532
495
385
449
453
394
418
456
438
403
387
383
376
380
372
300
225
216
205
146
128
186
190
99
55
55
18
70
199
297
589
842
433
-4
-33
-1447
-4179
-4180
-569
1825
895
-156
170
339
86
129
234
179
199
246
182
118
170
276
300
258
286
366
397
409
437
440
422
416
388
301
207
184
156
64
86
160
-26
-65
300
-442
-3064
-4807
-3203
-340
697
329
251
410
329
276
351
383
402
423
385
332
306
282
253
213
168
155
150
122
125
152
104
64
171
343
544
800
838
372
-271
-357
38
-85
-386
275
136
-2449
-3871
-1485
910
666
135
421
387
204
330
352
267
308
334
328
384
435
464
527
576
554
502
472
445
369
248
143
78
33
34
65
13
-114
-158
-86
-9
-8
-37
33
64
-115
-30
271
-851
-3679
-5075
-3001
-74
793
393
369
533
446
375
406
409
408
422
415
381
332
284
249
281
356
408
595
911
818
231
-127
-25
82
48
3
12
62
-23
-68
136
-34
-342
302
323
-1853
-2995
-944
805
363
40
414
347
220
430
489
443
529
549
479
483
496
406
265
165
123
97
49
13
31
51
0
-54
-30
-17
-55
-22
42
-16
-77
-46
-40
46
145
-77
-49
485
-490
-3600
-5061
-2623
296
762
280
382
500
406
446
490
462
453
411
442
599
693
829
1043
828
201
-71
116
180
51
48
141
141
96
96
71
30
54
48
12
61
22
-35
155
88
-141
480
368
-2493
-4624
-2352
866
1169
460
676
814
569
505
448
320
337
360
279
230
235
224
193
164
158
169
162
138
111
82
77
83
52
40
81
74
65
145
172
169
225
44
-95
406
100
-2631
-5122
-3789
-498
812
406
346
524
445
514
684
761
936
929
466
113
216
336
278
253
241
151
110
160
174
133
114
112
101
110
112
58
22
63
133
200
197
128
252
456
292
240
700
258
-2020
-4526
-5269
-3653
-768
1002
872
549
775
744
516
580
667
593
556
548
500
485
496
446
383
441
543
585
768
1052
905
345
90
234
240
108
156
208
132
166
124
-19
387
329
-2227
-5209
-4294
-608
1209
776
586
855
789
716
827
841
811
836
818
761
708
623
535
494
445
339
258
260
261
192
132
152
163
85
14
31
39
1
7
21
-17
6
56
-9
-12
40
-148
-95
336
-790
-4019
-5597
-3102
137
823
277
345
552
436
379
420
402
380
357
295
243
222
213
202
196
222
266
283
254
197
163
170
153
117
137
126
30
51
122
45
91
229
172
606
1211
-596
-4547
-5850
-2821
314
750
233
295
401
304
325
383
356
327
294
257
265
266
228
214
221
216
236
273
261
240
274
328
364
384
371
335
295
242
189
137
60
-2
-10
-39
-108
-132
-94
-35
59
165
259
430
684
857
963
1121
1075
552
-98
-390
-377
-332
-327
-349
-390
-413
-419
-424
-421
-424
-435
-419
-399
-435
-502
-533
-539
-549
-549
-525
-482
-398
-254
-97
20
111
179
191
180
186
156
73
5
-11
4
18
15
25
63
78
58
59
92
108
92
70
69
90
108
107
99
92
84
91
133
175
175
156
159
183
221
254
265
276
280
246
217
242
263
235
207
214
233
229
200
189
206
196
161
169
213
240
236
195
140
131
150
128
93
94
76
14
-2
16
-29
-42
70
203
368
578
468
-44
-379
-297
-200
-246
-268
-271
-310
-328
-334
-369
-392
-387
-384
-391
-399
-401
-398
-399
-405
-401
-384
-359
-328
-301
-278
-245
-214
-207
-223
