# session 122
-33
-56
-109
-158
-168
-160
-149
-100
13
144
245
324
386
399
371
346
312
251
200
183
174
160
152
144
139
134
120
122
142
127
85
86
114
109
75
47
36
41
45
32
14
21
70
135
154
114
81
86
77
49
39
44
59
57
21
72
231
367
589
862
649
-27
-347
-155
-36
-103
-111
-93
-116
-121
-113
-102
-73
-61
-73
-54
-12
17
54
113
170
224
293
363
405
406
364
300
240
169
69
-15
-51
-87
-135
-150
-140
-140
-142
-142
-132
-77
19
113
175
201
265
457
690
842
1024
1301
1347
896
222
-258
-465
-532
-553
-566
-570
-564
-576
-610
-639
-676
-725
-758
-788
-844
-905
-936
-935
-906
-833
-704
-547
-395
-253
-129
-57
-39
-45
-53
-64
-82
-95
-90
-81
-84
-85
-72
-69
-86
-111
-119
-101
-83
-98
-114
-77
-15
9
8
6
-21
-64
-66
-47
-58
-50
8
7
-28
64
201
284
488
658
355
-158
-263
-84
-36
-65
-43
-50
-74
-52
-30
-36
-32
-2
25
25
27
72
137
181
226
305
401
473
506
513
502
465
407
334
253
187
149
119
83
60
61
81
99
100
114
175
233
224
187
177
166
140
141
150
140
142
131
91
124
208
279
498
734
531
63
-99
-2
50
37
-27
13
136
-145
-515
-101
264
-567
-1277
-584
250
260
225
419
425
372
418
436
501
629
628
526
477
450
396
358
348
337
320
303
297
321
352
340
309
335
389
375
316
280
191
-9
-126
-100
-338
-979
-1457
-1434
-1182
-898
-700
-745
-863
-949
-1207
-1433
-1272
-993
-914
-878
-783
-736
-714
-645
-575
-523
-445
-364
-325
-298
-261
-221
-157
-76
-20
24
91
158
189
184
148
97
73
97
126
115
84
70
67
49
17
-8
8
87
217
322
306
176
63
15
-65
-172
-192
-149
-128
-96
-60
-36
80
234
293
360
356
-23
-447
-373
-108
-103
-133
-18
40
30
85
152
169
193
242
275
258
180
95
66
82
148
303
467
509
450
397
368
329
282
253
235
196
149
115
71
24
14
25
29
39
90
187
280
317
336
391
446
465
474
449
376
395
547
660
659
579
429
357
370
81
-511
-811
-711
-699
-845
-779
-403
88
537
886
1180
1508
1735
1597
1181
827
623
458
318
238
189
142
89
33
-28
-122
-256
-379
-463
-545
-634
-677
-674
-692
-740
-744
-691
-654
-663
-663
-612
-540
-502
-520
-543
-511
-460
-443
-410
-317
-217
-129
-18
103
267
620
1122
1276
664
-275
-749
-731
-704
-754
-725
-677
-689
-696
-678
-674
-676
-684
-726
-776
-784
-774
-787
-787
-720
-608
-481
-338
-189
-54
64
144
169
182
218
240
230
232
255
264
261
274
292
305
326
348
369
397
405
378
358
344
302
280
301
304
299
301
258
233
307
407
596
891
869
368
-45
-49
38
25
2
-11
-25
-14
6
21
47
69
72
73
91
124
163
208
257
314
375
424
444
442
416
359
285
209
132
70
49
44
14
-31
-58
-65
-61
-64
-83
-83
-42
-17
-42
-73
-96
-131
-147
-145
-185
-235
-205
-161
-195
-201
-103
-7
68
123
-29
-355
-489
-380
-309
-330
-323
-309
-336
-341
-285
-231
-228
-236
-227
-226
-220
-187
-164
-152
-108
-63
-40
-7
22
11
-22
-88
-196
-261
-236
-193
-177
-156
-123
-129
-178
-220
-242
-256
-230
-144
-39
28
28
-22
-46
-16
15
44
106
150
158
178
179
170
246
357
488
709
714
269
-119
-54
122
161
182
208
239
325
396
429
484
514
498
516
555
569
612
686
700
661
640
630
600
558
489
365
219
102
6
-87
-143
-157
-174
-198
-213
-223
-218
-200
-219
-259
-241
-176
-142
-160
-207
-255
-286
-292
-287
-299
-313
-275
-247
-301
-264
-91
-13
79
357
337
-182
-508
-354
-221
-280
-303
-262
-234
-237
-263
-241
-175
-157
-163
-140
-140
-144
-77
7
30
47
115
181
197
185
157
95
4
-97
-184
-234
-257
-292
-340
-357
-342
-338
-321
-247
-176
-170
-160
-98
-66
-113
-174
-209
-247
-286
-299
-310
-336
-332
-330
-370
-344
-242
-175
6
307
214
-338
-670
-587
-514
-542
-537
-549
-576
-548
-517
-505
-488
-496
-504
-453
-368
-310
-272
-230
-203
-207
-176
-22
209
383
448
467
492
513
517
521
541
563
577
596
631
687
775
905
1063
1210
1340
1499
1682
1823
1936
2051
2033
1774
1437
1210
1031
825
656
505
329
252
279
266
287
353
144
-310
-523
-440
-406
-471
-498
-507
-541
-572
-579
-570
-576
-601
-604
-577
-551
-529
-489
-435
-377
-315
-262
-219
-185
-175
-191
-228
-299
-384
-434
-452
-466
-456
-424
-410
-402
-367
-334
-320
-295
-267
-262
-234
-158
-103
-112
-149
-177
-197
-218
-217
-199
-198
-188
-163
-196
-192
-28
134
248
453
444
-17
-369
-240
-68
-89
-74
-19
-36
-39
-3
-7
-14
35
83
91
102
132
177
238
278
352
502
414
-117
-591
-569
-374
-347
-373
-360
-357
-347
-314
-281
-253
-254
-275
-260
-200
-134
-85
-70
-67
-20
55
88
77
56
48
90
169
229
296
413
501
551
676
858
972
1004
935
644
203
-111
-193
-188
-194
-190
-179
-193
-213
-222
-243
-285
-321
-351
-396
-446
-484
-508
-511
-481
-433
-361
-244
-99
34
148
241
277
248
224
241
247
229
237
259
244
216
220
236
240
246
254
244
241
270
284
246
191
159
140
125
126
142
135
92
31
-31
-28
75
178
308
553
578
130
-293
-272
-134
-155
-186
-168
-175
-175
-149
-131
-119
-100
-78
-39
1
12
30
83
130
163
218
275
299
311
313
270
204
145
82
21
-16
-42
-63
-69
-70
-72
-77
-89
-95
-75
-57
-71
-84
-53
-13
-19
-61
-94
-105
-118
-134
-126
-115
-137
-146
-147
-203
-221
-132
-44
115
398
375
-115
-482
-433
-340
-371
-376
-361
-371
-362
-341
-331
-312
-284
-254
-219
-185
-150
-98
-42
11
68
124
166
193
199
182
147
97
30
-37
-84
-112
-133
-148
-156
-160
-161
-164
-174
-167
-138
-124
-139
-136
-73
19
58
16
-27
-13
2
-21
-19
18
15
2
26
17
27
164
308
410
549
458
0
-294
-154
-13
-53
-53
-19
-42
-42
-6
6
22
56
63
52
66
96
121
153
194
238
299
371
406
393
366
326
250
150
66
13
-21
-50
-72
-72
-59
-47
10
143
276
375
506
649
766
978
1317
1622
1920
2252
2246
1607
721
127
-133
-267
-338
-362
-400
-455
-495
-538
-598
-643
-667
-707
-777
-854
-913
-938
-921
-852
-731
-570
-397
-254
-163
-120
-114
-145
-189
-222
-247
-267
-269
-259
-263
-275
-271
-265
-285
-306
-305
-302
-311
-319
-333
-355
-367
-368
-375
-384
-394
-412
-427
-417
-395
-404
-431
-403
-318
-251
-241
-261
-266
-261
-266
-256
-231
-245
-251
-195
-183
-200
-85
70
171
338
356
-36
-406
-358
-219
-248
-272
-242
-243
-242
-220
-211
-202
-188
-175
-147
-111
-80
-36
17
59
101
154
203
237
251
244
222
188
149
106
58
76
242
484
704
970
1269
1328
1090
946
1095
1244
1276
1380
1471
1339
1140
1064
993
860
759
685
584
519
503
453
401
402
371
310
333
412
540
758
769
348
-65
-75
47
44
38
57
11
-35
-17
-9
-36
-38
-11
0
-2
8
33
69
110
152
199
246
275
280
263
214
138
60
-12
-83
-134
-161
-199
-250
-270
-282
-337
-373
-302
-126
159
463
537
345
151
55
-63
-204
-299
-376
-462
-528
-570
-621
-673
-705
-748
-789
-753
-678
-613
-521
-578
-968
-1328
-1288
-1130
-1153
-1206
-1202
-1244
-1307
-1334
-1356
-1374
-1383
-1410
-1438
-1439
-1439
-1451
-1437
-1381
-1320
-1278
-1244
-1230
-1263
-1325
-1395
-1502
-1647
-1777
-1883
-1979
-2048
-2086
-2111
-2118
-2129
-2153
-2154
-2145
-2116
-1909
-1483
-1048
-650
-75
645
1189
1556
2062
2624
2743
2313
1801
1597
1679
1844
1951
2008
2095
2201
2254
2244
2205
2154
2105
2095
2163
2289
2418
2546
2693
2860
3065
3325
3597
3824
4017
4184
4271
4300
4350
4384
4403
4514
4488
3909
2959
2203
1728
1277
815
444
159
-95
-326
-532
-738
-932
-1071
-1183
-1309
-1407
-1471
-1545
-1602
-1632
-1711
-1804
-1802
-1746
-1742
-1785
-1835
-1868
-1871
-1870
-1875
-1867
-1847
-1813
-1797
-1819
-1754
-1572
-1424
-1221
-915
-983
-1532
-1851
-1671
-1506
-1539
-1520
-1422
-1371
-1337
-1259
-1177
-1140
-1108
-1033
-955
-907
-842
-742
-660
-590
-476
-355
-282
-219
-153
-143
-172
-177
-189
-250
-309
-325
-326
-330
-328
-314
-285
-253
-234
-223
-192
-145
-124
-125
-95
-24
28
32
27
47
71
72
77
122
149
129
147
189
185
228
345
462
694
939
708
140
-62
113
180
138
166
190
176
180
185
183
186
197
224
234
214
236
309
353
379
437
481
483
488
496
476
416
303
187
133
80
43
180
402
446
385
458
625
757
870
983
1071
1127
1133
1072
963
825
670
528
416
325
250
200
146
81
52
19
-72
-97
-25
5
235
919
1433
1152
602
435
431
303
179
84
-36
-38
87
116
29
1
18
-30
-102
-134
-154
-158
-109
-41
4
40
72
98
107
58
-47
-137
-193
-246
-286
-308
-338
-365
-371
-372
-383
-397
-409
-411
-398
-400
-427
-428
-388
-367
-396
-443
-476
-491
-503
-521
-530
-536
-547
-539
-542
-572
-531
-417
-313
-151
-11
-213
-609
-696
-507
-400
-391
-361
-344
-357
-369
-372
-333
-243
-161
-126
-115
-108
-105
-94
-57
-9
41
102
157
177
166
141
106
51
-33
-126
-187
-213
-235
-264
-289
-287
-257
-239
-227
-163
-48
70
193
356
609
926
1146
1253
1464
1738
1689
1193
569
115
-140
-281
-361
-407
-462
-539
-597
-621
-666
-745
-820
-881
-937
-974
-1016
-1063
-974
-674
-306
18
288
431
449
456
456
389
300
234
187
160
131
108
165
273
317
308
366
517
653
704
720
766
818
805
741
705
655
559
602
795
865
861
914
690
164
-68
72
107
-10
-62
-106
-204
-282
-338
-386
-428
-505
-580
-569
-503
-436
-337
-187
1
232
465
648
780
863
898
873
738
525
344
218
218
368
395
239
295
505
333
-146
-397
-374
-337
-343
-373
-441
-511
-561
-594
-597
-589
-593
-587
-557
-543
-556
-544
-484
-439
-471
-585
-747
-906
-1041
-1179
-1275
-1231
-1081
-868
-587
-492
-782
-1022
-831
-534
-416
-294
-111
15
134
268
364
495
704
899
1058
1169
1187
1232
1418
1609
1665
1634
1576
1499
1456
1493
1541
1519
1482
1501
1506
1469
1486
1476
1197
675
206
-47
-145
-176
-204
-306
-511
-788
-1102
-1417
-1697
-1939
-2159
-2354
-2481
-2516
-2521
-2563
-2618
-2671
-2734
-2694
-2459
-2141
-1856
-1594
-1382
-1246
-1111
-942
-761
-562
-457
-629
-993
-1239
-1222
-1031
-766
-446
-115
94
157
253
464
675
822
944
1016
996
912
836
825
883
961
1020
1046
1038
1020
1008
1002
1060
1234
1452
1654
1835
1938
1977
2093
2299
2478
2620
2747
2810
2847
2859
2582
1848
965
376
166
34
-313
-761
-988
-992
-1014
-1125
-1283
-1496
-1589
-1303
-886
-923
-1321
-1382
-960
-471
27
697
1515
2420
3054
3064
2996
3276
3089
2110
1405
1403
1359
1012
708
451
127
-165
-387
-588
-747
-854
-936
-993
-1032
-1060
-1057
-1041
-1056
-1091
-1114
-1138
-1183
-1233
-1266
-1290
-1327
-1350
-1340
-1355
-1362
-1219
-972
-849
-880
-902
-875
-857
-832
-775
-742
-751
-732
-671
-631
-629
-638
-647
-647
-637
-616
-590
-575
-547
-492
-493
-481
-292
-74
18
139
154
-231
-628
-551
-310
-283
-305
-243
-205
-197
-172
-153
-135
-99
-63
-25
21
64
113
186
265
338
422
519
584
573
498
417
326
197
81
20
-30
-79
-95
-100
-101
-44
34
33
-2
23
46
-3
-39
-10
23
33
20
-38
-99
-117
-106
-61
15
82
176
288
293
321
590
888
1062
1344
1461
889
97
-141
2
72
107
196
262
297
330
345
344
337
305
254
212
157
84
63
101
102
52
31
72
141
207
257
288
299
308
319
296
235
204
222
213
154
113
103
71
36
41
47
28
35
74
82
55
29
7
-24
-54
-70
-79
-91
-90
-77
-88
-85
13
135
245
443
508
140
-269
-226
-9
21
23
96
106
81
103
117
102
86
55
27
37
50
50
76
138
202
267
339
400
419
386
313
223
128
32
-60
-128
-166
-188
-203
-214
-231
-254
-271
-274
-254
-217
-194
-203
-195
-152
-134
-162
-201
-249
-261
-146
38
180
413
915
1511
1838
1790
1546
1273
1094
1121
1131
710
64
-221
-178
-226
-361
-409
-450
-553
-642
-686
-668
-613
-679
-766
-398
363
760
583
391
427
458
422
425
468
517
521
411
197
-40
-263
-474
-665
-826
-956
-1049
-1117
-1169
-1190
-1193
-1184
-1126
-1066
-1070
-996
-777
-640
-629
-554
-557
-890
-1395
-1821
-2147
-2362
-2456
-2506
-2548
-2584
-2642
-2705
-2733
-2758
-2820
-2904
-2991
-3075
-3153
-3241
-3319
-3326
-3247
-3107
-2922
-2803
-2779
-2561
-2013
-1511
-1255
-901
-277
350
825
1240
1643
2001
2306
2572
2813
3033
3232
3415
3587
3735
3829
3877
3933
4006
4045
4049
4075
4131
4166
4172
4205
4276
4306
4271
4262
4314
4331
4279
4239
4224
4184
4168
4115
3723
2986
2357
1975
1516
1035
848
770
601
598
542
-133
-1010
-1301
-1242
-1353
-1492
-1522
-1627
-1770
-1761
-1676
-1695
-1792
-1833
-1831
-1902
-2017
-2050
-1996
-1935
-1879
-1821
-1807
-1885
-2028
-2181
-2341
-2517
-2681
-2824
-2956
-3088
-3259
-3435
-3482
-3445
-3439
-3251
-2645
-1847
-1182
-643
-147
284
674
1078
1466
1757
1949
2118
2192
1951
1403
865
558
425
352
298
265
258
