# session 152
-1
45
86
137
193
243
295
356
403
407
376
334
278
192
104
54
27
-6
-39
-51
-40
-28
-35
-46
-28
23
70
74
40
-1
-24
-17
-3
-16
-44
-35
-5
-29
-53
45
178
255
391
452
144
-251
-285
-141
-119
-129
-113
-124
-117
-99
-121
-125
-96
-98
-99
-61
-37
-33
0
59
117
161
187
218
238
193
118
57
-27
-121
-163
-182
-218
-245
-251
-244
-220
-203
-207
-181
-100
-30
-21
-54
-89
-107
-114
-113
-105
-112
-118
-97
-106
-125
-17
138
204
314
392
115
-270
-274
-93
-90
-129
-70
-42
-83
-97
-63
-34
-32
-25
3
26
38
72
122
172
241
329
388
392
358
321
297
255
166
73
39
25
-21
-47
-15
2
-23
-25
4
28
75
153
173
104
56
63
31
-21
3
33
5
0
14
7
43
95
217
607
904
522
-124
-269
-107
-95
-144
-129
-104
-71
-75
-115
-87
-38
-70
-87
-36
-10
-3
47
85
81
104
158
176
168
165
133
67
3
-52
-102
-151
-208
-229
-198
-209
-272
-272
-222
-225
-254
-234
-186
-185
-268
-352
-342
-321
-390
-481
-483
-406
-389
-496
-546
-447
-283
82
528
401
-178
-256
120
139
-122
-177
-88
28
157
188
348
878
1324
1300
1107
923
706
755
1091
1198
974
747
570
396
278
142
-52
-203
-317
-452
-568
-649
-727
-791
-832
-866
-901
-943
-977
-956
-846
-729
-778
-917
-804
-455
-311
-443
-533
-541
-570
-526
-404
-285
-123
59
198
331
340
139
31
182
331
368
425
498
541
578
580
543
546
586
590
567
555
524
438
322
212
124
66
36
14
-33
-108
-184
-244
-287
-299
-275
-187
-68
-58
-154
-167
-67
68
246
354
278
174
131
30
-104
-159
-168
-187
-211
-230
-227
-215
-234
-229
-122
16
133
288
333
67
-242
-221
-27
46
41
59
78
95
127
161
193
225
247
248
239
242
258
265
264
281
324
381
426
435
417
398
368
306
238
200
182
160
135
119
94
54
43
61
61
68
115
132
69
-16
-91
-177
-256
-299
-332
-368
-338
-260
-261
-266
-105
112
318
601
641
136
-369
-370
-220
-249
-279
-224
-184
-164
-141
-136
-142
-159
-189
-222
-245
-251
-258
-265
-234
-178
-152
-129
-79
-55
-71
-84
-112
-184
-248
-272
-287
-298
-303
-322
-330
-286
-245
-253
-247
-178
-99
-58
-57
-82
-108
-126
-129
-101
-87
-116
-92
-27
-61
-70
96
234
305
461
396
-48
-294
-119
-3
-68
-52
13
11
5
18
21
24
35
65
106
127
130
156
223
312
367
360
364
407
413
357
296
229
128
40
8
-10
-51
-81
-75
-54
-37
-32
-41
-46
-23
17
34
1
-61
-113
-138
-138
-129
-152
-194
-191
-172
-197
-168
-70
6
230
569
452
-145
-445
-290
-220
-303
-285
-233
-233
-186
-87
-11
35
50
35
13
-3
-5
23
68
116
171
233
333
461
500
428
366
320
204
79
28
10
-18
-41
-69
-91
-56
-12
-38
-76
-29
52
75
69
84
84
49
47
99
111
89
144
209
197
222
334
500
807
1050
774
195
-56
-7
-36
-120
-145
-177
-214
-217
-236
-282
-306
-288
-239
-186
-147
-96
-19
50
108
184
260
306
333
331
284
209
129
46
-34
-97
-142
-179
-213
-247
-267
-258
-248
-273
-290
-250
-209
-235
-285
-299
-302
-324
-327
-294
-277
-275
-254
-269
-301
-231
-129
-72
71
158
-117
-466
-450
-281
-260
-277
-247
-239
-224
-188
-179
-167
-121
-73
-35
2
28
53
93
137
186
243
286
304
314
307
269
221
174
119
66
32
23
27
14
-8
-4
9
1
-2
32
90
138
141
99
68
60
39
35
70
68
40
66
64
13
81
243
382
577
647
268
-201
-234
-62
-42
-69
-46
-45
-63
-68
-67
-56
-47
-45
-33
-16
-1
22
56
104
158
199
234
259
247
201
147
77
-9
-80
-126
-161
-188
-205
-210
-205
-203
-191
-161
-153
-170
-135
-51
-8
-30
-66
-96
-119
-122
-103
-92
-95
-75
-68
-113
-72
99
200
269
431
341
-120
-367
-202
-91
-155
-144
-87
-103
-116
-87
-85
-100
-69
-24
-22
-26
1
33
75
145
212
250
272
287
295
279
217
135
70
15
-29
-46
-61
-78
-75
-54
3
92
146
228
464
730
945
1320
1723
1556
788
81
-244
-383
-460
-483
-509
-529
-520
-525
-539
-538
-557
-592
-602
-616
-644
-624
-558
-495
-402
-247
-91
19
110
175
178
144
126
111
77
46
38
44
48
46
40
33
19
10
26
35
8
-4
21
25
0
-8
-23
-70
-99
-81
-54
-48
-47
-15
42
67
38
-1
-15
-23
-33
-39
-57
-76
-63
-67
-87
-35
46
119
308
447
185
-232
-307
-155
-114
-140
-120
-100
-96
-87
-84
-83
-63
-34
-20
-22
-13
21
56
82
121
170
191
200
226
240
216
185
151
96
44
10
-24
-46
-42
-48
-77
-78
-43
-26
-44
-41
4
35
20
-8
-20
-24
-30
-18
7
-8
-39
-13
7
-38
-11
145
351
601
727
429
-55
-204
-93
-61
-85
-66
-69
-90
-84
-82
-94
-96
-91
-86
-78
-72
-69
-60
-47
-35
-12
28
58
74
100
137
149
124
92
63
32
8
7
11
-6
-32
-29
-2
-1
-10
22
73
88
69
46
16
-22
-41
-38
-40
-38
-5
9
-3
95
295
436
607
814
612
-8
-358
-261
-196
-265
-262
-228
-251
-264
-242
-238
-249
-240
-229
-244
-255
-241
-239
-246
-215
-158
-111
-71
-21
35
66
52
23
-4
-41
-77
-92
-105
-126
-130
-128
-124
-103
-112
-153
-129
-44
-5
-16
-31
-56
-78
-87
-92
-73
-58
-67
-36
-8
-53
2
203
297
287
292
93
-262
-317
-97
-8
-67
-76
-42
-46
-73
-52
8
15
-25
-4
64
91
101
146
200
261
354
419
415
404
402
348
234
122
51
13
-17
-53
-84
-89
-64
-31
-21
-7
44
72
76
185
377
487
564
728
892
1061
1371
1573
1252
551
-15
-264
-352
-398
-429
-444
-429
-420
-461
-514
-544
-570
-592
-618
-683
-751
-748
-707
-701
-687
-585
-430
-287
-139
-14
20
18
60
88
53
26
37
28
-5
-5
21
28
26
37
37
15
9
20
4
-16
3
16
-15
-25
24
82
109
104
84
51
-10
-51
-19
23
31
46
24
-32
18
134
265
586
842
485
-166
-364
-220
-191
-229
-210
-217
-235
-210
-190
-176
-144
-126
-120
-99
-77
-53
-6
42
92
157
193
201
250
300
271
207
170
122
48
-4
-19
-29
-47
-63
-67
-50
-32
-39
-35
13
56
44
17
9
-10
-46
-55
-33
-32
-56
-53
-60
-120
-103
17
79
207
523
550
73
-277
-189
-85
-110
-86
-62
-101
-105
-75
-73
-72
-50
-24
3
25
38
69
115
148
178
227
268
281
276
251
204
150
95
53
30
1
-36
-51
-47
-52
-62
-52
-37
-42
-42
-10
28
33
10
-14
-29
-40
-37
-19
-24
-54
-58
-66
-115
-116
-64
7
217
434
253
-186
-345
-231
-176
-193
-182
-173
-177
-167
-155
-151
-160
-173
-167
-138
-111
-91
-64
-16
48
108
150
182
208
215
200
172
134
90
55
39
33
23
14
8
-4
-11
3
11
-1
1
35
58
35
-14
-48
-60
-79
-101
-105
-117
-140
-133
-128
-151
-112
-3
100
205
200
-83
-384
-359
-192
-169
-199
-168
-143
-146
-143
-136
-124
-103
-89
-68
-23
21
48
76
127
193
235
260
306
344
334
295
232
141
62
16
-15
-28
-22
-21
-27
-22
-6
11
20
21
35
74
112
110
66
28
16
3
-8
2
-6
-24
-9
-21
-46
49
189
293
498
582
177
-304
-309
-124
-122
-149
-112
-117
-121
-89
-88
-103
-87
-71
-61
-35
-4
21
60
121
180
220
262
309
318
280
238
191
105
10
-49
-85
-112
-124
-129
-146
-153
-129
-108
-120
-138
-110
-48
-20
-40
-58
-73
-123
-178
-181
-160
-174
-191
-157
-153
-198
-142
-15
71
303
594
389
-186
-396
-233
-180
-222
-192
-180
-205
-192
-174
-171
-153
-135
-137
-126
-96
-69
-35
14
63
114
169
215
248
255
224
182
133
50
-28
-45
-32
-41
-60
-70
-76
-62
-23
-12
-16
56
180
261
381
599
752
852
1131
1400
1219
658
129
-205
-365
-387
-380
-418
-450
-445
-443
-468
-497
-507
-521
-557
-582
-586
-594
-583
-514
-396
-258
-124
-6
103
186
207
183
159
139
117
98
88
78
65
58
69
81
69
48
49
61
55
43
47
42
10
-9
9
30
37
50
72
96
114
104
65
35
27
36
60
59
30
33
50
30
50
125
178
294
440
297
-96
-265
-145
-74
-110
-108
-87
-103
-119
-116
-116
-123
-115
-91
-73
-58
-23
21
54
93
148
200
239
262
268
258
236
194
135
76
41
25
0
-30
-46
-56
-69
-54
-3
31
37
69
170
335
510
629
756
990
1120
814
212
-222
-364
-417
-462
-471
-472
-488
-497
-502
-511
-526
-549
-569
-581
-606
-643
-647
-611
-556
-464
-322
-168
-40
48
85
85
72
46
9
-13
-14
-14
-23
-22
-1
18
15
4
15
31
21
1
-4
2
3
-15
-40
-45
-38
-49
-49
0
61
97
117
120
100
89
103
128
143
135
135
149
119
115
226
346
523
863
901
310
-225
-178
-24
-89
-112
-51
-72
-105
-76
-59
-67
-64
-60
-53
-22
10
26
57
114
178
237
285
311
314
309
284
215
119
40
-19
-75
-104
-103
-117
-152
-164
-144
-120
-110
-113
-91
-22
46
46
-23
-83
-81
-66
-82
-83
-69
-84
-91
-91
-115
-63
82
215
381
473
176
-291
-391
-217
-159
-187
-161
-144
-156
-149
-136
-133
-120
-112
-127
-128
-90
-50
-21
32
97
153
210
254
259
236
193
127
48
-26
-80
-102
-105
-106
-109
-123
-129
-104
-74
-65
-51
4
104
216
300
394
548
704
849
1093
1363
1347
909
281
-208
-434
-501
-544
-575
-565
-547
-557
-574
-590
-624
-670
-704
-723
-722
-715
-726
-722
-656
-535
-376
-195
-53
31
106
170
177
149
124
98
85
93
92
71
66
76
70
72
106
123
94
73
68
34
12
56
91
59
46
98
135
114
73
49
48
45
24
20
43
60
68
68
72
135
210
250
370
465
219
-165
-209
-38
-15
-61
-32
-15
-33
-28
-23
-33
-20
13
32
39
55
84
124
180
238
273
298
335
364
358
332
298
247
190
140
92
55
38
29
19
10
9
26
41
27
16
52
96
80
28
2
-2
-26
-55
-54
-51
-63
-61
-74
-110
-88
-23
62
268
423
177
-246
-348
-224
-203
-232
-209
-212
-243
-246
-234
-218
-189
-171
-168
-160
-151
-152
-135
-88
-39
0
43
85
103
95
66
17
-32
-66
-93
-118
-135
-141
-144
-156
-169
-158
-128
-122
-140
-119
-60
-40
-74
-108
-126
-141
-143
-128
-120
-128
-115
-90
-109
-119
-26
87
137
156
48
-221
-366
-249
-117
-104
-106
-90
-84
-76
-72
-62
-25
-4
-15
6
61
88
97
134
193
247
292
330
362
369
338
287
245
203
151
114
101
96
100
105
85
70
112
153
132
107
136
168
155
119
83
61
61
76
103
120
122
167
242
265
368
692
908
623
73
-223
-205
-150
-165
-173
-155
-152
-167
-177
-187
-207
-223
-224
-224
-236
-241
-235
-236
-231
-193
-135
-88
-45
6
38
34
21
28
35
7
-37
-51
-38
-38
-53
-63
-72
-79
-65
-40
-43
-59
-36
8
-1
-49
-65
-70
-109
-127
-98
-108
-134
-97
-95
-153
-95
33
103
297
499
229
-291
-412
-237
-196
-230
-200
-183
-191
-179
-170
-159
-134
-118
-110
-85
-55
-25
18
70
126
194
257
293
318
326
283
196
102
23
-24
-38
-42
-49
-51
-51
-49
-47
-63
-76
-49
5
57
88
74
28
7
16
15
24
76
147
211
260
318
448
632
853
1174
1350
937
170
-248
-249
-242
-294
-283
-269
-299
-323
-332
-346
-369
-385
-380
-378
-407
-438
-448
-453
-457
-435
-375
-295
-216
-140
-68
-24
-11
-3
1
-14
-25
-9
3
-16
-23
8
40
46
54
86
127
149
140
110
80
61
55
60
61
59
66
46
15
59
139
240
514
762
514
-29
-234
-109
-55
-103
-119
-113
-94
-60
-55
-85
-104
-88
-49
-14
-1
1
28
81
123
150
185
217
221
215
199
141
57
1
-14
-15
-22
-45
-83
-122
-149
-158
-141
-106
-87
-80
-45
4
9
-30
-60
-65
-67
-70
-64
-65
-73
-61
-57
-90
-72
14
97
225
331
145
-219
-321
-178
-114
-141
-135
-119
-117
-104
-95
-92
-80
-63
-45
-23
3
38
75
102
138
199
249
266
270
266
235
177
114
62
19
-26
-60
-64
-67
-102
-116
-79
-32
27
115
217
421
733
929
1061
1401
1642
1260
501
-61
-336
-458
-475
-466
-476
-475
-474
-497
-528
-558
-599
-643
-680
-708
-743
-777
-761
-665
-517
-354
-192
-48
64
128
131
103
90
81
61
48
36
14
6
20
25
18
13
4
-7
0
10
4
1
8
-7
-39
-42
-21
-23
-43
-10
80
146
149
142
165
203
238
246
262
397
616
788
903
813
230
-558
-879
-713
-523
-410
-276
-208
-230
-237
-231
-245
-239
-212
-211
-219
-195
-155
-126
-81
-5
84
168
249
315
358
383
379
333
272
230
185
128
102
110
99
75
80
100
92
73
81
104
107
89
