# session 139
-10
-11
25
49
24
33
82
39
-31
76
255
383
619
755
362
-187
-265
-93
-88
-120
-73
-69
-91
-78
-85
-108
-101
-99
-115
-101
-71
-70
-67
-23
39
99
166
230
270
287
283
260
229
195
146
84
30
-10
-30
-34
-46
-75
-95
-95
-84
-66
-69
-90
-62
6
21
-27
-73
-101
-122
-131
-133
-140
-144
-120
-91
-113
-131
-47
75
187
295
197
-162
-368
-240
-115
-132
-111
-52
-61
-69
-34
-93
-271
-380
-346
-296
-280
-240
-184
-141
-84
-4
76
145
206
259
286
264
212
171
129
64
15
4
-7
-25
-15
-1
-16
-15
34
98
149
199
316
569
834
947
1047
1223
1162
710
207
-76
-210
-276
-293
-302
-320
-327
-330
-344
-369
-388
-399
-423
-464
-495
-507
-506
-482
-414
-321
-220
-101
26
128
206
267
275
227
179
159
145
130
120
110
100
93
90
87
80
73
64
44
21
13
15
5
-16
-41
-83
-131
-137
-114
-124
-145
-104
-35
-17
-42
-59
-61
-65
-64
-46
-41
-56
-45
-32
-63
-39
72
168
307
458
273
-191
-380
-225
-131
-170
-174
-164
-187
-197
-190
-183
-174
-173
-182
-163
-118
-94
-86
-47
14
63
117
191
249
277
300
311
290
252
208
146
80
37
22
18
4
-26
-53
-51
-28
-23
-43
-30
30
67
56
33
2
-33
-44
-51
-69
-78
-63
-23
-16
-52
2
161
276
413
565
358
-144
-326
-150
-82
-141
-127
-103
-124
-120
-100
-100
-111
-108
-80
-49
-30
-1
37
73
131
207
261
312
376
409
390
332
251
172
99
15
-49
-66
-87
-118
-112
-99
-119
-123
-101
-108
-115
-58
6
7
-22
-31
-35
-58
-89
-100
-97
-108
-101
-76
-106
-111
27
178
281
422
368
-40
-350
-275
-144
-157
-176
-174
-194
-203
-208
-220
-213
-201
-204
-195
-168
-143
-118
-80
-31
27
90
153
208
247
260
241
199
141
71
-1
-54
-81
-99
-114
-118
-128
-152
-150
-119
-109
-120
-104
-53
-3
15
-6
-47
-81
-99
-99
-89
-91
-86
-46
-38
-74
-19
102
179
342
523
321
-129
-265
-122
-77
-96
-52
-40
-73
-76
-63
-61
-47
-31
-35
-47
-35
-2
33
70
117
164
203
240
276
309
325
299
248
203
154
94
48
21
2
0
9
-7
-39
-28
18
40
64
150
270
434
655
819
947
1226
1474
1267
681
147
-181
-361
-409
-404
-438
-478
-483
-485
-498
-504
-514
-547
-585
-611
-633
-650
-640
-612
-575
-490
-336
-179
-68
29
122
175
178
160
136
94
42
25
49
56
29
11
20
25
18
16
20
16
3
-1
8
-2
-46
-74
-58
-51
-84
-95
-52
-13
-19
-43
-59
-63
-61
-57
-52
-42
-23
-5
-20
-29
37
128
203
294
262
-23
-280
-236
-99
-100
-143
-132
-126
-141
-141
-126
-123
-131
-130
-110
-81
-52
-26
3
40
86
135
181
227
278
313
313
293
259
208
158
121
86
50
22
10
9
7
9
48
95
83
48
77
125
101
40
16
0
-45
-74
-61
-59
-86
-93
-92
-106
-69
30
146
295
339
73
-266
-286
-125
-92
-127
-107
-92
-109
-116
-114
-110
-107
-111
-110
-90
-59
-32
-11
26
94
166
213
254
311
353
351
318
266
192
106
34
-6
-28
-44
-42
-30
-50
-88
-75
-29
-10
43
180
346
549
790
945
1070
1396
1721
1526
804
80
-306
-428
-461
-487
-505
-499
-483
-493
-537
-587
-610
-628
-679
-736
-761
-783
-829
-857
-826
-750
-642
-489
-310
-153
-35
43
73
57
25
2
-8
-15
-28
-40
-34
-17
-13
-25
-24
-9
-4
-10
-13
-14
-21
-30
-36
-30
-24
-35
-37
13
84
106
78
43
22
6
1
12
13
13
38
23
-26
55
221
344
575
785
461
-159
-330
-138
-88
-130
-99
-101
-140
-132
-114
-123
-117
-79
-50
-51
-52
-35
-12
18
60
112
192
286
326
305
287
286
267
220
156
97
67
50
21
6
8
-13
-26
28
102
151
209
316
511
769
951
1066
1274
1402
1103
511
43
-201
-329
-375
-381
-398
-414
-416
-430
-456
-470
-475
-497
-527
-548
-575
-597
-571
-506
-437
-342
-200
-56
49
127
186
199
157
107
93
83
43
17
25
22
12
27
29
9
10
15
-5
-14
-11
-25
-32
-26
-48
-78
-57
-11
-11
-39
-31
2
-1
-44
-74
-81
-85
-84
-75
-83
-88
-61
-57
-77
-16
93
159
266
338
111
-240
-300
-156
-113
-136
-118
-112
-131
-133
-128
-130
-123
-110
-97
-78
-55
-36
-14
19
56
94
143
200
242
257
259
260
249
212
159
102
46
0
-25
-39
-52
-64
-64
-50
-36
-37
-37
-9
30
36
10
-14
-24
-38
-48
-43
-52
-71
-56
-51
-84
-37
87
179
328
460
217
-236
-338
-155
-111
-162
-129
-94
-109
-107
-94
-102
-99
-73
-51
-42
-27
-1
10
7
44
133
208
244
283
310
292
261
229
158
64
-6
-51
-81
-83
-66
-70
-100
-108
-87
-85
-108
-96
-33
25
29
-5
-28
-46
-78
-81
-52
-56
-63
-34
-64
-89
56
215
272
403
438
67
-314
-265
-107
-128
-143
-94
-97
-113
-99
-106
-120
-104
-90
-94
-80
-51
-45
-38
2
57
115
186
253
291
300
280
231
163
86
12
-38
-68
-94
-108
-102
-100
-106
-86
-33
29
96
198
392
681
926
1079
1329
1657
1643
1079
308
-239
-459
-502
-524
-561
-582
-570
-553
-572
-615
-633
-638
-678
-734
-765
-790
-823
-831
-789
-696
-556
-388
-221
-77
38
120
156
137
101
83
68
59
79
79
28
2
35
59
46
32
39
46
36
25
31
38
23
14
35
49
17
-11
31
106
133
103
63
49
48
39
33
38
48
62
46
25
99
208
295
534
776
522
-34
-210
-46
-1
-48
-21
-9
-38
-37
-32
-42
-36
-25
-27
-25
-8
16
34
53
103
169
196
189
213
274
300
268
238
224
170
95
54
27
-1
-10
-30
-55
-44
-35
-53
-48
-34
-39
-10
29
-8
-67
-71
-73
-100
-90
-71
-104
-128
-120
-160
-187
-114
-15
136
348
298
-91
-336
-248
-156
-176
-167
-131
-128
-132
-124
-114
-108
-102
-90
-79
-74
-60
-32
-1
33
76
117
153
194
221
220
199
163
108
49
3
-33
-59
-64
-56
-67
-96
-100
-71
-53
-62
-53
-11
14
-4
-37
-54
-62
-82
-98
-87
-81
-89
-76
-79
-110
-60
49
141
332
482
204
-272
-373
-213
-187
-226
-195
-186
-205
-197
-194
-198
-168
-122
-91
-57
-16
13
46
108
164
199
250
312
334
327
324
304
247
175
102
35
3
0
-9
-33
-50
-59
-55
-26
-8
-29
-24
46
95
74
40
26
7
-7
-1
-8
-37
-24
15
-13
-27
96
225
314
514
570
170
-250
-224
-69
-102
-151
-117
-91
-80
-77
-94
-101
-88
-76
-61
-51
-59
-53
-16
23
61
116
175
214
230
236
222
166
82
7
-54
-115
-158
-166
-163
-176
-187
-176
-155
-140
-136
-132
-110
-68
-26
-13
-50
-111
-140
-140
-143
-147
-152
-154
-134
-133
-131
-37
73
162
367
461
104
-317
-315
-160
-176
-199
-145
-131
-148
-139
-128
-123
-114
-97
-79
-73
-64
-27
21
64
110
147
180
239
295
303
284
259
202
113
42
-1
-45
-80
-72
-41
-41
-50
0
68
87
128
235
351
514
737
864
947
1179
1285
898
310
-32
-182
-295
-338
-342
-377
-401
-392
-403
-430
-442
-456
-488
-522
-552
-577
-583
-575
-553
-491
-385
-269
-154
-24
96
159
167
164
163
132
83
69
90
95
81
66
51
60
90
87
48
34
49
51
35
16
1
-8
-4
13
25
19
31
71
84
57
30
6
-27
-42
-29
-29
-49
-43
-30
-48
-28
55
131
242
350
189
-176
-309
-173
-94
-122
-123
-110
-118
-126
-131
-132
-124
-113
-104
-88
-67
-46
-22
7
43
89
142
192
234
259
268
273
260
212
151
99
50
6
-22
-34
-39
-61
-83
-49
12
35
74
179
317
514
740
865
1027
1377
1506
1024
292
-186
-401
-490
-489
-465
-463
-461
-463
-482
-498
-511
-531
-554
-591
-652
-707
-729
-724
-697
-623
-495
-345
-203
-64
68
149
154
130
123
111
78
54
46
38
39
55
66
66
66
67
69
82
98
101
90
68
46
53
75
63
32
44
102
162
175
131
82
71
79
79
66
37
44
89
63
28
154
306
408
668
800
333
-246
-273
-86
-124
-190
-159
-166
-192
-178
-173
-177
-158
-144
-142
-130
-107
-79
-47
-6
49
113
173
226
267
288
287
259
208
149
83
12
-44
-73
-92
-110
-121
-116
-103
-97
-92
-70
-37
0
44
55
8
-28
-24
-51
-102
-107
-97
-113
-105
-98
-127
-86
19
75
216
434
299
-166
-371
-261
-228
-266
-236
-219
-228
-211
-208
-206
-175
-160
-157
-119
-86
-79
-49
10
62
125
214
292
329
336
327
293
228
156
96
37
-10
-23
-25
-38
-37
-18
-4
8
33
51
50
56
91
124
102
50
36
40
7
-21
-11
-1
15
30
7
8
79
178
359
527
338
-111
-294
-176
-120
-162
-155
-136
-153
-162
-150
-139
-137
-140
-142
-137
-133
-134
-127
-94
-42
9
51
98
155
191
195
184
160
117
67
27
-4
-26
-37
-38
-41
-53
-58
-33
4
42
97
171
292
501
684
764
927
1161
1041
485
-34
-260
-346
-393
-393
-390
-405
-419
-429
-440
-453
-469
-485
-508
-541
-564
-569
-567
-548
-496
-417
-320
-215
-106
14
110
141
130
102
53
22
28
13
-20
-12
15
6
0
26
46
42
40
47
48
47
48
45
28
7
11
30
23
8
40
86
89
64
46
35
22
6
-5
-7
7
44
51
14
69
209
316
560
890
706
28
-300
-128
-38
-105
-81
-51
-82
-74
-55
-75
-67
-17
9
-3
-14
14
70
106
119
152
214
275
324
357
367
347
304
255
182
83
11
-19
-56
-95
-111
-139
-167
-138
-86
-51
14
140
351
653
896
1000
1156
1331
1143
542
-41
-349
-477
-529
-523
-511
-532
-556
-553
-559
-595
-624
-642
-686
-744
-778
-797
-815
-819
-781
-676
-528
-384
-234
-68
50
87
101
114
87
41
32
37
19
7
29
47
43
37
32
31
46
53
36
29
38
26
1
-7
-3
17
50
57
48
82
126
111
86
91
61
4
21
60
35
41
98
74
68
221
370
520
759
671
105
-257
-126
2
-54
-67
-40
-57
-68
-58
-55
-58
-56
-40
-16
-4
10
44
81
114
159
215
270
311
336
358
360
315
257
217
164
103
70
44
16
9
-1
-22
-2
39
33
3
19
84
123
76
-5
-28
-18
-33
-33
-20
-63
-112
-96
-92
-113
-81
-5
175
464
478
36
-344
-329
-243
-292
-306
-248
-230
-261
-294
-324
-345
-342
-314
-279
-252
-229
-185
-123
-72
-27
36
93
128
159
177
153
106
57
2
-52
-88
-101
-100
-102
-111
-112
-107
-94
-63
-46
-54
-34
19
36
10
-17
-41
-60
-61
-52
-53
-63
-57
-44
-71
-84
-3
102
192
278
173
-167
-362
-251
-137
-152
-152
-117
-109
-104
-94
-98
-101
-97
-96
-77
-41
-12
11
52
109
171
239
302
352
394
416
401
363
313
247
176
127
99
83
71
54
38
34
39
52
75
103
156
256
374
492
637
799
960
1212
1529
1567
1075
337
-174
-369
-422
-432
-435
-463
-483
-473
-479
-515
-543
-568
-615
-666
-700
-734
-772
-779
-740
-683
-601
-462
-306
-181
-57
58
102
98
100
77
32
27
40
18
-11
-7
2
1
12
25
9
-9
5
21
-4
-36
-23
2
-26
-63
-23
50
62
29
2
-19
-33
-29
-26
-40
-37
-4
-15
-49
43
195
292
481
632
323
-194
-307
-138
-104
-145
-123
-111
-120
-115
-118
-118
-94
-70
-64
-61
-48
-20
14
48
90
144
200
244
278
304
303
270
228
181
110
23
-42
-72
-81
-86
-99
-119
-115
-75
-27
29
126
282
511
774
993
1212
1521
1741
1533
890
189
-252
-425
-488
-538
-560
-558
-585
-626
-638
-640
-663
-697
-733
-759
-772
-786
-785
-723
-613
-500
-375
-222
-80
23
90
116
102
82
73
69
66
66
74
86
87
86
97
98
81
69
72
81
86
81
67
54
38
27
31
35
33
54
104
141
131
91
60
46
39
51
64
57
66
66
17
42
169
241
342
573
539
74
-260
-177
-62
-95
-108
-96
-116
-109
-83
-97
-116
-102
-81
-70
-50
-26
-23
-31
-8
44
92
135
183
209
211
211
203
176
143
105
64
41
27
15
21
32
16
6
40
60
35
28
69
96
69
8
-41
-57
-63
-80
-88
-85
-86
-93
-108
-99
-31
76
204
292
150
-190
-356
-236
-117
-122
-131
-114
-118
-136
-143
-136
-124
-128
-133
-116
-87
-65
-40
1
58
114
154
190
236
262
243
207
170
111
32
-31
-71
-100
-114
-116
-122
-138
-142
-117
-87
-93
-108
-78
-25
-10
-43
-86
-105
-111
-123
-123
-118
-133
-123
-103
-135
-117
28
170
322
494
341
-149
-383
-214
-102
-162
-167
-112
-103
-123
-129
-115
-101
-104
-93
-48
-20
-21
-2
49
104
153
213
284
328
333
332
327
279
205
143
78
7
-33
-27
-6
-10
-51
-83
-58
-17
-23
-51
-15
75
110
56
9
10
-10
-47
-35
-9
-5
29
45
18
111
307
405
485
545
292
-42
-14
