# session 124
-40
-36
-60
-68
-48
-51
-83
-92
-87
-99
-108
-105
-128
-168
-197
-217
-210
-178
-181
-208
-170
-110
-126
-165
-161
-160
-193
-223
-228
-224
-231
-222
-197
-225
-232
-103
40
164
394
415
-58
-480
-403
-222
-229
-233
-194
-202
-203
-184
-182
-159
-118
-105
-103
-76
-49
-28
23
105
178
243
323
391
428
454
460
411
325
240
156
79
33
-2
-39
-41
-17
-31
-64
-46
0
16
54
166
292
440
699
988
1214
1495
1703
1393
615
-31
-280
-345
-377
-377
-370
-368
-370
-379
-385
-392
-423
-473
-523
-570
-618
-665
-693
-666
-576
-443
-284
-107
63
186
240
238
212
176
133
104
101
99
84
77
86
96
96
89
93
102
85
57
72
103
87
59
60
51
32
44
50
21
10
15
-10
-51
-80
-98
-101
-95
-96
-63
11
33
-39
-109
-102
-68
-64
-77
-103
-128
-107
-108
-166
-121
15
81
274
627
530
-104
-464
-311
-190
-244
-250
-218
-216
-212
-216
-229
-226
-224
-225
-207
-183
-158
-121
-82
-36
35
115
181
242
290
310
301
262
210
184
167
109
41
14
15
16
22
37
51
61
68
62
60
95
128
96
36
28
64
77
38
-19
-49
-56
-69
-80
-66
-52
-60
-61
-48
-65
-56
42
154
288
467
396
-39
-350
-266
-132
-154
-174
-145
-140
-145
-135
-128
-126
-116
-89
-61
-54
-53
-25
29
85
138
189
235
280
313
317
290
241
179
121
69
22
-3
-1
-6
-19
-8
19
29
17
15
67
146
199
314
555
773
947
1213
1330
947
307
-122
-301
-384
-414
-424
-446
-462
-471
-489
-506
-520
-551
-596
-636
-668
-699
-719
-702
-636
-524
-377
-217
-68
50
130
169
160
123
92
78
68
55
41
31
30
34
35
34
36
34
26
18
8
-5
-9
-7
-5
0
1
-9
-9
2
1
-8
-4
2
-7
-22
-21
-6
1
8
45
96
121
106
72
48
46
53
58
51
26
21
55
45
14
106
259
378
561
610
196
-291
-296
-69
-32
-63
-2
37
3
-14
9
9
-28
-46
-36
-34
-36
-21
-1
34
114
209
266
297
344
390
397
359
282
179
91
34
-16
-73
-124
-159
-168
-156
-148
-139
-129
-146
-173
-160
-134
-149
-181
-164
-92
-43
-74
-136
-167
-167
-165
-180
-189
-185
-193
-183
-143
-164
-191
-79
79
187
275
137
-292
-531
-364
-198
-220
-232
-201
-201
-199
-190
-193
-182
-157
-145
-135
-111
-75
-32
17
82
176
278
352
401
439
439
382
289
182
82
15
-25
-58
-82
-82
-67
-55
-52
-45
-18
7
4
7
49
86
73
66
140
245
263
193
145
163
183
169
162
179
179
180
190
157
165
299
432
604
898
873
305
-135
-48
108
68
39
66
64
59
70
74
76
93
134
180
204
221
265
324
380
434
488
559
632
600
413
112
-262
-590
-716
-627
-468
-547
-1069
-1625
-1663
-1353
-1142
-1014
-850
-731
-622
-443
-297
-155
154
512
767
1114
1461
1283
593
-22
-329
-481
-522
-485
-492
-552
-582
-571
-551
-536
-539
-557
-574
-579
-586
-603
-597
-523
-398
-254
-83
98
234
311
350
346
307
272
254
234
197
158
143
148
135
110
107
107
100
129
155
118
160
396
586
458
83
-299
-552
-657
-627
-483
-289
-116
18
95
106
133
228
295
283
286
355
441
495
495
468
512
650
768
810
842
872
832
725
600
481
382
298
213
139
96
68
41
19
5
-5
-16
-27
-25
-13
2
44
102
147
230
363
443
497
616
637
385
21
-227
-339
-375
-378
-385
-398
-401
-406
-433
-476
-508
-530
-564
-615
-667
-718
-742
-716
-657
-586
-494
-382
-258
-121
-5
57
99
141
143
102
65
44
20
2
1
0
-12
-16
-9
-12
-37
-53
-45
-63
-100
-72
10
107
229
197
-136
-427
-355
-178
-158
-172
-136
-126
-141
-143
-140
-130
-115
-111
-106
-83
-54
-21
32
104
185
270
346
389
403
397
341
229
125
62
9
-44
-75
-90
-105
-113
-106
-88
-90
-118
-126
-105
-107
-120
-73
11
47
21
-30
-64
-58
-41
-45
-40
-28
-43
-46
-40
-70
-26
142
278
406
549
364
-134
-338
-142
-19
-49
-25
15
23
45
45
20
30
52
54
55
60
70
104
150
197
268
345
388
408
418
399
339
253
161
71
-9
-57
-60
-67
-105
-121
-94
-72
-67
-54
-30
28
131
242
404
687
979
1192
1464
1733
1564
841
57
-353
-450
-474
-496
-490
-481
-506
-524
-517
-541
-604
-643
-657
-690
-727
-748
-768
-764
-690
-570
-435
-270
-98
16
66
79
59
25
2
-16
-38
-57
-71
-76
-65
-53
-55
-59
-51
-48
-58
-62
-54
-53
-56
-61
-82
-101
-98
-93
-99
-108
-123
-139
-134
-116
-115
-128
-120
-66
-1
25
18
3
-11
-17
-14
-4
5
-10
-21
17
20
-29
41
198
294
477
685
454
-84
-263
-91
-20
-63
-65
-77
-108
-110
-103
-100
-102
-107
-72
-15
-7
-6
71
152
167
210
331
418
416
404
407
380
327
262
182
113
74
30
-15
-29
-31
-30
-9
0
-18
-8
63
155
215
291
498
782
1000
1207
1383
1210
619
21
-293
-421
-482
-489
-462
-458
-506
-552
-524
-483
-515
-560
-571
-594
-610
-584
-576
-565
-450
-294
-198
-83
97
234
274
273
266
314
466
609
664
787
957
795
258
-169
-252
-243
-290
-320
-322
-326
-325
-321
-319
-317
-319
-329
-348
-365
-356
-321
-278
-213
-118
-21
72
145
153
122
126
146
128
113
138
159
193
328
498
547
565
764
978
808
280
-167
-330
-353
-362
-368
-386
-410
-411
-404
-423
-457
-471
-481
-521
-567
-577
-564
-534
-452
-330
-213
-98
21
105
135
133
114
94
96
102
91
81
87
94
99
105
109
118
134
135
120
118
121
100
67
46
23
-5
-17
-25
-38
-26
19
54
51
31
20
26
27
8
-1
17
33
51
72
32
2
128
296
453
771
930
440
-213
-287
-55
-29
-91
-66
-51
-72
-69
-49
-39
-39
-44
-35
-2
39
69
109
169
219
254
311
393
440
409
342
286
218
134
71
15
-53
-101
-129
-167
-177
-145
-135
-155
-169
-162
-126
-80
-55
4
148
318
484
649
747
816
1020
1229
1048
476
-64
-335
-440
-492
-513
-518
-526
-527
-520
-539
-586
-616
-632
-683
-742
-752
-750
-781
-789
-720
-613
-494
-341
-176
-46
44
84
74
84
120
90
29
34
44
12
6
14
-13
-17
16
8
-23
-13
3
-8
1
30
27
-5
-18
-3
27
65
72
38
50
133
181
154
116
97
90
73
35
25
45
45
61
84
44
71
219
317
505
882
857
209
-260
-160
-23
-78
-83
-32
-45
-72
-63
-49
-54
-65
-45
6
28
21
43
96
149
205
264
308
333
349
373
386
339
248
165
91
31
0
-30
-69
-89
-96
-104
-106
-109
-116
-94
-56
-61
-98
-103
-78
-82
-110
-131
-153
-175
-178
-173
-166
-150
-144
-138
-118
-129
-136
-60
16
62
187
207
-112
-433
-384
-218
-217
-249
-213
-193
-194
-179
-175
-178
-163
-143
-126
-103
-81
-47
17
71
103
171
261
304
305
306
300
268
209
137
76
33
9
9
16
11
8
11
-1
-27
-43
-28
14
57
102
174
271
412
600
728
814
1006
1132
873
385
33
-144
-240
-259
-256
-287
-314
-317
-333
-363
-389
-417
-451
-480
-503
-530
-552
-553
-529
-471
-368
-236
-103
30
155
234
266
273
246
193
156
136
110
93
96
83
45
25
26
11
-12
-9
8
4
-9
-18
-30
-45
-47
-41
-52
-83
-109
-113
-115
-131
-128
-82
-22
-6
-42
-92
-120
-136
-165
-184
-174
-173
-174
-140
-148
-183
-70
114
217
440
693
409
-224
-410
-195
-136
-195
-167
-157
-183
-159
-142
-169
-160
-106
-76
-85
-88
-45
22
65
96
156
238
305
348
373
373
327
243
160
85
-7
-86
-111
-131
-176
-169
-112
-114
-147
-107
-56
-40
48
192
301
509
877
1146
1290
1558
1708
1253
418
-139
-278
-292
-345
-401
-405
-379
-380
-401
-404
-412
-452
-502
-543
-580
-620
-654
-658
-613
-529
-419
-271
-93
61
157
206
216
189
145
111
97
92
70
49
61
78
69
65
71
64
63
72
73
89
150
271
488
739
919
1060
1171
1121
915
698
487
256
41
-168
-343
-382
-320
-287
-308
-360
-450
-518
-526
-552
-623
-675
-709
-757
-779
-762
-738
-693
-613
-520
-403
-270
-176
-103
-14
53
93
126
120
97
125
158
131
109
133
142
118
106
102
88
85
92
76
49
47
51
34
12
3
-4
-11
-13
-14
-17
-20
-23
-23
-8
17
16
-9
-9
11
-6
-32
-11
18
6
-13
-4
26
64
83
66
34
12
1
-10
-10
1
-1
-9
-14
-45
-42
58
193
337
434
238
-203
-404
-248
-113
-129
-126
-85
-88
-107
-99
-80
-68
-64
-63
-50
-20
11
38
75
125
185
251
305
344
388
420
406
365
331
295
229
150
102
84
61
36
20
5
10
49
88
117
154
244
446
701
880
1056
1268
1192
666
85
-193
-257
-284
-300
-307
-312
-315
-334
-370
-391
-395
-419
-465
-501
-513
-516
-512
-476
-402
-296
-162
-24
74
123
143
129
82
33
4
-8
-26
-58
-82
-86
-97
-116
-124
-125
-130
-132
-140
-161
-175
-170
-162
-163
-167
-173
-185
-184
-166
-155
-156
-151
-148
-151
-152
-159
-169
-154
-132
-145
-154
-97
-16
12
-10
-37
-53
-58
-48
-33
-35
-49
-29
-8
-54
-49
108
253
404
695
709
142
-350
-282
-113
-140
-125
-64
-110
-158
-128
-104
-106
-91
-72
-59
-39
-17
14
66
128
195
270
347
422
485
507
489
455
398
314
230
158
91
28
-19
-41
-47
-61
-77
-80
-79
-77
-67
-44
-21
-25
-44
-29
28
69
60
16
-28
-36
-28
-47
-64
-51
-53
-49
-15
-38
-66
44
176
307
598
702
226
-293
-287
-118
-147
-166
-98
-90
-110
-108
-124
-129
-99
-89
-99
-89
-73
-60
-22
45
124
200
269
330
367
364
333
282
213
137
66
-7
-74
-108
-108
-109
-135
-156
-139
-114
-98
-51
47
199
411
632
834
1064
1198
980
464
-17
-289
-411
-453
-467
-497
-535
-558
-582
-617
-643
-665
-699
-747
-792
-822
-846
-857
-817
-712
-575
-411
-225
-54
75
162
196
174
139
131
136
120
101
108
116
103
106
125
125
108
109
126
133
121
98
73
56
46
29
6
-6
-5
1
6
10
19
39
50
41
44
80
114
114
117
161
208
204
168
149
147
140
132
139
138
117
117
125
91
93
186
292
441
595
432
-22
-240
-108
-7
-35
-46
-47
-65
-65
-71
-91
-90
-78
-68
-46
-34
-40
-15
42
80
109
167
225
260
297
325
302
243
197
158
97
28
-28
-74
-104
-114
-119
-115
-92
-69
-30
45
132
302
609
863
1006
1265
1474
1132
364
-237
-510
-634
-669
-652
-668
-704
-710
-709
-722
-740
-759
-785
-818
-853
-879
-883
-851
-782
-671
-507
-314
-147
-29
55
97
86
68
121
265
433
537
645
987
1538
1735
1154
241
-277
-339
-315
-330
-330
-329
-331
-321
-325
-349
-365
-376
-395
-426
-477
-523
-513
-437
-327
-200
-64
51
119
160
194
196
162
161
209
227
184
142
126
111
99
99
96
89
87
80
68
64
61
68
78
45
39
160
293
392
571
564
110
-295
-216
-29
-43
-55
-2
-2
-13
3
3
5
29
43
47
69
111
162
211
257
313
375
420
438
425
385
333
262
168
88
32
-29
-75
-74
-63
-73
-90
-113
-135
-123
-95
-103
-129
-107
-38
13
20
7
0
30
100
171
275
434
543
636
962
1466
1670
1284
520
-174
-521
-589
-599
-623
-628
-629
-636
-636
-654
-697
-723
-728
-744
-772
-795
-815
-825
-797
-726
-625
-503
-367
-219
-82
15
82
118
105
93
122
130
98
93
114
113
101
90
75
74
69
36
5
-12
-34
-51
-54
-57
-57
-58
-67
-56
-13
21
9
-33
-66
-66
-62
-77
-68
-38
-32
-28
-14
-17
31
146
260
453
639
421
-83
-254
-76
4
-31
-1
27
18
24
25
16
25
33
42
72
95
104
139
198
241
273
325
379
409
428
433
400
341
304
273
197
109
94
111
73
38
59
56
8
1
38
45
14
-7
-14
-37
-54
-39
-26
-30
4
64
72
21
-34
-60
-65
-86
-118
-130
-125
-104
-85
-128
-157
-71
22
131
370
421
38
-286
-211
-96
-132
-124
-74
-85
-92
-67
-71
-86
-74
-66
-78
-74
-52
-37
-20
23
70
96
115
143
165
166
148
113
55
-21
-89
-122
-135
-153
-165
-159
-154
-160
-159
-153
-153
-149
-146
-148
-140
-138
-160
-174
-157
-121
-65
-9
-5
-43
-61
-61
-70
-67
-62
-90
-108
-82
-67
-79
-96
-112
-92
-19
72
161
134
-147
-448
-420
-193
-76
-53
-18
-2
-13
-19
-15
-3
5
-2
6
41
70
85
114
168
223
272
335
400
429
424
407
371
309
230
146
71
0
-65
-99
-96
-96
-112
-114
-103
-103
-91
-31
32
97
271
513
662
817
1028
921
361
-160
-352
-413
-431
-358
-312
-364
-407
-394
-386
-399
-415
-429
-438
-445
-462
-465
-422
-356
-280
-170
-44
52
129
210
264
255
203
159
144
133
119
123
140
150
152
148
149
158
142
111
119
136
115
98
112
121
