# session 79
-5
-89
-146
-171
-187
-193
-172
-165
-198
-208
-183
-187
-210
-201
-184
-201
-231
-228
-194
-179
-180
-130
-59
-49
-75
-84
-94
-114
-123
-111
-93
-99
-108
-80
-75
-105
-43
78
152
314
476
228
-265
-404
-234
-169
-199
-167
-131
-140
-160
-165
-149
-132
-138
-135
-106
-81
-63
-33
-1
24
67
134
200
253
294
312
308
291
248
171
87
26
-9
-27
-38
-46
-47
-44
-42
-37
-32
-29
-27
-34
-50
-42
-5
23
22
18
43
83
102
90
65
45
44
46
27
12
16
0
-20
-15
-31
-27
71
176
279
436
390
-6
-302
-208
-51
-43
-47
-20
-19
-22
-14
-10
0
6
1
10
38
57
63
74
101
134
164
212
285
328
328
333
323
250
160
102
40
-36
-87
-105
-114
-128
-140
-136
-130
-143
-154
-148
-159
-187
-199
-196
-185
-162
-154
-162
-136
-97
-103
-132
-147
-159
-162
-153
-150
-137
-113
-103
-80
-61
-101
-71
102
211
286
503
487
-14
-385
-256
-97
-142
-154
-102
-98
-115
-120
-114
-98
-107
-116
-85
-67
-75
-37
18
24
44
119
182
227
312
403
415
366
308
223
110
16
-41
-74
-87
-99
-117
-116
-108
-118
-117
-93
-83
-93
-103
-109
-95
-54
-34
-42
-7
76
123
95
52
33
13
-14
-34
-56
-67
-55
-39
-24
-42
-81
14
208
329
511
705
411
-204
-366
-133
-74
-134
-90
-66
-82
-52
-52
-88
-67
-37
-50
-33
5
7
22
75
103
133
223
310
346
379
398
361
306
254
160
40
-46
-95
-128
-145
-154
-167
-176
-175
-174
-174
-166
-161
-176
-201
-207
-192
-189
-206
-206
-161
-99
-69
-82
-113
-136
-139
-137
-137
-118
-93
-101
-90
-54
-80
-65
101
234
359
693
795
236
-328
-297
-114
-147
-170
-124
-138
-155
-129
-107
-96
-93
-104
-92
-56
-35
-29
-13
24
85
150
195
242
321
382
374
330
278
198
112
59
4
-72
-118
-113
-102
-116
-132
-119
-95
-91
-91
-87
-104
-112
-73
-35
-42
-49
-21
16
33
30
13
-18
-54
-68
-57
-46
-45
-61
-68
-28
-8
-36
26
165
279
534
822
594
-31
-293
-126
-36
-90
-99
-78
-77
-80
-80
-71
-60
-56
-47
-28
-11
3
20
43
75
115
150
191
261
326
329
298
277
225
128
44
-22
-82
-106
-109
-131
-141
-129
-135
-156
-170
-184
-179
-142
-127
-159
-181
-176
-169
-156
-133
-119
-96
-34
14
-5
-45
-54
-44
-45
-58
-60
-52
-47
-26
-11
-61
-81
27
129
200
369
387
-2
-372
-334
-181
-186
-202
-158
-159
-198
-187
-145
-144
-160
-137
-105
-96
-86
-66
-42
1
64
114
137
171
239
296
314
315
290
222
147
91
48
20
8
-9
-34
-41
-18
0
-8
-8
10
9
1
23
31
-4
-12
34
47
9
14
64
66
27
9
-9
-40
-43
-32
-33
-27
-23
-24
8
28
2
33
137
226
342
409
175
-195
-277
-132
-65
-61
-38
-37
-36
-21
-29
-22
17
22
11
25
21
16
59
89
97
151
188
172
214
303
305
262
258
231
135
30
-31
-52
-67
-103
-133
-139
-140
-142
-133
-132
-143
-148
-150
-162
-184
-204
-208
-188
-160
-145
-130
-93
-51
-39
-52
-72
-84
-72
-58
-63
-57
-35
-48
-54
-14
-21
-36
78
212
323
540
560
86
-352
-286
-99
-106
-120
-87
-109
-124
-95
-86
-91
-84
-88
-83
-44
-18
-24
-15
28
86
154
230
301
355
394
440
461
390
255
147
79
16
-41
-87
-121
-134
-132
-140
-145
-123
-95
-89
-83
-72
-78
-85
-65
-61
-100
-115
-70
-18
-6
-34
-87
-124
-126
-125
-130
-120
-120
-152
-146
-92
-108
-135
6
195
324
544
599
118
-403
-377
-162
-175
-220
-169
-150
-157
-148
-161
-171
-139
-118
-114
-95
-82
-77
-51
-37
-33
32
134
196
244
311
342
311
252
172
66
-31
-95
-148
-202
-235
-238
-240
-256
-266
-250
-234
-232
-212
-186
-193
-204
-181
-165
-185
-185
-118
-38
-6
-11
-18
-29
-36
-23
-12
-9
2
4
19
61
38
10
151
328
468
791
983
504
-138
-193
13
9
-22
25
20
24
77
75
42
68
112
116
113
140
183
213
236
280
337
389
470
573
617
613
627
605
502
406
339
247
170
149
133
96
74
81
101
110
109
123
152
156
129
115
127
134
112
86
92
128
158
141
83
42
44
49
30
20
29
23
16
29
4
-32
51
170
247
468
663
336
-251
-405
-238
-217
-276
-253
-251
-295
-306
-304
-329
-357
-361
-347
-362
-406
-408
-371
-377
-400
-366
-323
-322
-317
-288
-272
-288
-343
-435
-546
-656
-745
-818
-892
-953
-984
-1006
-1033
-1050
-1077
-1110
-1107
-1081
-1069
-1036
-977
-923
-786
-555
-402
-303
-144
-185
-632
-1134
-1351
-1401
-1422
-1358
-1223
-1097
-951
-720
-438
-173
49
227
371
505
630
731
813
885
962
1073
1221
1383
1527
1644
1746
1822
1838
1810
1761
1694
1636
1604
1569
1537
1519
1474
1394
1319
1256
1206
1181
1151
1080
969
838
714
601
471
341
251
171
79
6
-42
-87
-117
-120
-95
-48
-8
6
17
41
62
68
69
87
127
156
151
157
194
194
152
143
152
114
66
56
61
46
8
-27
-59
-149
-229
-172
-59
71
264
175
-411
-878
-793
-636
-735
-808
-769
-791
-844
-840
-820
-812
-811
-793
-741
-718
-749
-751
-714
-692
-649
-560
-486
-427
-355
-299
-266
-244
-248
-271
-293
-326
-374
-411
-438
-470
-492
-490
-479
-471
-451
-430
-419
-398
-367
-352
-354
-336
-295
-268
-258
-217
-145
-93
-75
-77
-95
-97
-62
-46
-66
-55
-22
-20
2
50
38
56
218
418
678
978
833
166
-247
-103
56
19
20
72
77
81
104
110
106
131
167
176
177
203
233
248
281
357
447
527
612
687
710
704
697
645
522
389
286
219
187
170
147
128
112
92
88
97
93
87
86
64
35
40
42
5
-10
43
111
136
122
97
77
60
48
55
82
91
66
72
101
62
47
191
346
513
874
998
421
-223
-245
-58
-105
-154
-89
-82
-125
-134
-135
-146
-161
-172
-162
-151
-159
-148
-106
-72
-34
36
99
141
196
252
263
239
201
127
12
-97
-173
-233
-284
-307
-301
-289
-287
-286
-276
-264
-252
-240
-234
-239
-242
-230
-218
-229
-246
-218
-152
-118
-146
-186
-195
-177
-168
-182
-177
-153
-161
-169
-143
-162
-169
-41
101
233
492
538
41
-449
-419
-229
-217
-223
-177
-174
-189
-177
-152
-127
-111
-108
-92
-41
6
11
6
48
122
183
237
305
369
415
436
418
363
288
198
99
16
-29
-48
-77
-117
-132
-123
-117
-111
-108
-115
-117
-113
-121
-120
-90
-59
-52
-39
5
54
63
39
25
22
6
-11
-4
17
27
23
30
34
4
11
106
221
422
701
633
85
-316
-234
-76
-80
-84
-60
-70
-76
-67
-68
-66
-58
-58
-63
-57
-30
-1
12
35
71
101
154
239
293
302
315
329
287
199
123
76
31
-19
-53
-52
-32
-34
-57
-60
-49
-51
-44
-24
-36
-71
-68
-40
-35
-48
-47
-27
-4
-2
-37
-82
-96
-89
-97
-113
-102
-77
-80
-91
-87
-100
-92
-3
130
296
432
271
-167
-402
-291
-181
-187
-168
-141
-158
-161
-139
-124
-113
-98
-82
-72
-75
-70
-40
-10
14
59
124
181
243
326
396
412
388
351
284
185
107
64
22
-21
-38
-43
-53
-53
-49
-59
-72
-74
-72
-78
-84
-82
-60
-31
-28
-36
-5
39
39
11
-14
-39
-44
-27
-24
-20
-1
-14
-28
-3
-9
-13
83
209
364
592
558
84
-306
-257
-119
-140
-173
-166
-171
-170
-170
-187
-184
-158
-151
-158
-148
-127
-118
-110
-81
-39
5
69
143
197
237
271
264
206
133
55
-29
-91
-125
-159
-188
-189
-181
-183
-177
-162
-152
-138
-114
-107
-125
-130
-109
-89
-81
-64
-19
41
69
41
-6
-27
-29
-30
-26
-12
-22
-56
-33
17
-29
-47
122
302
435
621
513
-53
-406
-223
-54
-129
-153
-104
-115
-113
-75
-79
-94
-63
-29
-30
-29
-5
15
37
85
149
208
275
365
452
501
515
501
431
309
190
99
17
-50
-90
-119
-147
-163
-168
-172
-176
-164
-136
-119
-121
-115
-97
-82
-82
-91
-73
-2
67
71
38
13
4
11
14
2
3
4
-8
26
64
37
71
195
306
565
894
678
-28
-368
-208
-122
-201
-206
-171
-167
-162
-166
-177
-156
-127
-125
-120
-87
-53
-52
-60
-43
-1
56
127
197
247
258
230
190
144
69
-22
-97
-152
-189
-202
-204
-202
-193
-185
-181
-173
-154
-125
-114
-137
-146
-118
-104
-123
-128
-94
-41
-13
-45
-94
-94
-71
-88
-117
-103
-80
-98
-110
-85
-91
-105
-18
103
216
417
461
62
-347
-311
-142
-147
-153
-98
-106
-131
-93
-39
-18
-16
-10
8
30
48
53
63
115
179
211
246
318
385
417
431
429
385
300
203
114
40
-17
-59
-87
-109
-122
-120
-109
-99
-86
-68
-60
-53
-38
-32
-31
-2
33
35
45
100
134
107
81
69
37
21
41
41
34
48
42
33
48
33
32
120
242
415
595
441
-43
-309
-205
-115
-150
-157
-140
-146
-145
-139
-135
-123
-115
-115
-104
-89
-86
-82
-71
-54
-16
44
98
135
163
180
176
145
91
27
-37
-99
-146
-167
-176
-179
-164
-147
-147
-143
-123
-120
-138
-145
-139
-142
-150
-139
-112
-103
-108
-78
-18
4
-18
-41
-56
-71
-78
-85
-83
-67
-80
-101
-60
-31
-68
-26
115
248
423
497
158
-307
-360
-159
-110
-141
-109
-82
-77
-51
-22
-4
6
13
28
38
40
63
100
119
147
221
305
369
429
484
512
508
467
384
271
158
59
-28
-90
-115
-122
-136
-151
-159
-159
-143
-124
-127
-131
-107
-89
-101
-109
-103
-96
-58
21
72
55
8
-28
-30
-4
0
-19
-17
-20
-32
5
21
-25
25
172
292
503
676
349
-252
-419
-221
-162
-220
-181
-117
-123
-150
-129
-83
-84
-117
-115
-92
-84
-73
-54
-42
-5
75
159
219
276
327
348
335
283
190
75
-31
-112
-162
-184
-201
-225
-236
-227
-219
-213
-192
-169
-155
-138
-130
-142
-133
-99
-99
-138
-136
-63
13
22
-14
-34
-40
-58
-70
-65
-65
-71
-73
-58
-58
-106
-71
113
235
320
586
652
150
-322
-259
-86
-119
-135
-85
-88
-99
-71
-51
-53
-46
-13
15
8
12
58
102
128
161
205
265
334
379
398
402
375
313
227
129
42
-21
-69
-98
-107
-105
-100
-94
-88
-75
-61
-54
-50
-48
-51
-53
-53
-52
-57
-66
-51
-3
33
26
-9
-47
-61
-55
-62
-67
-54
-62
-74
-46
-56
-91
-2
120
195
467
760
465
-189
-397
-211
-161
-221
-186
-140
-137
-136
-150
-165
-157
-151
-137
-102
-93
-108
-85
-28
18
64
119
165
221
298
347
344
315
268
194
114
44
-14
-51
-71
-85
-89
-95
-116
-119
-98
-101
-118
-106
-96
-121
-145
-147
-145
-135
-120
-114
-98
-68
-63
-75
-77
-92
-120
-119
-102
-101
-99
-89
-78
-67
-83
-85
26
163
222
314
354
74
-280
-270
-69
-28
-73
-60
-37
-33
-29
-19
1
12
1
3
34
63
72
87
126
164
192
245
320
362
361
353
333
285
223
152
70
8
-26
-53
-70
-66
-59
-60
-52
-34
-21
-18
-15
-3
7
-6
-30
-29
-2
8
-10
-6
37
67
53
29
9
-21
-41
-43
-52
-56
-46
-56
-69
-67
-96
-94
1
102
234
393
257
-195
-431
-298
-182
-201
-208
-202
-210
-197
-185
-187
-176
-157
-145
-136
-129
-113
-80
-48
-13
47
122
185
241
303
356
376
359
317
248
148
48
-23
-73
-110
-123
-118
-118
-127
-132
-130
-123
-115
-111
-116
-127
-129
-118
-111
-121
-119
-85
-36
-5
-15
-53
-79
-78
-79
-96
-91
-46
-31
-62
-56
-41
-71
7
219
364
487
606
362
-167
-344
-134
-41
-106
-93
-43
-37
-23
-3
-8
-1
30
36
19
32
67
82
88
113
159
226
306
366
403
428
426
388
314
198
74
4
-34
-91
-135
-137
-142
-155
-135
-119
-139
-141
-105
-79
-85
-110
-118
-84
-61
-103
-138
-78
20
42
-5
-37
-36
-37
-51
-67
-70
-74
-93
-72
-15
-56
-109
50
263
360
523
569
112
-396
-365
-139
-147
-199
-157
-144
-160
-146
-135
-141
-138
-124
-110
-104
-94
-66
-31
1
38
100
186
270
332
376
397
373
307
222
118
2
-82
-108
-116
-145
-173
-177
-170
-163
-153
-149
-145
-121
-94
-95
-116
-139
-142
-106
-94
-147
-163
-88
-26
-28
-25
-26
-73
-109
-91
-69
-63
-74
-91
-54
0
-36
-32
119
240
367
624
584
42
-354
-258
-111
-132
-146
-126
-117
-98
-85
-81
-63
-49
-50
-42
-29
-19
2
34
59
83
135
219
299
351
390
417
408
357
281
193
97
19
-16
-27
-50
-67
-60
-61
-83
-93
-80
-61
-53
-57
-64
-80
-109
-122
-102
-84
-85
-66
-23
0
-6
-21
-43
-65
-74
-88
-94
-63
-52
-71
-41
-23
-86
-62
73
180
441
830
704
27
-361
-249
-162
-197
-162
-135
-169
-167
-136
-127
-121
-107
-89
-64
-47
-35
-6
32
59
95
160
223
259
286
315
330
313
258
181
120
72
2
-68
-102
-121
-128
-102
-92
-130
-144
-116
-116
-144
-138
-104
-104
-148
-171
-130
-75
-63
-66
-27
34
52
35
30
21
-4
-5
9
-8
-31
-14
6
-16
