# session 62
36
257
102
-378
-665
-546
-394
-406
-400
-341
-328
-328
-308
-298
-285
-260
-253
-248
-215
-180
-161
-124
-57
25
97
146
197
260
286
258
223
182
116
43
-22
-76
-114
-143
-163
-171
-181
-178
-152
-131
-93
-17
40
127
359
601
728
899
1039
778
228
-137
-256
-333
-375
-361
-351
-360
-376
-390
-387
-390
-422
-457
-482
-515
-535
-525
-502
-467
-386
-251
-99
45
180
267
275
241
185
116
78
78
66
41
35
36
26
22
33
42
39
36
35
31
34
41
29
5
-3
0
-4
-6
-1
1
-2
-5
-3
5
11
6
1
1
2
0
-5
-12
-8
9
13
0
17
77
123
114
81
63
51
32
29
43
40
43
66
43
27
145
307
470
739
785
262
-303
-327
-129
-112
-148
-132
-143
-163
-164
-171
-162
-122
-98
-107
-89
-27
14
23
64
149
223
276
329
384
414
410
380
329
246
146
69
20
-31
-77
-96
-108
-130
-136
-118
-108
-112
-110
-120
-151
-159
-142
-161
-199
-175
-116
-88
-82
-92
-129
-150
-137
-138
-135
-107
-109
-105
-57
-69
-82
68
255
439
758
788
161
-405
-324
-127
-184
-203
-143
-168
-183
-150
-151
-139
-98
-108
-136
-105
-52
-25
-5
35
102
195
289
364
426
449
393
282
168
53
-59
-133
-167
-199
-229
-242
-246
-248
-242
-229
-216
-208
-201
-190
-176
-157
-141
-144
-142
-90
-17
12
-4
-33
-55
-55
-49
-51
-53
-66
-63
-25
-40
-70
63
235
329
605
847
437
-252
-379
-140
-108
-175
-138
-110
-148
-161
-113
-76
-112
-146
-107
-51
-18
9
28
73
158
229
289
383
454
455
441
421
335
200
77
-10
-44
-41
-75
-131
-137
-117
-105
-67
-24
8
77
159
257
499
792
939
1127
1453
1418
806
146
-198
-359
-432
-426
-432
-455
-451
-457
-488
-500
-508
-549
-604
-645
-673
-699
-719
-713
-657
-547
-397
-240
-107
8
97
130
131
126
79
24
28
44
28
22
21
6
22
47
23
3
21
10
-17
13
52
36
13
20
22
12
17
34
43
38
21
-4
-8
14
23
-8
-35
-8
39
43
18
27
69
100
105
84
50
28
20
19
34
43
38
48
35
0
65
209
327
464
479
124
-278
-245
-7
26
-47
-53
-54
-75
-79
-86
-99
-90
-85
-107
-113
-88
-68
-56
-27
23
78
129
184
235
248
236
249
263
216
130
73
39
-2
-31
-34
-44
-79
-93
-53
-4
12
56
143
218
350
587
786
941
1136
1070
529
-40
-234
-247
-294
-317
-308
-329
-356
-360
-364
-385
-418
-454
-486
-512
-543
-568
-569
-543
-492
-403
-272
-123
9
102
154
172
154
107
48
2
-18
-24
-30
-31
-26
-26
-30
-35
-33
-16
-5
-22
-36
-25
-23
-32
-27
-25
-43
-44
-26
-25
-32
-25
-18
-12
4
9
0
0
2
-15
-32
-33
-13
30
75
94
77
37
10
12
14
16
24
20
27
42
9
38
220
390
545
763
652
64
-320
-183
-43
-110
-113
-48
-57
-78
-63
-56
-49
-26
-24
-33
-15
13
18
38
108
185
240
308
385
409
379
361
353
290
174
52
-69
-141
-122
-125
-224
-276
-215
-181
-212
-207
-164
-157
-173
-161
-137
-148
-162
-115
-54
-55
-90
-116
-141
-154
-138
-107
-93
-113
-107
-53
-68
-124
-8
194
302
507
695
337
-298
-437
-213
-165
-212
-166
-139
-150
-126
-108
-112
-96
-68
-53
-40
-15
17
46
83
146
220
286
357
417
426
399
353
263
141
45
-21
-75
-116
-158
-197
-198
-176
-169
-168
-169
-185
-189
-168
-159
-158
-137
-109
-79
-31
0
-19
-47
-49
-66
-108
-109
-76
-69
-64
-61
-94
-53
84
184
398
763
689
36
-387
-258
-118
-172
-179
-141
-150
-145
-112
-100
-89
-60
-43
-40
-25
9
44
64
94
160
231
281
335
381
383
356
309
213
103
32
-26
-87
-119
-130
-141
-134
-129
-143
-132
-93
-47
25
100
209
469
763
913
1110
1396
1307
736
186
-111
-301
-398
-384
-378
-413
-440
-457
-465
-473
-509
-559
-581
-593
-639
-681
-650
-571
-495
-396
-244
-77
39
104
155
174
123
51
27
23
-2
-19
-14
-17
-18
0
13
7
7
17
23
24
18
14
24
36
33
17
6
7
9
-1
-13
-11
-2
-4
-27
-53
-48
-19
-17
-42
-12
74
97
43
27
56
49
15
5
3
3
30
52
13
-13
81
218
334
477
464
106
-256
-251
-95
-73
-100
-87
-80
-74
-57
-55
-57
-38
-18
-14
-12
1
18
39
73
118
168
220
266
294
306
308
281
225
166
108
32
-42
-84
-111
-140
-159
-157
-149
-143
-128
-105
-84
-39
52
182
380
632
854
1092
1334
1245
667
13
-338
-456
-501
-506
-495
-489
-488
-495
-505
-506
-506
-514
-530
-557
-599
-641
-660
-643
-588
-483
-330
-161
-4
134
229
262
246
208
166
136
113
95
92
93
82
73
79
73
46
30
38
41
33
37
43
30
27
49
69
73
75
76
77
89
99
81
55
65
94
87
52
60
127
186
198
182
160
138
122
109
102
99
105
136
120
53
129
333
457
629
858
624
-26
-302
-118
-47
-121
-80
-23
-57
-86
-84
-93
-98
-86
-66
-55
-49
-37
-19
16
80
139
173
229
307
340
319
286
236
154
54
-35
-100
-150
-197
-231
-240
-245
-262
-267
-251
-243
-244
-238
-228
-215
-199
-205
-206
-159
-114
-141
-200
-228
-233
-247
-262
-280
-320
-341
-293
-273
-326
-285
-136
-47
74
210
-26
-521
-650
-424
-317
-350
-341
-324
-326
-314
-308
-306
-295
-283
-245
-190
-168
-158
-109
-37
28
99
182
251
283
286
285
274
210
94
-7
-64
-120
-172
-178
-163
-159
-139
-100
-77
-75
-65
-36
1
36
60
71
96
148
183
171
138
100
57
30
33
57
82
95
119
150
169
233
359
488
673
841
665
241
101
286
405
404
442
496
521
553
587
606
635
675
706
732
770
815
860
908
969
1047
1131
1192
1231
1270
1280
1244
1231
1184
903
419
16
-187
-272
-302
-317
-356
-399
-434
-477
-518
-552
-558
-500
-429
-350
-152
109
289
520
809
724
135
-476
-767
-842
-833
-778
-733
-731
-759
-805
-877
-998
-1162
-1332
-1467
-1543
-1604
-1717
-1830
-1865
-1867
-1882
-1833
-1670
-1424
-1143
-956
-971
-1053
-1033
-986
-999
-985
-916
-866
-815
-708
-567
-412
-231
-54
84
203
326
427
489
533
570
591
618
640
611
564
562
591
628
660
665
664
694
724
734
762
829
905
947
932
895
880
870
861
869
847
798
803
793
718
764
923
1029
1262
1543
1219
416
75
229
204
44
78
131
52
8
39
35
-12
-64
-109
-133
-138
-126
-89
-27
46
110
151
195
245
246
210
198
177
91
-17
-104
-185
-253
-285
-308
-347
-377
-377
-372
-376
-366
-340
-307
-238
-130
-19
143
389
618
814
1053
1153
838
238
-279
-576
-719
-768
-772
-785
-809
-820
-818
-838
-877
-892
-891
-932
-1002
-1040
-1046
-1055
-1030
-934
-796
-630
-450
-293
-157
-35
15
-7
-21
-33
-70
-77
-45
-35
-34
-7
27
42
39
42
74
110
125
141
174
201
210
227
269
306
320
339
366
375
373
382
397
417
446
462
465
506
592
665
687
679
686
709
713
719
742
692
541
381
214
74
130
357
599
812
730
122
-509
-598
-398
-273
-126
65
151
196
299
352
298
261
278
247
151
62
-10
-83
-140
-166
-173
-179
-199
-234
-277
-348
-454
-509
-467
-433
-460
-465
-422
-385
-354
-291
-204
-136
-131
-166
-187
-202
-249
-311
-360
-410
-450
-440
-396
-380
-423
-481
-487
-432
-349
-223
-45
120
265
420
474
399
419
588
737
862
879
539
93
31
195
160
-21
-144
-233
-307
-294
-180
-9
175
335
473
625
749
732
573
395
261
139
40
-13
-74
-191
-328
-465
-634
-814
-966
-1106
-1233
-1293
-1298
-1321
-1366
-1379
-1369
-1382
-1379
-1273
-1049
-777
-575
-512
-508
-423
-280
-205
-201
-226
-293
-353
-343
-312
-291
-241
-173
-75
30
32
55
297
585
877
1354
1546
998
418
470
706
714
673
672
659
679
703
689
710
761
767
780
874
990
1071
1143
1221
1299
1395
1495
1545
1519
1426
1294
1147
977
794
645
527
396
274
208
153
68
6
-9
-12
25
115
196
328
604
876
1050
1333
1649
1510
826
70
-426
-681
-784
-813
-844
-893
-951
-1018
-1067
-1088
-1120
-1177
-1238
-1305
-1369
-1388
-1352
-1273
-1145
-988
-824
-648
-495
-419
-407
-417
-419
-406
-425
-492
-561
-628
-718
-779
-791
-824
-877
-907
-945
-992
-980
-932
-925
-918
-830
-686
-551
-430
-296
-155
-43
37
121
211
282
335
384
426
474
538
580
594
636
713
766
780
788
779
742
713
720
727
703
697
731
712
653
673
719
732
823
787
275
-373
-603
-576
-662
-811
-905
-936
-860
-708
-585
-488
-381
-291
-221
-148
-84
-31
43
133
201
259
334
410
466
509
539
530
486
434
375
302
229
174
137
113
99
82
63
56
68
86
92
100
163
277
407
601
866
1087
1267
1505
1610
1267
591
21
-243
-316
-334
-343
-354
-380
-412
-435
-454
-484
-527
-573
-620
-676
-737
-781
-795
-785
-756
-677
-523
-335
-164
-28
61
112
148
129
39
-22
-18
-31
-70
-85
-90
-96
-94
-98
-104
-81
-59
-78
-99
-84
-56
-34
-17
-20
-43
-52
-29
-4
-4
-19
-42
-58
-46
-42
-76
-70
15
89
99
90
90
87
82
91
105
96
93
112
78
50
173
326
449
717
834
353
-226
-234
-6
-13
-68
-11
23
16
35
50
45
54
68
68
69
79
76
64
75
122
183
233
269
301
323
311
261
203
156
105
32
-47
-111
-148
-157
-161
-161
-146
-142
-166
-187
-180
-156
-129
-112
-102
-85
-69
-61
-42
-37
-73
-105
-103
-108
-113
-89
-78
-78
-72
-97
-85
24
117
242
475
428
-70
-417
-306
-169
-203
-207
-173
-187
-191
-164
-156
-164
-162
-154
-145
-133
-118
-100
-86
-82
-77
-58
-29
-2
21
15
-36
-100
-166
-256
-345
-406
-450
-462
-444
-443
-461
-470
-495
-532
-520
-455
-388
-335
-298
-281
-251
-178
-104
-77
-85
-100
-101
-83
-63
-36
11
29
27
65
96
97
179
315
426
563
564
224
-114
-71
113
150
144
176
189
196
230
267
281
285
311
333
268
137
82
158
272
341
382
429
452
422
403
446
484
465
413
365
347
361
365
362
405
478
518
524
545
592
629
636
647
695
744
761
787
855
913
922
910
903
905
919
934
945
936
864
727
552
355
220
179
138
168
273
58
-522
-859
-766
-679
-738
-760
-742
-743
-744
-754
-782
-795
-797
-819
-849
-845
-799
-759
-760
-763
-724
-657
-589
-534
-506
-524
-575
-645
-764
-934
-1062
-1096
-1108
-1147
-1180
-1213
-1275
-1339
-1355
-1313
-1233
-1157
-1137
-1145
-1058
-850
-606
-303
78
381
597
908
1155
944
310
-300
-624
-731
-737
-652
-473
-289
-190
-150
-101
-49
-22
-4
22
29
6
-21
-31
-13
52
159
282
425
609
797
923
972
977
961
929
883
842
836
847
822
778
770
776
759
739
733
725
698
669
659
656
628
590
572
559
530
500
484
460
414
374
364
350
298
240
239
299
343
310
239
197
175
142
127
127
85
54
84
44
-48
38
210
330
634
907
488
-288
-513
-319
-298
-369
-337
-331
-368
-365
-357
-362
-355
-351
-347
-327
-305
-284
-253
-216
-170
-108
-39
28
89
117
104
80
49
-18
-108
-188
-265
-333
-364
-381
-407
-409
-394
-404
-402
-371
-365
-378
-364
-346
-343
-329
-308
-294
-266
-234
-242
-277
-285
-275
-278
-263
-226
-225
-220
-170
-177
-212
-101
60
200
465
553
90
-402
-361
-164
-183
-210
-156
-149
-153
-124
-106
-93
-74
-72
-74
-55
-24
6
44
99
172
245
309
379
441
455
426
383
324
240
150
75
27
8
-6
-27
-31
-21
-18
-6
13
4
-23
-33
-18
3
5
12
57
102
102
81
60
43
43
38
13
9
23
16
14
16
-11
9
99
213
442
651
417
-120
-338
-208
-136
-150
-113
-86
-95
-73
-38
-43
-56
-38
-16
-6
13
38
52
78
126
171
216
270
309
322
329
318
256
160
83
29
-30
-87
-120
-136
-143
-141
-144
-156
-165
-172
-192
-210
-195
-168
-174
-194
-171
-117
-93
-117
-154
-170
-164
-160
-152
-130
-123
-115
-76
-74
-86
13
153
234
340
338
10
-325
-297
-137
-111
-113
-78
-70
-61
-35
-29
-26
-5
8
14
28
40
47
75
124
164
203
277
368
423
432
426
403
337
233
138
86
44
-12
-41
-31
-37
-65
-66
-45
-39
-29
0
36
118
256
407
606
878
1124
1377
1725
1840
1321
450
-149
-339
-383
-427
-451
-457
-471
-488
-501
-526
-563
-592
-621
-679
-753
-812
-849
-864
-843
-781
-674
-513
-320
-148
-22
65
103
90
55
16
-28
-53
-39
-27
-46
-61
-46
-27
-27
-37
-37
-22
-12
-20
-29
-29
-22
-12
-13
-28
-30
-17
-16
-26
-24
-15
-12
-23
-51
-62
-29
-17
-76
-112
-43
48
63
19
-27
-51
-57
-40
-5
-17
-70
-48
7
-33
-20
155
312
492
749
613
-16
-383
-225
-96
-160
-155
-107
-121
-121
-95
-93
-94
-73
-51
-30
-8
13
36
61
96
160
239
297
347
405
434
419
398
369
303
217
152
109
73
43
35
42
35
24
43
71
66
