# session 170
5
-3
-7
-2
3
-1
-5
-1
2
-3
-8
-6
0
0
-7
-13
-8
3
0
-24
-45
-38
-27
-49
-54
16
96
97
61
43
23
7
21
29
16
9
12
28
36
-3
0
118
261
482
784
711
141
-246
-150
-36
-88
-89
-57
-80
-79
-48
-53
-66
-55
-56
-71
-67
-48
-35
-27
-13
12
39
63
92
127
160
179
189
196
187
159
137
126
88
25
-15
-29
-51
-80
-96
-98
-104
-115
-98
-74
-109
-132
-78
-100
-160
-63
-78
-233
-69
-64
-454
-6
342
-1740
-3675
-1924
587
515
-125
197
256
17
117
170
67
85
119
99
85
65
102
236
465
722
656
162
-198
-135
-28
-58
-66
-51
-62
-47
-24
-30
-26
-7
-3
-1
10
21
31
45
60
79
118
173
223
261
300
337
360
360
325
260
193
129
68
27
1
-19
-26
-31
-44
-36
-8
20
90
189
276
473
813
1071
1243
1460
1393
738
-43
-382
-386
-391
-418
-366
-287
-291
-362
-409
-421
-439
-464
-479
-490
-505
-521
-513
-480
-493
-575
-597
-485
-343
-248
-151
-40
47
93
94
62
28
-10
-54
-72
-61
-59
-70
-66
-43
-16
10
38
63
75
77
80
86
94
102
110
113
109
107
114
115
103
96
105
111
109
109
112
106
88
77
86
95
84
72
74
72
65
59
59
65
62
35
19
31
29
9
3
4
13
56
85
37
-38
-71
-78
-84
-82
-69
-71
-89
-87
-70
-76
-72
-2
124
296
407
210
-194
-339
-168
-45
-57
-53
-36
-46
-49
-44
-45
-47
-50
-52
-47
-40
-24
-3
7
20
47
73
108
156
186
209
257
298
296
277
259
225
166
91
31
0
-56
-146
-174
-138
-148
-201
-219
-222
-234
-222
-199
-198
-212
-230
-236
-215
-183
-165
-172
-189
-165
-104
-88
-115
-133
-168
-193
-150
-137
-202
-203
-149
-195
-253
-186
-128
-172
-166
-57
66
171
117
-239
-561
-461
-190
-129
-164
-124
-93
-110
-107
-93
-87
-73
-76
-102
-83
-58
-105
3
481
972
1020
804
713
728
700
665
671
666
608
544
511
458
346
242
194
152
98
67
47
13
-18
-33
-38
-41
-54
-60
-42
-26
-2
69
152
263
484
723
891
1152
1420
1232
566
-43
-326
-421
-435
-421
-431
-447
-451
-460
-460
-454
-478
-505
-495
-490
-523
-546
-544
-561
-593
-585
-541
-489
-414
-304
-192
-96
-15
37
50
26
-25
-74
-97
-106
-111
-110
-118
-148
-171
-157
-136
-136
-131
-103
-82
-77
-60
-39
-35
-36
-29
-24
-24
-20
-21
-30
-33
-31
-33
-38
-40
-36
-37
-49
-65
-64
-37
-16
-26
-21
38
82
63
35
31
21
8
9
14
28
44
30
25
48
17
-21
69
211
334
513
531
158
-220
-214
-82
-90
-111
-69
-55
-78
-92
-83
-60
-40
-38
-45
-38
-20
-6
15
47
71
101
149
193
229
274
319
351
361
345
332
336
305
227
160
115
76
61
58
42
38
55
85
159
236
311
507
775
962
1176
1376
1144
482
-41
-187
-198
-236
-282
-312
-330
-347
-364
-362
-351
-362
-396
-422
-426
-435
-472
-512
-528
-526
-494
-432
-364
-278
-160
-51
23
80
103
81
45
9
-24
-42
-51
-61
-63
-67
-83
-82
-63
-68
-80
-63
-58
-84
-88
-77
-89
-97
-82
-80
-94
-94
-83
-76
-75
-84
-89
-81
-80
-92
-100
-92
-73
-58
-63
-78
-78
-72
-77
-85
-93
-101
-83
-58
-66
-55
19
65
31
-8
-14
-21
-25
-13
-12
-25
-32
-13
23
12
-16
68
223
370
595
698
311
-224
-307
-106
-49
-76
-57
-62
-83
-76
-72
-75
-68
-73
-78
-63
-53
-59
-45
-9
21
52
98
151
202
253
302
344
373
385
381
364
339
296
228
162
118
87
57
29
4
-7
-6
-17
-23
3
34
62
115
199
381
678
915
1101
1436
1622
1164
346
-185
-353
-396
-398
-397
-417
-414
-394
-396
-408
-417
-432
-431
-412
-414
-450
-480
-500
-539
-581
-582
-540
-469
-359
-217
-82
22
88
104
86
63
34
-8
-33
-35
-41
-57
-69
-79
-87
-87
-86
-91
-96
-98
-94
-85
-79
-81
-83
-79
-76
-80
-82
-73
-67
-71
-71
-65
-65
-60
-44
-35
-36
-36
-36
-54
-77
-67
-23
-13
-47
-28
38
49
17
8
-9
-41
-33
-15
-22
-18
-13
-23
-15
-14
-36
30
174
297
478
612
346
-132
-261
-92
-26
-52
-26
-2
-14
-16
-19
-37
-48
-40
-26
-21
-18
-5
16
36
59
94
137
179
219
258
298
337
364
367
359
348
320
275
231
186
133
85
59
50
40
23
13
10
2
-11
-26
-32
-6
62
191
398
616
778
894
884
684
551
621
501
26
-342
-366
-328
-366
-372
-353
-370
-388
-377
-374
-400
-417
-404
-391
-391
-391
-395
-398
-384
-363
-346
-319
-280
-245
-211
-169
-130
-98
-66
-40
-31
-28
-26
-31
-36
-40
-54
-75
-85
-80
-77
-81
-85
-90
-97
-96
-89
-86
-90
-92
-84
-76
-78
-82
-76
-64
-47
-35
-37
-35
-18
-14
-37
-58
-55
-37
-36
-50
-26
45
92
69
21
0
1
7
4
-6
-4
-4
-22
-12
15
-12
7
166
319
428
558
452
20
-236
-90
54
12
-16
21
34
29
24
25
40
52
53
62
76
85
97
112
126
142
156
173
215
269
307
339
378
398
389
373
346
288
211
138
70
13
-24
-45
-59
-71
-80
-76
-74
-91
-102
-90
-88
-102
-95
-76
-86
-105
-84
-39
-23
-41
-71
-107
-121
-105
-101
-120
-115
-101
-126
-122
-77
-108
-137
-8
151
292
528
518
3
-423
-334
-174
-222
-243
-190
-183
-194
-185
-180
-184
-192
-194
-177
-157
-134
-92
-68
-89
-103
-66
-4
47
96
163
241
299
318
305
260
180
89
11
-52
-102
-130
-139
-146
-162
-172
-159
-140
-140
-145
-133
-124
-136
-132
-97
-87
-115
-104
-34
20
16
-3
-7
-18
-46
-62
-58
-43
-17
-4
-16
0
20
-14
8
151
305
484
622
371
-149
-326
-142
-63
-104
-69
-39
-63
-56
-32
-37
-35
-15
2
25
59
90
113
135
156
171
187
216
257
298
329
350
364
366
347
311
257
190
127
79
36
1
-16
-24
-38
-57
-65
-58
-51
-56
-56
-51
-70
-96
-85
-67
-83
-99
-67
-13
-2
-45
-79
-75
-82
-106
-107
-104
-129
-155
-166
-155
-136
-174
-199
-84
45
155
459
649
228
-355
-429
-266
-280
-309
-246
-222
-234
-219
-206
-206
-199
-189
-177
-153
-122
-98
-79
-56
-28
3
42
82
111
142
180
204
214
209
185
149
101
34
-23
-47
-66
-99
-116
-97
-71
-71
-80
-64
-49
-62
-68
-47
-18
-2
-12
-31
-19
-1
2
40
102
96
38
11
7
-3
-4
-7
-24
-3
30
2
-25
17
67
122
217
331
506
632
402
-50
-215
-93
-43
-78
-65
-52
-64
-61
-54
-56
-47
-36
-36
-31
-16
3
16
21
35
72
109
127
147
188
239
287
315
309
283
253
210
152
94
45
7
-24
-52
-60
-54
-72
-103
-110
-116
-143
-143
-110
-111
-153
-162
-95
0
37
68
258
520
666
889
1275
1284
661
-22
-321
-400
-440
-447
-443
-446
-442
-440
-438
-429
-423
-420
-424
-445
-477
-510
-552
-594
-615
-620
-621
-597
-521
-411
-293
-168
-34
84
158
188
185
153
109
87
83
67
56
77
85
56
44
61
60
42
51
78
87
77
75
87
92
91
92
91
95
97
73
54
81
106
93
93
115
119
118
134
145
147
156
158
142
115
98
103
92
55
64
129
158
133
108
91
81
99
101
70
62
62
40
53
73
23
40
187
318
530
830
690
50
-321
-197
-93
-145
-146
-124
-138
-130
-106
-107
-127
-131
-96
-72
-93
-101
-68
-51
-62
-62
-31
22
60
69
80
113
165
231
264
220
147
111
81
18
-52
-94
-108
-111
-122
-142
-151
-147
-142
-141
-148
-160
-170
-181
-199
-212
-220
-224
-223
-232
-254
-230
-154
-116
-150
-187
-186
-170
-156
-144
-136
-124
-104
-101
-103
-88
-118
-178
-136
1
233
668
939
521
-167
-358
-203
-181
-227
-190
-157
-158
-148
-142
-136
-112
-85
-69
-62
-52
-21
17
31
37
60
81
92
114
131
136
165
213
233
221
199
167
121
77
56
57
58
54
61
83
95
79
60
67
90
127
186
236
329
535
714
804
1047
1349
1177
534
3
-182
-219
-229
-236
-259
-273
-273
-278
-277
-270
-273
-289
-315
-341
-355
-370
-398
-427
-450
-449
-409
-350
-279
-172
-44
64
147
205
228
223
182
119
76
56
29
-1
-27
-46
-51
-52
-62
-62
-46
-37
-41
-58
-86
-90
-69
-80
-116
-117
-82
-62
-65
-64
-48
-45
-65
-78
-70
-66
-66
-59
-49
-38
-23
-13
-13
-11
-3
1
-3
-7
-19
-42
-63
-66
-60
-64
-66
-41
2
17
-5
-31
-38
-32
-25
-20
-10
5
4
8
35
28
10
91
215
333
533
590
215
-201
-193
-27
-25
-50
-10
-4
-19
-14
-13
-15
-9
-6
-4
10
32
48
49
46
53
77
109
146
183
224
264
294
311
316
307
279
230
173
114
50
-6
-35
-52
-76
-83
-73
-81
-95
-86
-84
-109
-118
-108
-115
-122
-119
-139
-163
-148
-130
-145
-139
-84
-35
-34
-73
-109
-99
-77
-107
-154
-139
-90
-99
-134
-96
-64
-133
-141
-11
117
315
573
452
-70
-437
-501
-453
-289
-127
-126
-156
-121
-100
-89
-76
-88
-87
-58
-52
-60
-42
-8
21
47
85
137
194
239
284
342
381
377
363
337
252
131
48
-4
-65
-114
-129
-141
-158
-143
-120
-135
-154
-132
-91
-51
23
114
173
295
551
770
913
1163
1319
992
403
9
-182
-301
-329
-317
-342
-369
-368
-362
-370
-399
-436
-462
-471
-469
-481
-520
-545
-535
-523
-494
-411
-311
-215
-72
106
233
287
307
307
283
230
167
138
135
110
73
70
80
72
63
71
76
64
47
47
62
66
51
43
51
55
47
35
37
47
32
10
27
47
14
-25
-19
-2
-4
-14
-22
-21
-16
-28
-48
-57
-63
-68
-65
-61
-54
-43
-34
-8
29
29
-2
-16
-16
-21
-23
-30
-31
-20
-30
-35
4
3
-50
-6
108
208
428
613
327
-194
-332
-171
-130
-166
-137
-114
-117
-101
-83
-74
-60
-51
-46
-37
-31
-30
-30
-30
-26
-11
16
45
63
89
149
198
204
220
252
245
210
168
103
40
-1
-52
-84
-73
-85
-124
-117
-90
-103
-119
-92
-69
-87
-104
-84
-67
-87
-88
-46
-22
-26
4
44
25
-9
-10
-17
-39
-31
-6
2
5
5
-7
11
43
11
-11
84
207
370
648
676
186
-286
-278
-121
-127
-156
-127
-120
-142
-148
-134
-126
-141
-146
-129
-132
-149
-125
-74
-62
-67
-19
51
74
97
165
224
263
307
311
273
242
169
32
-57
-61
-81
-132
-154
-152
-155
-150
-136
-131
-139
-149
-135
-103
-108
-128
-90
-37
-18
49
177
314
533
801
965
1148
1433
1403
833
175
-185
-335
-403
-405
-398
-410
-411
-405
-400
-387
-377
-383
-396
-415
-442
-471
-501
-535
-568
-596
-612
-600
-555
-485
-385
-248
-97
33
126
184
213
210
181
152
133
117
103
101
104
103
94
75
58
62
80
83
73
73
79
75
71
87
103
92
82
109
129
101
73
81
92
83
74
70
72
80
84
92
108
94
66
89
138
130
77
47
38
28
20
15
12
15
9
9
37
35
7
71
192
294
512
711
453
-70
-239
-94
-47
-92
-84
-64
-61
-59
-68
-73
-66
-62
-61
-57
-57
-64
-57
-30
-28
-60
-40
36
74
78
111
142
147
167
185
155
106
55
-22
-90
-113
-137
-179
-187
-166
-172
-191
-189
-180
-179
-184
-193
-197
-180
-153
-139
-137
-134
-107
-65
-47
-49
-22
24
28
-11
-42
-60
-79
-91
-92
-100
-108
-108
-120
-123
-98
-108
-135
-62
61
178
377
451
103
-311
-317
-149
-146
-174
-124
-104
-112
-91
-83
-84
-47
-10
-14
-22
-22
-16
21
69
90
116
172
227
278
349
415
452
474
486
461
397
321
244
167
104
62
32
11
-6
-29
-47
-52
-52
-58
-64
-61
-52
-49
-45
-40
-49
-70
-79
-72
-59
-47
-44
-44
-22
21
52
45
7
-22
-21
-8
-6
-3
10
0
-40
-37
-3
-31
-37
81
214
393
678
635
58
-378
-277
-113
-159
-180
-137
-152
-175
-161
-163
-178
-175
-171
-181
-184
-171
-150
-129
-109
-84
-50
-9
52
126
181
224
282
326
320
287
243
161
60
-4
-37
-77
-115
-129
-136
-155
-172
-177
-179
-177
-174
-185
-197
-184
-166
-171
-184
-185
-182
-174
-163
-176
-194
-164
-104
-69
-48
-35
-58
-86
-74
-65
-95
-110
-74
-43
-61
-60
-14
-31
-77
13
175
344
614
683
221
-260
-229
-46
-76
-120
-77
-73
-90
-78
-77
-97
-105
-103
-105
-108
-104
-93
-78
-50
-13
25
76
146
209
254
300
344
369
376
365
326
261
187
125
83
47
10
-2
12
13
-14
-15
27
60
84
130
189
316
558
770
949
1318
1654
1393
636
9
-274
-371
-368
-350
-371
-346
-276
-272
-318
-342
-365
-389
-382
-391
-442
-487
-515
-551
-582
-589
-574
-530
-457
-363
-254
-145
-54
4
17
-1
-8
6
20
32
53
72
77
66
50
44
47
38
21
18
25
28
30
32
35
37
36
32
34
50
71
74
67
73
84
74
45
