# session 252
-506
-2434
-5718
-5068
-947
311
-754
-547
-100
-311
-84
237
184
391
743
850
1143
1627
1583
929
269
-125
-339
-354
-280
-330
-307
-170
-335
-390
69
-254
-1892
-3255
-3466
-2458
-582
-529
-3750
-6359
-4810
-1206
951
1351
1381
1534
1547
1443
1397
1335
1227
1167
1129
1066
1030
1036
1032
1002
994
1016
1033
1022
1004
993
973
943
926
939
917
812
770
891
978
956
961
889
806
937
834
545
909
734
-1198
-2125
-818
-760
-1938
-1118
-112
-1142
-1403
-144
108
-141
352
363
177
894
86
-3594
-5659
-3036
456
1220
772
884
1008
891
928
996
950
949
1004
1028
1004
955
916
893
834
724
626
578
518
438
413
375
296
321
296
128
289
406
-855
-2924
-3655
-2739
-1020
1097
1583
-1286
-3908
-2050
1045
-334
-4646
-5915
-2887
445
1480
1472
1746
1687
1061
731
833
836
725
679
627
552
508
463
414
393
372
326
283
262
262
271
278
287
300
311
324
339
345
337
318
282
228
159
98
76
78
61
38
34
21
-4
0
25
29
29
64
112
126
115
118
174
336
584
794
947
1093
1074
782
530
531
470
130
-218
-361
-401
-427
-427
-422
-436
-451
-468
-498
-535
-571
-618
-682
-748
-800
-834
-860
-869
-844
-789
-722
-642
-542
-438
-349
-268
-197
-154
-135
-116
-97
-89
-82
-68
-42
-28
-49
-63
-54
-75
-46
55
25
-6
170
106
-75
327
216
-1351
-2056
-590
512
108
-73
277
238
96
262
425
524
685
670
335
29
26
130
143
143
169
151
122
133
143
110
48
18
66
136
158
172
223
250
256
313
367
357
365
394
358
299
271
202
93
39
20
-24
-67
-81
-77
-77
-89
-85
-47
-29
-32
21
108
123
76
55
53
28
3
-18
-71
-100
-47
-18
-61
-50
38
209
506
612
228
-218
-264
-171
-204
-210
-166
-181
-200
-188
-183
-159
-127
-135
-137
-91
-64
-68
-34
36
83
117
169
209
215
209
201
176
118
45
-3
-27
-63
-108
-133
-143
-148
-147
-142
-122
-85
-64
-60
-31
18
45
72
130
198
302
463
618
769
944
943
614
183
-80
-179
-214
-241
-284
-319
-325
-323
-320
-319
-333
-356
-380
-414
-449
-469
-484
-494
-480
-448
-407
-314
-177
-71
0
71
103
83
66
64
40
-11
-69
-99
-78
-34
-30
-71
-107
-107
-98
-94
-78
-44
-11
8
15
27
58
85
76
41
14
5
4
11
26
24
25
53
51
25
86
197
291
448
512
209
-176
-218
-87
-60
-74
-73
-86
-73
-56
-78
-81
-49
-35
-23
21
72
112
143
179
237
310
368
413
456
476
458
414
351
269
177
100
47
7
-25
-41
-57
-87
-100
-77
-54
-48
-23
37
92
102
72
35
21
19
16
15
8
19
58
44
-6
64
214
356
591
717
354
-147
-197
-29
-53
-102
-74
-106
-66
-16
-215
-208
126
-383
-1844
-2791
-2918
-2592
-1363
139
534
299
428
587
517
530
555
459
391
357
274
195
153
127
113
103
88
74
60
50
41
32
44
79
113
120
93
54
30
15
2
-17
-38
-14
34
7
-26
37
84
189
584
837
407
-182
-256
-129
-169
-164
-80
-110
-170
-119
-49
-64
-137
-183
-176
-154
-95
6
40
-3
20
111
157
159
169
184
204
205
138
63
57
52
-15
-64
-29
38
81
94
104
122
102
16
-69
-69
-11
9
-44
-113
-140
-126
-93
-61
-58
-57
-24
-27
-73
-49
52
286
766
1058
613
-103
-321
-213
-235
-298
-271
-258
-276
-261
-237
-228
-217
-179
-92
41
181
288
357
408
445
455
430
405
408
397
337
264
205
144
74
15
-23
-53
-95
-148
-188
-219
-255
-282
-283
-279
-285
-269
-223
-191
-189
-200
-218
-234
-227
-200
-193
-200
-168
-139
-172
-163
-72
59
386
768
593
-60
-372
-240
-188
-263
-258
-236
-253
-245
-230
-231
-221
-202
-192
-175
-143
-112
-79
-36
6
42
77
106
122
135
142
122
81
35
-7
-32
-47
-77
-101
-84
-55
-67
-111
-122
-79
-65
-106
-87
19
97
118
124
110
87
88
100
105
111
138
160
122
83
125
202
393
759
866
424
-31
-48
48
-16
-71
-43
-35
-51
-48
-53
-65
-40
-5
-20
-46
-8
46
50
62
127
173
163
164
207
240
227
183
135
98
73
52
29
3
-13
-18
-39
-78
-94
-77
-62
-72
-90
-71
-19
-10
-52
-77
-99
-145
-124
-19
43
89
265
455
473
448
457
360
286
379
304
-66
-298
-268
-277
-325
-284
-271
-343
-372
-344
-342
-366
-378
-376
-394
-442
-465
-440
-422
-421
-394
-361
-342
-294
-220
-168
-132
-86
-43
-23
-19
-20
-21
-18
-12
-6
-2
1
5
21
55
82
93
117
160
182
158
126
120
122
105
96
110
130
136
114
103
153
227
349
559
553
116
-265
-183
-6
-38
-84
-67
-102
-141
-127
-109
-99
-76
-56
-44
-31
-9
35
87
127
180
259
318
350
393
428
420
378
316
246
181
108
51
55
58
6
-15
27
46
59
103
88
34
80
158
166
178
153
91
164
159
-17
130
235
-324
-583
-353
-1012
-1839
-1377
-671
-422
23
204
-82
12
284
202
169
282
240
187
239
259
260
276
263
271
311
297
269
337
456
520
549
574
581
611
617
517
464
414
177
163
307
-140
-236
616
-370
-3524
-4261
-2045
-1012
-1080
7
640
-92
146
825
-950
-3249
-2192
338
734
98
302
547
367
322
395
464
593
679
689
553
200
-17
117
246
219
234
256
204
199
217
170
161
186
144
164
260
89
-541
-1376
-1734
-1014
197
691
494
427
538
519
441
377
289
218
184
161
144
116
72
42
49
75
80
59
63
104
140
161
184
188
141
74
45
47
44
53
25
-51
-16
19
-123
35
456
-50
-1243
-1298
-357
-20
-191
-103
-20
-102
-81
-31
-53
-63
-69
-59
8
38
3
14
83
129
159
224
313
376
382
388
448
476
423
383
318
180
124
96
-33
-12
53
-166
-106
192
-653
-1993
-1528
25
388
8
101
215
54
20
41
-29
-11
75
93
95
110
86
80
134
187
370
782
913
386
-174
-194
-30
-31
-50
-16
-19
-52
-41
6
-30
-89
-19
-64
-198
98
104
-1226
-2277
-1188
418
613
309
406
401
293
331
251
172
200
-5
-15
337
-249
-1539
-1328
88
514
130
177
341
278
343
410
294
310
376
205
216
417
117
24
644
-208
-2544
-2383
219
739
-993
-1849
-1742
-1489
-553
416
450
258
378
381
292
343
353
301
315
308
262
296
345
323
319
380
452
527
602
660
694
662
630
662
571
404
425
333
74
241
268
-719
-1470
-1028
-886
-1654
-1779
-730
245
381
198
254
309
183
216
228
-49
79
435
-356
-1457
-867
373
446
181
425
596
701
883
591
22
-62
157
145
77
163
125
-8
100
137
-72
126
326
-526
-1457
-1455
-1507
-1510
-442
507
287
86
396
478
398
483
507
424
390
369
310
251
215
194
171
164
191
224
287
399
479
601
946
1313
1464
1680
1936
1628
874
283
-184
-372
-107
-379
-1249
-1280
-939
-1426
-1521
-622
-332
-804
-904
-817
-940
-932
-797
-751
-682
-538
-383
-197
-3
141
236
265
244
232
215
213
268
261
207
277
254
108
282
327
-97
253
640
-1586
-4054
-2190
937
-146
-2573
-1559
319
-285
-1050
-139
492
130
92
403
461
492
571
520
490
539
542
523
509
484
481
449
399
487
616
678
951
1301
1032
293
-4
171
209
131
165
141
68
109
103
67
210
42
-840
-1478
-956
-5
333
230
232
295
259
223
233
231
240
276
278
246
228
195
115
58
59
64
73
95
81
105
185
128
70
238
263
192
525
528
115
888
1329
-1264
-3090
-355
1944
202
-1089
-328
-824
-1728
-719
257
-175
-473
-286
-341
-372
-219
-211
-265
-270
-342
-416
-420
-438
-444
-369
-265
-165
-45
89
201
240
219
221
231
185
155
167
142
145
166
46
35
248
-133
-1346
-2084
-1632
-794
-168
257
385
291
238
231
217
222
195
132
121
162
173
148
164
227
242
236
291
303
273
379
540
759
1230
1427
762
8
0
210
134
81
134
119
118
112
85
165
104
-107
116
237
-699
-1407
-531
486
357
-26
-98
-171
-108
144
282
349
462
464
347
267
233
201
180
154
101
67
88
141
180
177
161
188
245
266
246
216
145
68
127
210
86
4
139
-116
-1124
-2299
-2803
-2009
-309
714
509
-25
-581
-917
-655
-1030
-2379
-2280
-447
420
37
62
332
241
209
299
282
328
430
431
463
586
652
662
699
725
701
620
511
466
414
246
190
239
84
98
356
-269
-1600
-2019
-1706
-1522
-798
325
618
381
372
241
-62
-94
9
41
153
292
319
351
403
362
361
460
543
797
1207
1083
352
-75
61
173
109
92
102
95
82
49
98
169
50
-18
168
-97
-1391
-2876
-3094
-1688
62
739
558
508
641
597
505
453
301
136
93
99
74
46
48
71
82
89
124
144
121
132
218
304
315
262
230
262
245
147
160
220
98
61
197
33
-46
372
52
-1144
-1362
-820
-913
-744
149
376
-46
-154
-159
-234
-80
84
88
148
222
198
207
257
245
242
282
267
244
308
372
361
357
401
410
334
278
259
130
38
137
23
-171
174
44
-1592
-2892
-2331
-1333
-752
64
665
499
325
438
278
-92
-215
-218
-279
-100
157
32
151
673
17
-1510
-1193
801
1649
1008
442
301
326
453
410
289
399
393
210
377
381
-31
445
724
-1689
-3620
-1173
1179
-577
-1966
-781
-722
-1343
88
1352
586
-100
69
8
-111
95
278
424
628
681
592
568
612
624
583
534
534
584
620
626
597
511
458
497
484
424
454
431
359
447
380
140
482
757
-692
-2812
-2909
-1242
-85
236
350
-99
-402
206
-556
-3191
-3454
-619
831
154
120
599
440
343
549
499
446
627
632
602
863
794
509
1026
737
-2428
-5139
-3453
-92
994
530
273
579
881
-90
-1406
-1051
-715
-1769
-1461
556
1216
608
623
861
767
866
1140
1298
1434
1667
2043
2354
2128
1356
610
257
180
155
98
41
14
-8
-35
-58
-122
-204
-200
-217
-349
-388
-406
-607
-535
-256
-918
-2309
-2886
-2567
-1937
-731
479
563
21
-216
-446
-741
-456
-41
-433
-828
-179
563
490
328
481
492
388
425
469
442
438
469
512
543
526
481
415
357
384
400
310
305
306
75
103
486
176
-781
-1324
-1667
-1835
-883
382
447
-103
-310
-447
-597
-379
-18
-125
-482
-262
382
582
410
435
530
463
436
506
525
535
593
606
607
681
663
531
531
509
328
401
413
-55
151
617
-1196
-3378
-1821
549
-653
-2110
-580
816
386
221
506
253
85
147
-186
-321
136
249
96
452
331
-734
-849
338
992
997
1134
833
179
105
294
241
226
188
149
321
168
-40
454
89
-1548
-1323
338
-384
-1969
-1467
-1119
-1631
-482
1054
699
19
156
143
12
180
234
145
237
372
371
351
380
373
311
297
343
371
369
315
298
453
479
282
385
419
-20
332
821
-1066
-2813
-951
230
-2357
-3268
-978
-769
-2012
-632
1082
520
19
471
321
-10
155
-10
-131
575
514
-1075
-1587
-34
998
607
440
732
701
630
773
795
817
979
909
792
1022
810
-167
-466
287
695
502
412
408
409
323
70
289
399
-1184
-2833
-1916
-224
-295
-846
-555
-308
-359
-137
215
417
524
534
510
551
542
481
541
637
679
846
959
611
132
92
291
307
228
255
280
177
152
250
46
-242
116
365
-829
-2706
-3526
-2831
-1254
155
769
702
260
354
886
-618
-3531
-3223
-105
994
154
176
528
307
259
378
287
291
392
351
329
407
410
384
446
434
308
305
311
177
278
389
18
89
590
-308
-1539
-995
-908
-2206
-1438
816
775
-387
-169
278
133
206
369
286
281
348
327
333
339
284
298
375
345
269
312
375
346
371
489
504
426
404
394
371
347
186
49
176
-23
-830
-873
220
127
-1724
-2295
-657
444
81
-157
32
10
-62
-25
-31
-30
-5
-6
36
90
72
83
134
94
95
284
444
563
866
952
401
-158
-106
138
122
39
60
48
-20
-17
-31
-116
27
51
-1180
-3170
-3464
-1490
349
611
357
429
519
549
648
652
566
538
480
365
328
318
235
181
202
183
153
222
307
320
357
493
727
1027
1246
1387
1507
1177
361
35
204
-337
-1374
-1841
-1834
-1402
-423
80
-359
-815
-970
-1026
-864
-780
-780
-384
-448
-1575
-1891
-551
439
305
294
593
615
518
552
593
520
429
481
506
387
455
515
230
375
814
-207
-1988
-1602
549
1087
-417
-1059
-306
-656
-1785
-1084
408
345
-177
105
290
164
326
557
615
695
753
683
620
653
703
675
596
599
665
618
573
770
981
1024
1257
1331
489
-47
716
-181
-4115
-5798
-2330
731
-499
-2753
-3113
-2048
-483
691
999
636
53
354
680
-1697
-4441
-2717
964
1628
796
1090
1355
998
917
982
851
770
745
685
693
726
675
599
592
610
551
493
577
664
638
721
860
835
993
1243
1020
1195
1959
698
-2441
-2973
-525
497
-546
-1000
-734
-718
-615
-336
-240
-171
-48
-61
-139
-160
-212
-314
-376
-389
-392
-383
-351
-285
-160
1
117
154
161
165
136
87
62
55
33
-44
-136
-107
-59
-85
70
-204
-1969
-3536
-2309
-161
-42
