# session 23
-29
-73
132
317
441
696
680
95
-387
-301
-123
-159
-180
-145
-168
-192
-171
-156
-158
-155
-139
-122
-113
-97
-67
-42
-15
36
97
152
204
229
207
161
106
30
-60
-138
-198
-236
-252
-274
-310
-331
-311
-270
-237
-203
-161
-137
-130
-112
-88
-85
-104
-125
-112
-55
-4
-9
-51
-72
-66
-67
-68
-46
-31
-16
23
13
-9
119
288
391
660
901
534
-116
-248
-10
48
-1
41
79
81
103
122
133
156
185
220
264
301
326
354
403
468
532
586
640
692
726
722
668
573
471
379
297
223
154
83
23
-15
-38
-44
-32
-18
19
88
146
245
450
662
857
1116
1202
833
276
-79
-269
-413
-461
-447
-470
-527
-578
-620
-651
-667
-682
-722
-777
-820
-841
-837
-803
-750
-673
-590
-560
-556
-468
-345
-350
-484
-578
-516
-365
-291
-323
-333
-259
-176
-124
-66
15
97
157
181
161
117
79
50
49
73
75
68
105
145
139
129
142
153
155
165
171
159
130
84
13
-72
-146
-196
-218
-212
-204
-214
-214
-155
-79
-89
-193
-290
-321
-309
-289
-298
-329
-337
-348
-397
-381
-260
-106
99
241
21
-393
-499
-349
-295
-272
-136
-12
57
151
244
296
348
410
458
486
506
536
578
607
632
680
732
772
802
808
780
749
722
674
608
538
454
373
324
280
217
177
176
178
179
181
185
223
282
340
486
727
909
1050
1211
1133
661
122
-218
-423
-534
-596
-746
-935
-970
-877
-828
-844
-844
-813
-789
-792
-814
-827
-816
-787
-725
-600
-428
-251
-80
74
173
206
215
211
166
108
90
81
51
46
78
85
55
32
33
40
40
39
42
33
21
28
34
30
28
11
-19
-31
-36
-48
-45
-21
7
20
1
-32
-52
-66
-79
-86
-100
-115
-109
-80
-23
42
25
-75
-135
-130
-131
-119
-68
-28
2
21
9
102
326
488
679
940
740
48
-293
-98
7
-94
-94
-28
-39
-81
-104
-115
-119
-126
-151
-193
-223
-218
-184
-143
-96
-17
89
151
160
203
264
235
139
76
38
-31
-125
-185
-173
-151
-188
-237
-221
-171
-151
-161
-154
-128
-124
-124
-157
-347
-653
-891
-1062
-1219
-1209
-944
-611
-386
-240
-117
-63
-60
19
163
252
297
341
357
372
435
524
612
699
791
893
959
962
973
990
903
754
664
598
495
398
324
240
131
22
-29
-23
-41
-90
-115
-127
-137
-125
-108
-108
-108
-96
-82
-83
-92
-72
-31
-25
-48
-42
-16
-12
-23
-25
-29
-46
-58
-46
-42
-73
-87
-34
52
116
141
112
67
65
79
78
91
95
89
103
75
64
214
386
528
847
983
430
-252
-362
-277
-443
-633
-705
-786
-845
-816
-767
-742
-710
-655
-591
-539
-499
-471
-435
-360
-250
-140
-32
75
143
170
203
228
198
149
128
98
53
39
41
19
3
13
7
-21
-30
-20
-16
-22
-34
-45
-32
-8
-16
-39
-31
-22
-64
-126
-143
-112
-77
-51
-14
17
33
62
66
38
114
283
407
607
830
590
-25
-279
-102
-10
-48
-11
19
-20
-42
-24
-2
4
-3
4
23
21
24
62
100
129
189
273
346
397
414
395
365
318
234
133
60
30
9
-28
-60
-67
-65
-63
-58
-61
-68
-64
-68
-93
-108
-93
-88
-108
-113
-81
-48
-43
-64
-86
-88
-85
-91
-82
-67
-65
-45
-34
-64
-24
102
205
388
606
419
-118
-363
-218
-116
-132
-105
-70
-79
-95
-103
-104
-92
-77
-69
-66
-68
-71
-59
-17
33
64
104
168
209
211
217
219
167
78
-2
-68
-121
-149
-168
-193
-208
-203
-192
-185
-185
-186
-184
-184
-195
-201
-186
-161
-150
-153
-139
-93
-52
-60
-104
-127
-119
-119
-127
-113
-96
-82
-54
-66
-79
34
177
266
468
597
231
-290
-347
-135
-90
-122
-83
-58
-71
-84
-98
-89
-54
-46
-64
-44
10
41
50
83
140
197
268
350
398
404
397
368
293
193
107
54
28
12
1
15
54
108
196
299
430
703
1048
1265
1516
1918
1926
1194
313
-143
-279
-301
-263
-273
-362
-432
-463
-499
-533
-555
-602
-676
-725
-733
-742
-739
-656
-541
-505
-533
-544
-526
-512
-538
-617
-667
-605
-489
-412
-362
-303
-248
-216
-196
-147
-67
-19
-26
-12
45
73
70
92
115
105
116
165
178
146
155
204
221
220
246
250
215
207
222
215
230
271
261
219
223
240
211
179
196
217
197
182
234
318
349
318
283
270
255
243
239
218
215
257
223
134
162
206
219
423
487
-110
-820
-914
-742
-736
-706
-590
-520
-462
-404
-383
-339
-274
-245
-226
-189
-148
-87
-15
19
35
108
226
304
306
286
294
304
269
207
168
133
55
-17
-22
-10
-33
-50
-30
-9
-9
-11
0
16
18
10
11
22
23
2
-25
-14
38
73
51
10
-8
-20
-39
-37
-24
-36
-28
7
-30
-61
57
201
342
625
698
197
-329
-329
-150
-141
-142
-100
-113
-126
-89
-63
-66
-64
-49
-38
-40
-40
-17
19
51
90
149
218
278
313
320
300
253
180
85
-6
-74
-128
-169
-171
-153
-157
-181
-200
-209
-204
-186
-175
-185
-196
-186
-163
-157
-165
-147
-94
-44
-27
-39
-61
-67
-63
-63
-55
-46
-49
-30
-5
-33
-15
108
220
362
551
423
-54
-310
-184
-73
-88
-82
-65
-51
-19
-20
-51
-37
8
17
-2
3
39
70
86
113
163
212
257
307
340
339
319
278
206
129
76
35
1
-16
-18
-16
-13
-14
-19
-19
-12
-12
-21
-30
-40
-55
-62
-49
-41
-53
-47
-7
23
9
-26
-54
-67
-67
-70
-82
-119
-219
-387
-553
-570
-375
-163
-17
300
601
325
-276
-433
-210
-135
-183
-147
-98
-94
-87
-71
-61
-63
-73
-64
-40
-32
-26
8
61
111
156
209
267
311
326
321
306
257
154
34
-57
-108
-141
-168
-175
-161
-149
-154
-163
-170
-178
-179
-163
-149
-163
-174
-149
-142
-184
-180
-94
-26
-17
-34
-76
-108
-64
44
193
360
457
462
400
278
241
364
464
611
891
762
47
-403
-235
-74
-139
-137
-87
-112
-138
-136
-136
-125
-108
-88
-66
-71
-81
-42
20
61
112
202
300
366
384
376
358
297
180
66
4
-34
-78
-109
-108
-95
-94
-93
-76
-66
-67
-54
-37
-32
-34
-49
-63
-44
-33
-66
-65
15
88
100
80
52
29
28
44
66
58
34
68
95
5
-86
-123
-182
-80
126
-136
-774
-971
-689
-533
-534
-449
-374
-367
-321
-257
-231
-201
-153
-120
-96
-69
-39
8
62
95
136
228
318
350
375
411
390
301
203
117
63
52
35
-21
-56
-24
17
42
96
184
319
551
792
965
1199
1389
1126
472
-45
-250
-324
-329
-286
-292
-352
-399
-427
-462
-505
-534
-557
-603
-650
-659
-655
-649
-590
-467
-325
-180
-36
92
186
230
223
197
171
140
110
91
87
86
60
23
31
67
63
34
21
3
-22
-30
-21
-5
5
-12
-31
-15
14
20
23
39
46
48
60
65
59
66
77
77
78
82
75
63
57
44
28
22
15
-5
-15
0
19
20
21
53
108
137
117
85
73
65
68
98
111
97
110
114
103
183
318
451
726
922
559
-49
-189
0
28
-27
11
22
-20
-22
6
22
26
13
1
13
30
35
48
99
162
184
184
228
294
313
310
285
153
-27
-106
-136
-229
-322
-347
-355
-387
-435
-483
-498
-488
-493
-510
-518
-510
-475
-435
-429
-439
-425
-398
-395
-413
-378
-276
-203
-208
-227
-232
-247
-252
-218
-162
-128
-109
-53
-11
-47
7
231
411
618
968
904
186
-318
-162
26
-45
-70
-22
-33
-34
3
17
24
39
45
72
119
132
125
168
245
300
359
454
538
573
576
556
499
414
323
238
157
85
44
33
20
-4
-48
-165
-334
-423
-389
-342
-336
-317
-271
-234
-195
-136
-104
-107
-76
23
117
128
83
49
12
-60
-94
-58
-43
-47
21
62
42
166
380
503
769
1075
742
-43
-334
-137
-97
-214
-228
-232
-306
-354
-355
-367
-371
-318
-242
-197
-159
-103
-50
10
95
172
237
317
390
427
433
394
304
221
169
111
37
-26
-70
-101
-127
-155
-167
-142
-76
24
127
269
522
781
940
1167
1421
1234
553
-77
-392
-563
-648
-634
-625
-648
-644
-617
-596
-597
-620
-630
-622
-643
-692
-716
-697
-654
-585
-461
-282
-107
22
124
196
210
184
148
120
104
90
57
30
40
58
45
33
47
61
67
70
46
18
26
28
-11
-33
-7
12
-1
-31
-66
-66
-28
-16
-47
-64
-61
-64
-68
-77
-90
-81
-61
-66
-71
-45
-27
-31
-4
49
66
50
68
135
201
227
215
192
181
181
191
204
200
200
216
194
176
267
401
557
810
861
408
-96
-129
41
48
7
25
18
-3
-2
-13
-24
-16
-19
-33
-31
-31
-44
-35
5
37
59
92
126
145
164
172
150
105
55
4
-40
-76
-112
-144
-165
-178
-185
-187
-185
-177
-164
-153
-148
-146
-143
-145
-156
-170
-168
-145
-129
-138
-133
-82
-31
-27
-50
-68
-73
-76
-90
-94
-86
-90
-71
-32
-65
-82
53
212
388
690
698
104
-423
-364
-175
-201
-219
-169
-177
-198
-184
-186
-210
-219
-205
-175
-142
-119
-99
-65
-10
66
150
224
282
330
361
363
322
243
150
63
-11
-63
-94
-112
-125
-141
-150
-146
-141
-142
-142
-137
-136
-142
-138
-126
-133
-144
-139
-141
-137
-81
-6
28
29
7
-16
-8
0
-5
-8
-37
-41
22
0
-59
150
459
566
774
1046
689
-78
-321
-119
-85
-139
-87
-88
-154
-159
-145
-157
-143
-105
-94
-101
-96
-89
-76
-21
51
79
141
272
293
238
472
909
987
666
393
277
162
57
6
-21
-51
-87
-104
-108
-110
-7
217
357
399
583
855
1018
1277
1739
1868
1277
400
-184
-421
-518
-584
-643
-683
-705
-732
-756
-762
-780
-823
-865
-919
-995
-1051
-1075
-1085
-1042
-926
-785
-624
-425
-246
-145
-92
-65
-76
-101
-113
-131
-160
-173
-182
-202
-208
-199
-196
-195
-188
-183
-178
-179
-187
-172
-138
-121
-115
-95
-71
-53
-31
-8
1
0
10
34
44
41
48
55
51
58
78
91
90
76
71
100
132
129
136
200
267
269
228
194
168
148
154
184
188
168
187
211
186
233
384
521
737
1010
853
237
-122
4
137
102
82
97
93
99
107
103
112
133
139
142
163
187
201
219
262
322
386
440
478
513
536
533
533
547
540
500
456
411
357
315
296
277
250
241
253
264
274
288
301
314
326
333
339
341
339
355
376
347
287
252
228
181
115
41
-7
-1
19
6
-39
-94
-140
-204
-299
-322
-246
-181
-117
-89
-372
-882
-1093
-940
-826
-847
-846
-822
-822
-834
-845
-854
-884
-954
-1012
-1020
-1016
-1035
-1051
-1049
-1029
-984
-923
-876
-842
-799
-762
-777
-843
-920
-978
-1020
-1059
-1090
-1096
-1106
-1145
-1123
-942
-663
-420
-230
-59
90
204
297
372
430
492
542
507
384
324
418
549
600
615
637
619
540
486
517
570
591
637
696
682
712
899
1059
1176
1417
1430
884
352
366
546
523
467
486
490
483
484
465
444
450
449
422
403
398
376
359
385
428
450
470
488
471
425
385
344
276
190
123
81
39
3
2
24
45
76
110
120
121
149
188
209
225
252
266
270
293
330
346
345
364
410
424
361
247
142
74
20
-31
-43
-44
-83
-91
-90
-185
-197
3
142
219
433
343
-303
-738
-568
-372
-397
-369
-297
-308
-325
-320
-345
-375
-376
-376
-402
-443
-481
-507
-500
-452
-405
-378
-326
-241
-183
-179
-206
-269
-371
-473
-544
-600
-648
-680
-690
-688
-683
-677
-667
-652
-634
-610
-582
-563
-553
-536
-521
-520
-508
-496
-517
-524
-463
-389
-375
-405
-439
-473
-517
-556
-545
-523
-587
-637
-530
-419
-380
-183
140
417
802
1088
724
97
18
265
311
307
399
420
401
445
483
486
490
494
519
564
581
587
613
627
639
702
790
846
882
909
904
858
773
659
547
463
400
346
300
261
232
218
214
206
195
203
220
216
199
193
182
156
140
131
92
50
63
110
131
122
102
67
26
-2
-16
-8
-3
-38
-58
-47
-92
-106
35
165
266
518
558
30
-474
-430
-252
-284
-320
-293
-305
-306
-276
-274
-285
-284
-282
-264
-231
-218
-212
-178
-129
-84
-23
57
134
184
195
181
152
83
-19
-104
-166
-234
-285
-305
-329
-358
-359
-340
-328
-322
-310
-290
-269
-256
-251
-251
-251
-244
-232
-224
-215
-196
-177
-153
-105
-50
-29
-54
-88
-97
-82
-61
-39
-31
-41
-41
-43
-62
-13
96
174
359
661
590
46
-315
-225
-102
-123
-126
-100
-107
-113
-103
-88
-72
-59
-50
-41
-34
-15
27
72
105
143
199
256
301
337
360
363
339
285
211
141
83
36
7
-8
-25
-37
-36
-32
-29
-25
-17
-7
4
15
23
25
28
31
20
6
7
23
38
45
44
62
102
113
83
54
36
8
-17
-20
-20
-41
-52
-23
-21
-58
-11
112
200
299
324
29
-353
-368
-170
-128
-166
-134
-109
-120
-114
-97
-88
-81
-75
-66
-52
-32
-4
30
65
105
157
221
286
333
358
368
356
309
230
140
59
-11
-66
-95
-110
-125
-129
-128
-136
-135
-114
-102
-103
-86
-53
-26
-18
-28
-38
-34
-36
-55
-67
-64
-66
-75
-60
-10
42
56
30
-12
-40
-45
