# session 203
-33
-45
-54
-88
-134
-156
-170
-188
-187
-169
-157
-141
-95
-40
-28
-67
-94
-91
-93
-105
-109
-99
-74
-74
-111
-78
65
227
346
299
-8
-293
-268
-136
-131
-154
-126
-115
-123
-117
-105
-85
-57
-38
-30
-23
-7
28
64
80
96
124
146
150
141
125
102
65
21
-15
-43
-69
-90
-97
-72
-34
-15
41
172
259
305
484
726
893
1159
1445
1247
574
10
-220
-300
-319
-311
-337
-370
-363
-353
-368
-387
-390
-392
-410
-439
-458
-458
-448
-422
-368
-286
-191
-100
-24
34
68
74
56
34
26
29
23
9
15
36
34
18
20
24
7
-12
-14
-16
-22
-4
60
125
128
90
71
76
108
184
285
416
578
658
593
485
410
440
637
697
309
-157
-254
-181
-213
-253
-237
-234
-250
-272
-299
-308
-316
-339
-355
-362
-382
-397
-390
-383
-370
-333
-299
-277
-232
-173
-127
-86
-47
-25
-16
-14
-16
-11
-2
-13
-21
34
128
165
127
81
63
60
69
63
45
70
86
30
56
218
334
433
536
335
-86
-192
-19
18
-46
-31
-11
-27
-20
-10
-12
-3
11
19
25
34
55
84
112
142
177
201
212
218
214
190
145
87
33
-13
-56
-85
-84
-83
-115
-131
-72
23
61
25
-25
-56
-62
-51
-59
-70
-44
-57
-112
-29
171
310
440
487
181
-227
-270
-123
-124
-171
-152
-150
-162
-148
-139
-142
-133
-118
-108
-103
-88
-58
-36
-23
6
43
51
42
46
44
15
-14
-35
-71
-108
-120
-132
-147
-135
-118
-115
-68
17
44
1
-37
-56
-70
-68
-70
-80
-57
-52
-94
-43
141
332
482
469
134
-233
-250
-104
-92
-121
-97
-101
-123
-103
-75
-71
-65
-51
-42
-34
-10
21
46
76
111
139
157
170
164
141
117
89
42
-11
-48
-68
-86
-94
-83
-69
-56
-8
58
81
63
64
107
154
197
323
531
693
919
1362
1599
1147
357
-135
-279
-323
-345
-350
-357
-360
-356
-355
-354
-357
-367
-383
-409
-433
-442
-444
-436
-395
-325
-262
-200
-118
-39
11
39
48
29
-1
-20
-27
-22
-17
-31
-51
-43
-20
-23
-25
28
91
85
34
0
-17
-22
-2
-1
-29
-20
-8
-53
-36
97
231
385
501
275
-150
-265
-126
-110
-162
-136
-128
-149
-136
-127
-135
-118
-80
-50
-39
-34
-8
32
59
85
125
166
189
190
174
158
139
109
75
36
-20
-62
-56
-31
-34
-38
6
76
98
68
39
16
-8
-12
-22
-48
-16
33
-13
-22
134
303
429
506
278
-160
-280
-93
-32
-97
-94
-78
-90
-73
-55
-58
-52
-45
-42
-23
6
22
36
58
84
114
135
134
122
111
87
42
-4
-35
-65
-101
-120
-116
-117
-138
-137
-68
22
49
19
-17
-55
-76
-56
-48
-68
-51
-39
-80
-34
138
303
461
500
180
-220
-241
-73
-74
-138
-131
-122
-122
-104
-99
-102
-93
-88
-87
-68
-35
-5
19
51
87
108
116
117
111
94
69
38
1
-42
-87
-115
-113
-98
-98
-108
-92
-30
29
24
-23
-54
-69
-81
-78
-80
-82
-55
-65
-112
-33
150
277
382
375
63
-262
-223
-61
-72
-122
-107
-97
-87
-61
-54
-47
-18
6
13
22
37
55
81
101
111
120
127
126
123
112
79
36
-2
-39
-72
-98
-117
-113
-87
-75
-52
23
80
52
3
-10
-21
-31
-21
-20
-10
20
-6
-37
68
254
415
517
380
-8
-231
-134
-45
-86
-100
-82
-93
-88
-64
-59
-63
-60
-60
-50
-20
13
39
63
90
124
151
157
153
139
110
77
41
-9
-53
-73
-95
-116
-100
-74
-73
-42
36
65
16
-30
-48
-64
-65
-61
-77
-71
-46
-75
-81
50
249
437
510
260
-165
-301
-158
-105
-160
-159
-140
-145
-130
-108
-104
-99
-86
-72
-50
-30
-17
12
59
93
106
116
125
131
129
100
52
13
-21
-65
-97
-106
-106
-97
-81
-57
-7
53
64
24
-14
-38
-51
-45
-46
-59
-36
-30
-82
-40
141
323
475
481
141
-247
-252
-85
-78
-116
-95
-100
-113
-90
-79
-85
-77
-60
-45
-35
-36
-23
9
37
63
98
117
110
96
82
62
28
-18
-55
-78
-113
-143
-131
-120
-150
-134
-40
12
-29
-69
-79
-97
-85
-23
33
103
239
396
578
846
1123
1299
1267
841
146
-301
-346
-330
-391
-406
-384
-387
-386
-366
-368
-404
-440
-458
-477
-503
-521
-531
-527
-488
-427
-368
-299
-209
-119
-52
-16
1
11
10
-3
-20
-28
-17
4
17
44
107
154
135
91
74
70
64
63
62
80
101
70
53
175
400
648
789
577
110
-116
-8
60
1
-9
19
10
5
26
32
22
27
62
103
125
145
183
214
240
286
326
324
308
298
273
226
171
114
69
47
30
16
25
46
55
79
140
192
185
140
104
91
92
94
82
86
127
132
119
229
435
617
738
618
188
-122
-62
27
-30
-57
-32
-28
-33
-52
-42
-18
-59
-32
44
-72
-32
209
-112
-181
713
-514
-4734
-6484
-4485
-4194
-5248
-2790
873
1313
461
705
881
604
625
690
609
676
753
675
609
602
578
555
543
528
539
553
514
510
622
730
738
626
336
43
68
290
364
319
327
340
306
287
307
313
287
263
268
279
275
279
314
361
391
415
414
375
398
444
338
255
284
97
-14
201
-80
-333
515
-30
-3214
-4190
-1066
1041
310
-52
399
245
49
214
180
84
153
131
75
160
230
255
301
159
-158
-243
-69
10
-38
-48
-40
-56
-57
-52
-56
-52
-46
-46
-39
-19
1
27
69
113
137
154
183
199
180
143
102
53
4
-35
-68
-77
-52
-37
-66
-75
-17
44
34
-12
-47
-72
-82
-63
-58
-71
-53
-51
-101
-90
-4
76
213
300
53
-322
-367
-210
-187
-233
-228
-226
-224
-200
-197
-196
-160
-128
-122
-101
-53
-8
17
44
90
142
173
186
186
175
159
128
72
7
-44
-68
-59
-43
-47
-52
-30
15
44
23
-22
-50
-63
-67
-51
-48
-55
-32
-36
-100
-119
-55
77
295
383
111
-208
-206
-81
-81
-105
-82
-79
-91
-85
-79
-73
-53
-34
-18
7
38
66
89
115
139
156
166
173
166
145
122
84
20
-37
-58
-51
-33
-16
-16
-21
-3
29
47
34
4
-6
8
7
0
10
13
-9
-34
-42
-20
26
90
158
102
-119
-253
-161
-52
-46
-43
-17
-12
-10
-8
-24
-39
-44
-42
-35
-30
-24
1
33
53
78
125
172
191
186
172
158
137
90
32
-1
-3
7
12
6
3
30
72
94
102
112
135
185
253
333
458
610
751
959
1271
1419
1106
459
-97
-346
-405
-432
-455
-463
-467
-478
-497
-528
-567
-612
-668
-721
-759
-790
-813
-813
-776
-695
-582
-461
-330
-182
-55
19
53
71
69
55
47
48
41
30
34
41
24
10
49
116
143
118
89
69
49
46
57
48
47
76
63
27
114
265
322
369
386
132
-214
-200
41
88
0
14
48
-1
-29
6
20
-3
-11
3
24
57
104
153
183
195
226
286
336
364
379
355
287
209
130
44
-27
-57
-62
-77
-101
-86
-19
35
25
-10
-29
-44
-54
-43
-44
-61
-39
-18
-53
-47
26
89
249
474
360
-81
-291
-168
-98
-148
-146
-123
-142
-140
-115
-140
-191
-178
-125
-126
-167
-165
-114
-74
-69
-45
20
60
44
34
46
28
-20
-72
-126
-160
-157
-139
-121
-98
-82
-64
-20
25
28
4
-12
-18
-24
-16
-13
-35
-38
-18
-50
-77
-5
83
198
415
432
44
-279
-210
-80
-104
-115
-74
-72
-83
-80
-86
-76
-36
-29
-49
-24
22
32
52
109
152
167
173
189
239
268
200
108
85
64
-1
-44
-53
-39
10
28
-5
15
57
58
109
99
-132
-255
-32
151
71
2
58
67
1
-10
48
110
270
492
403
-21
-258
-159
-80
-116
-109
-75
-74
-69
-47
-36
-32
-20
-1
17
30
55
102
153
183
195
214
247
266
261
269
270
209
142
143
108
18
28
37
-57
10
80
-117
28
300
-208
-101
857
-1069
-5001
-4526
-373
1052
9
122
589
242
197
485
473
552
739
492
74
20
159
186
174
188
178
164
155
126
108
124
142
139
128
131
147
162
185
226
254
267
310
356
341
290
237
162
102
86
37
-26
-18
-30
-79
-45
-64
-143
-39
-12
-111
142
79
-449
243
487
-3062
-6278
-3854
-282
-347
-720
507
832
376
639
926
663
351
181
132
262
407
232
-183
-219
213
442
318
284
364
360
345
363
343
334
380
407
396
407
433
427
403
400
393
329
228
178
187
165
92
61
90
92
55
43
44
22
20
70
101
67
19
6
1
-10
-2
3
-19
-5
31
-14
-36
95
208
285
503
554
139
-247
-200
-81
-136
-165
-119
-132
-174
-156
-114
-117
-127
-92
-55
-60
-61
2
61
38
53
145
124
101
211
117
41
290
-24
-421
551
244
-3437
-5380
-2556
-18
-192
-118
493
278
82
305
291
232
342
326
240
244
234
197
209
216
198
227
259
212
204
308
418
591
829
737
247
-64
37
137
52
24
102
107
88
135
108
94
203
104
33
355
164
-212
702
507
-2867
-4459
-1308
1243
530
36
576
454
172
313
275
150
228
252
190
210
244
227
215
219
206
176
165
178
175
166
188
217
226
242
253
218
161
124
154
228
187
124
270
276
68
353
631
238
759
1526
-1366
-5790
-5003
-304
1509
-138
-1319
-779
200
528
329
276
373
334
310
371
361
332
385
445
443
431
471
562
630
588
515
529
474
348
427
452
281
464
499
-31
447
1012
-1633
-4750
-3165
372
1118
257
-558
-1458
-1260
-6
453
209
326
503
415
350
342
343
394
381
286
280
343
328
317
422
538
698
997
1074
622
66
-11
302
318
5
307
569
-1656
-5514
-6343
-2929
255
-138
-2028
-1970
-201
791
586
508
750
768
712
776
773
700
672
662
641
596
528
504
520
501
462
458
479
500
493
418
316
280
308
287
200
128
64
-15
-37
4
64
187
290
201
115
247
299
119
94
284
352
348
426
522
751
1027
1183
1637
1780
27
-2233
-1907
23
484
-194
-320
-184
-303
-326
-259
-337
-410
-387
-388
-407
-402
-424
-470
-464
-400
-322
-256
-190
-78
35
69
143
259
176
137
342
127
-105
626
-166
-4475
-7169
-4153
-499
-422
-1086
-846
-497
605
1526
722
-37
426
618
349
471
622
533
536
558
485
462
455
396
354
342
354
352
255
220
375
505
654
1008
1065
486
27
141
298
252
247
278
257
244
274
316
253
149
309
452
-125
-938
-659
618
1322
822
178
181
353
303
290
345
280
204
188
105
21
66
92
13
31
157
190
162
167
158
186
263
301
416
607
772
1117
1340
1223
1810
1833
-2210
-7303
-6385
-1857
-976
-2072
-823
501
0
-277
40
-95
-261
-180
-266
-383
-348
-363
-408
-318
-198
-183
-91
219
488
538
567
641
623
597
605
508
444
512
419
299
409
295
192
685
331
-1563
-2195
-501
641
236
57
331
274
155
211
192
141
165
190
207
232
224
198
192
211
249
257
207
203
297
372
367
299
222
277
330
150
175
439
-487
-2740
-3586
-1728
327
627
258
322
440
357
361
465
459
400
469
587
736
1087
1244
712
90
83
302
292
200
236
377
307
107
334
398
-145
293
902
-2031
-6110
-4400
1026
1331
-3162
-4157
-586
1486
799
547
980
830
600
657
593
496
483
397
335
364
355
340
344
323
356
407
416
539
553
344
542
721
157
498
1269
-1784
-6595
-5758
-831
1200
671
172
-1012
-1529
-20
942
408
281
595
505
443
571
561
489
493
587
743
938
1235
1336
834
236
238
480
470
459
518
421
469
689
513
402
755
389
81
1362
291
-4761
-5317
397
632
-5496
-5345
283
559
-2019
-309
2057
1381
764
1260
1170
911
1065
1022
925
1056
969
785
963
1054
888
1070
1085
615
1100
1635
-299
-2021
-184
1086
-2450
-7082
-7058
-2421
1008
-393
-2183
-192
2113
1794
1228
1571
1573
1359
1443
1434
1290
1271
1254
1159
1094
1037
941
870
801
670
612
628
562
673
956
894
1063
1632
41
-3980
-5271
-1712
1734
1925
1219
1334
1566
1196
-405
-2515
-2627
-886
49
584
1435
231
-1447
52
627
-3278
-6338
-6118
-5391
-2675
1664
1675
-1686
-1555
1455
2458
1859
1870
1999
1823
1887
1995
1857
1751
1718
1642
1607
1517
1364
1396
1381
1181
1363
1408
42
-1197
442
2699
749
-3168
-2466
851
-416
-3720
-2139
492
-2207
-6088
-6463
-5875
-4709
-1199
1704
2009
1599
762
-90
726
1847
1729
1600
1630
1650
2245
1188
-2970
-6481
-6764
-5927
-5903
-6333
-5400
-2044
1525
2952
2542
1081
18
482
-9
-2355
-2027
1543
2231
-417
-395
1512
554
-578
424
-293
-1249
1027
721
-4450
-5524
-256
3268
2879
2600
2762
2484
2771
2791
2144
2875
3335
865
-676
738
-207
-4531
-6798
-4787
-545
2311
910
-2068
-1446
2043
3498
1971
1054
2320
3396
3068
2795
3027
3001
2855
2918
2951
2921
2955
2955
2878
2797
2709
2621
2524
2355
2206
2164
2097
2019
2015
1883
1765
1902
1713
1361
1879
1729
-1593
-5992
-7136
-5557
-5476
-6782
-5083
-1139
104
-189
1556
2959
2164
1848
2339
1811
1055
1075
1042
728
695
664
349
318
394
-106
-174
407
-881
-3720
-4903
-5204
-5377
-2262
1119
-2363
-8338
-8510
-7033
-8520
-6528
-669
-1315
-7538
-7391
-1406
406
-1437
-930
