# session 180
-51
8
69
136
213
345
554
752
882
951
832
399
-125
-402
-419
-374
-364
-379
-398
-411
-422
-446
-469
-464
-445
-444
-458
-471
-480
-485
-480
-472
-457
-418
-353
-270
-175
-80
1
57
87
95
82
59
36
19
13
13
7
-5
-8
-2
0
-5
-8
-9
-14
-18
-19
-24
-38
-46
-41
-40
-50
-56
-43
-21
-18
-13
41
104
97
70
101
138
139
157
191
190
165
148
155
169
158
124
106
110
116
124
140
173
221
247
224
177
136
94
45
8
-6
-13
-38
-50
-18
-11
-29
63
224
349
566
705
260
-468
-583
-172
-2
-102
-93
-32
-61
-94
-77
-49
-35
-40
-33
11
51
59
64
95
136
155
169
216
273
309
358
412
414
378
354
326
273
221
170
103
49
30
11
-27
-49
-48
-46
-43
-45
-56
-60
-63
-90
-132
-162
-187
-213
-223
-226
-241
-243
-201
-154
-152
-179
-200
-214
-222
-218
-211
-215
-215
-209
-199
-176
-178
-220
-170
-7
118
264
429
228
-280
-447
-225
-126
-191
-173
-113
-93
-71
-53
-66
-85
-86
-79
-89
-98
-76
-66
-87
-71
-21
2
36
114
166
181
232
311
336
288
223
172
104
18
-42
-75
-113
-139
-133
-118
-118
-126
-119
-94
-86
-108
-123
-118
-125
-136
-114
-91
-114
-141
-109
-47
-25
-46
-77
-106
-117
-93
-65
-66
-55
-7
21
41
88
99
99
176
284
468
790
846
370
-66
-30
117
101
75
94
97
101
95
71
76
90
62
22
20
25
5
-21
-42
-56
-36
9
38
73
136
171
171
188
201
169
116
66
13
-42
-91
-127
-136
-124
-115
-108
-88
-58
-31
-7
8
10
16
28
30
29
43
47
29
35
82
126
131
110
72
6
-56
-74
-80
-112
-149
-180
-208
-202
-190
-212
-194
-105
10
185
286
52
-315
-373
-220
-181
-213
-189
-177
-204
-214
-200
-186
-178
-170
-153
-128
-104
-80
-67
-63
-41
3
36
68
126
178
188
205
256
284
267
245
224
176
108
52
15
-16
-42
-54
-48
-30
-14
-11
-6
14
23
13
16
29
17
-8
-19
-26
-15
18
24
6
31
75
72
48
36
20
9
5
-16
-24
-11
-35
-62
-25
-17
-74
-57
24
103
299
471
238
-187
-283
-152
-137
-167
-129
-116
-135
-129
-123
-120
-91
-58
-34
-3
28
52
85
119
130
145
188
233
259
286
322
351
361
352
327
284
231
173
113
51
-4
-36
-44
-51
-63
-74
-83
-92
-99
-104
-110
-112
-102
-93
-102
-125
-146
-163
-170
-157
-145
-153
-138
-87
-71
-109
-131
-134
-168
-189
-163
-154
-180
-188
-181
-165
-145
-175
-189
-90
34
163
333
261
-160
-432
-319
-195
-213
-199
-164
-175
-169
-144
-139
-127
-97
-84
-82
-63
-39
-27
-16
10
39
57
82
124
168
209
259
308
338
345
322
273
224
177
118
74
66
57
31
14
9
16
35
25
-8
3
46
50
66
159
251
313
477
727
899
1059
1276
1245
781
242
-29
-109
-151
-180
-217
-247
-237
-226
-252
-283
-306
-326
-332
-340
-374
-413
-437
-459
-483
-505
-517
-494
-429
-353
-276
-182
-80
1
44
59
68
72
46
3
-11
0
-3
-16
-22
-30
-35
-16
12
20
13
16
36
44
27
11
20
32
21
-2
-17
-19
-15
-17
-26
-30
-26
-22
-35
-59
-50
-14
-6
-29
-35
-22
-20
-24
-19
-14
-20
-30
-36
-48
-63
-63
-53
-59
-65
-28
42
82
67
35
17
6
1
11
20
0
-17
13
24
-15
22
131
209
402
665
500
-63
-339
-216
-149
-195
-181
-162
-179
-178
-176
-177
-148
-116
-102
-80
-51
-32
-10
16
34
58
93
121
147
173
188
214
256
272
261
263
256
218
190
170
115
64
66
67
15
-37
-35
-28
-55
-75
-66
-59
-51
-10
77
247
489
700
839
881
732
539
588
626
232
-284
-416
-314
-300
-334
-332
-341
-360
-361
-359
-371
-380
-362
-341
-350
-352
-332
-325
-319
-290
-259
-236
-201
-162
-139
-124
-106
-88
-73
-56
-45
-43
-38
-25
-8
3
1
-9
-4
22
35
25
25
42
47
31
9
-6
-31
-83
-125
-115
-66
-9
32
78
216
423
580
761
1052
1170
839
284
-108
-253
-277
-278
-287
-297
-304
-309
-299
-283
-290
-310
-314
-330
-366
-352
-304
-329
-376
-326
-250
-248
-255
-205
-124
-35
55
135
204
246
254
252
246
223
188
160
133
103
90
90
70
47
55
60
26
7
29
31
4
4
46
95
172
318
456
526
631
746
678
511
428
247
-110
-317
-297
-312
-375
-352
-312
-330
-340
-331
-344
-360
-355
-353
-365
-380
-398
-407
-398
-397
-414
-402
-359
-347
-350
-299
-213
-140
-58
26
63
75
120
178
201
194
176
152
163
214
238
233
271
340
378
410
464
536
685
899
1042
1162
1401
1541
1288
803
414
177
36
-36
-93
-160
-210
-245
-282
-311
-334
-365
-405
-442
-471
-497
-529
-561
-579
-587
-580
-540
-471
-387
-291
-181
-75
8
63
98
110
92
62
42
24
1
-9
-7
-9
-10
6
19
8
-17
-32
-40
-58
-85
-101
-97
-95
-107
-117
-114
-98
-80
-77
-85
-75
-52
-51
-56
-46
-52
-67
-44
-8
8
40
82
75
28
-10
-42
-77
-93
-80
-63
-58
-61
-62
-67
-68
-56
-69
-104
-74
6
59
109
89
-134
-363
-320
-164
-132
-151
-135
-133
-137
-114
-93
-82
-62
-35
-13
1
19
55
99
121
125
151
208
246
255
287
348
380
379
376
362
338
328
313
258
191
157
157
164
159
142
120
110
123
132
109
76
55
34
18
20
21
11
-5
-19
-12
3
1
20
83
118
88
54
42
25
5
-10
-27
-37
-41
-47
-45
-36
-35
-28
-28
-46
-24
46
145
294
336
65
-255
-252
-97
-85
-127
-110
-103
-130
-139
-133
-159
-180
-127
-121
-186
-94
-59
-299
-122
314
-420
-1597
-1111
147
251
-87
88
190
74
101
103
-3
-48
-88
-162
-182
-185
-216
-231
-232
-244
-256
-257
-245
-226
-209
-198
-187
-149
-59
65
231
450
626
726
848
900
676
292
22
-79
-100
-107
-137
-174
-190
-197
-203
-205
-207
-214
-223
-240
-258
-261
-250
-242
-239
-230
-207
-165
-99
-7
90
171
246
316
350
332
293
257
221
181
146
136
143
138
117
99
98
110
114
106
108
122
123
119
131
143
138
127
120
119
122
120
120
133
147
153
165
179
179
177
186
194
197
202
202
192
177
160
150
140
122
108
105
102
123
175
198
178
163
143
102
82
88
66
8
-48
-86
-115
-129
-140
-200
-268
-250
-189
-99
125
257
-45
-477
-553
-426
-413
-451
-440
-432
-438
-438
-441
-433
-411
-402
-411
-407
-379
-353
-335
-306
-268
-239
-207
-163
-125
-94
-53
-14
2
-1
-7
-9
-20
-54
-97
-131
-152
-156
-142
-124
-109
-88
-61
-37
-19
-1
15
25
35
40
45
53
50
34
52
114
165
188
229
278
280
246
225
208
179
168
184
198
204
201
200
219
219
184
214
311
390
525
655
473
107
28
164
174
137
180
185
144
143
134
91
80
86
60
28
25
28
11
-6
-7
-1
8
28
53
74
96
123
136
124
102
75
33
-25
-78
-107
-110
-92
-72
-55
-35
-20
-26
-36
-33
-23
-11
-1
20
60
85
148
339
550
676
862
1057
869
290
-219
-437
-510
-544
-557
-582
-611
-624
-635
-635
-611
-591
-602
-615
-622
-658
-724
-767
-771
-744
-681
-586
-479
-363
-238
-111
4
87
127
126
102
79
65
57
48
37
34
44
52
41
30
38
53
62
75
91
103
115
122
113
116
151
172
164
189
245
266
259
261
252
237
245
257
264
276
253
186
147
144
110
63
64
79
61
50
90
149
179
166
124
104
114
97
53
30
0
-39
-27
-26
-63
-14
88
180
394
509
102
-450
-506
-302
-289
-330
-268
-219
-198
-156
-125
-107
-76
-43
-12
17
34
52
102
179
258
342
431
507
569
614
633
646
658
626
545
472
432
380
278
163
94
73
58
33
24
37
13
-74
-149
-174
-206
-253
-280
-304
-333
-340
-338
-361
-390
-385
-337
-284
-282
-328
-361
-361
-371
-391
-388
-374
-383
-384
-350
-346
-374
-295
-123
5
131
179
-105
-501
-532
-322
-248
-259
-214
-189
-194
-142
-74
-95
-146
-125
-75
-66
-51
-16
-26
-45
16
94
98
111
209
301
331
368
425
451
457
434
330
176
53
-29
-87
-121
-152
-195
-226
-235
-246
-258
-254
-251
-249
-220
-172
-125
-50
85
293
557
780
950
1226
1522
1426
865
287
17
-43
-59
-62
-55
-68
-84
-78
-84
-108
-107
-105
-134
-143
-131
-157
-214
-255
-279
-281
-266
-264
-250
-180
-87
-12
63
141
176
163
138
115
75
29
8
10
10
12
29
32
15
16
27
15
-1
-7
-22
-43
-52
-58
-68
-73
-78
-88
-98
-99
-96
-103
-117
-118
-105
-98
-106
-120
-127
-126
-138
-165
-166
-145
-153
-167
-123
-63
-60
-90
-112
-124
-126
-125
-121
-96
-67
-49
-26
-32
-56
10
155
292
422
412
117
-172
-136
24
47
13
6
-10
-25
-23
-19
-3
19
33
49
69
82
86
83
79
87
103
121
141
161
174
187
203
213
210
197
178
157
128
93
64
48
38
28
26
33
31
27
48
78
108
175
264
363
557
801
955
1115
1316
1172
554
-31
-241
-266
-286
-312
-360
-394
-378
-381
-432
-474
-499
-528
-553
-575
-597
-605
-608
-620
-616
-586
-544
-482
-381
-267
-173
-99
-28
34
60
38
6
-22
-63
-94
-95
-99
-110
-97
-85
-104
-128
-143
-155
-158
-153
-154
-162
-169
-165
-151
-144
-145
-144
-141
-133
-116
-99
-77
-41
-8
11
41
81
106
120
127
117
118
161
196
181
157
166
176
158
138
150
192
225
219
192
175
168
156
157
186
187
154
186
251
218
214
378
517
605
768
663
112
-277
-190
-78
-136
-157
-138
-174
-218
-232
-237
-240
-241
-240
-228
-206
-176
-141
-104
-61
-13
27
71
141
220
277
325
385
423
418
406
387
333
272
227
168
113
90
49
-15
-24
3
-13
-48
-44
-32
-27
23
104
186
366
664
870
973
1202
1365
1006
277
-262
-464
-512
-509
-505
-532
-546
-526
-510
-513
-528
-546
-564
-581
-602
-623
-651
-688
-713
-719
-707
-662
-581
-476
-350
-205
-68
26
71
80
59
23
-9
-32
-55
-65
-64
-72
-70
-39
-26
-43
-38
-20
-20
0
25
-3
-36
-7
28
18
0
0
-3
-8
9
36
45
40
39
42
53
77
104
125
124
99
95
137
162
119
77
114
174
160
95
47
25
4
-15
-22
-29
-50
-49
-26
-49
-55
68
217
361
591
603
149
-239
-131
68
43
6
47
52
41
63
70
57
58
69
77
86
95
91
86
108
148
167
178
213
240
230
229
277
317
296
256
244
232
188
132
90
43
-15
-48
-44
-41
-43
-37
-31
-27
-25
-34
-16
45
90
146
319
543
691
820
915
751
333
-46
-237
-307
-322
-332
-372
-414
-444
-475
-491
-481
-481
-514
-556
-589
-619
-657
-699
-736
-763
-771
-735
-661
-569
-447
-301
-171
-61
30
55
31
31
37
11
-7
13
38
42
32
38
64
73
64
69
70
59
73
103
112
112
120
113
90
81
83
69
44
37
47
64
82
98
107
112
103
75
46
39
52
70
75
60
58
90
112
94
67
61
73
75
51
36
53
65
70
75
39
18
97
185
309
579
651
219
-216
-191
-30
-32
-47
-16
-14
-14
2
14
29
30
13
18
45
58
67
92
113
140
209
296
343
368
426
498
518
491
470
460
419
338
247
149
41
-45
-95
-138
-185
-224
-250
-261
-259
-250
-240
-229
-192
-115
-17
138
403
654
795
1016
1291
1128
420
-248
-502
-546
-571
-557
-529
-539
-557
-559
-568
-569
-555
-572
-618
-646
-663
-690
-715
-735
-741
-723
-686
-621
-501
-358
-249
-153
-28
72
67
3
-30
-33
-50
-63
-48
-25
-16
-12
-8
-11
-13
-3
11
19
25
28
21
14
17
24
20
0
-15
-14
-16
-18
-4
10
14
23
36
51
66
56
28
32
64
78
83
131
226
302
316
297
281
269
262
260
247
227
209
210
242
255
262
351
483
648
910
937
421
-126
-169
-24
-47
-88
-62
-61
-69
-61
-71
-90
-99
-98
-82
-66
-65
-57
-30
-1
19
34
48
61
86
131
175
200
218
228
224
209
180
137
87
37
-13
-49
-70
-88
-98
-94
-102
-123
-120
-101
-112
-142
-137
-106
-100
-121
-127
-87
-25
11
20
50
92
126
214
363
450
508
750
1075
1064
627
111
-209
-336
-372
-395
-406
-381
-361
-365
-345
-325
-352
-357
-298
-254
-250
-244
-256
-296
-307
-296
-312
-332
-314
-266
-206
-139
-66
2
42
49
39
18
-17
-57
-92
-127
-156
-163
-146
-126
-103
-76
-69
-72
-53
-28
-35
-57
-65
-68
-80
-90
-96
-103
-99
-85
-83
-72
-17
32
2
-57
-64
-32
-12
-15
-32
-56
-89
-111
-97
-110
-163
-136
-30
109
359
536
287
-140
-219
-57
-2
-6
44
85
96
104
95
66
36
13
12
31
43
42
50
55
52
84
168
251
316
372
401
406
422
441
435
416
391
353
299
236
178
137
98
58
39
37
37
37
