# session 166
-71
-141
-207
-282
-369
-445
-502
-561
-638
-720
-789
-857
-930
-989
-1016
-991
-917
-826
-710
-574
-437
-188
197
487
677
1018
1264
919
218
-219
-322
-360
-383
-356
-351
-417
-483
-481
-452
-451
-446
-422
-414
-424
-427
-423
-417
-410
-399
-347
-221
-55
108
264
394
475
518
520
471
411
375
348
318
297
298
302
266
203
194
242
267
242
227
300
487
709
884
1044
1169
1119
873
585
365
231
135
-10
-172
-238
-219
-219
-255
-287
-291
-293
-338
-441
-566
-660
-700
-716
-710
-653
-581
-576
-630
-663
-630
-546
-437
-301
-155
-62
-40
-33
-23
-45
-75
-67
-40
-16
27
70
52
-22
-62
-32
7
19
32
66
122
202
284
338
362
375
386
399
422
470
537
589
609
616
616
581
511
454
438
439
429
419
430
455
485
529
587
627
630
607
579
585
654
732
725
653
627
666
689
673
628
523
359
184
22
-104
-175
-206
-215
-215
-245
-299
-312
-297
-340
-404
-412
-412
-440
-472
-537
-590
-542
-474
-378
-154
-136
-617
-1091
-1095
-955
-971
-1004
-1006
-1050
-1088
-1103
-1141
-1189
-1215
-1224
-1204
-1127
-1038
-1010
-1022
-1000
-964
-943
-882
-777
-657
-464
-214
-53
1
42
59
29
51
153
209
141
44
49
159
246
218
146
134
141
115
129
222
283
253
202
177
165
169
180
178
182
218
259
256
222
233
316
413
473
499
523
558
579
576
592
610
593
631
761
885
1040
1202
1050
610
416
573
687
674
707
753
755
778
829
894
971
973
861
791
841
886
853
799
768
745
694
593
455
341
325
369
322
143
-37
-127
-203
-353
-514
-575
-568
-589
-633
-664
-699
-748
-810
-879
-939
-1004
-1080
-1118
-1144
-1227
-1266
-1117
-853
-645
-535
-451
-348
-326
-474
-644
-649
-543
-439
-325
-203
-109
-32
34
88
150
186
200
290
434
570
744
769
397
-21
-34
107
52
-46
-42
-42
-69
-54
-20
-7
-5
0
-5
-21
-5
63
126
147
182
258
307
286
262
290
307
251
162
90
31
-51
-208
-427
-590
-637
-626
-606
-577
-558
-553
-552
-570
-592
-570
-514
-481
-470
-447
-418
-408
-406
-402
-393
-375
-344
-291
-207
-127
-79
-38
-22
-81
-151
-113
-8
41
36
42
67
102
121
109
174
325
417
563
848
803
278
-40
116
213
94
50
72
30
5
16
-32
-124
-132
-17
132
232
270
267
260
275
295
300
271
202
133
110
117
118
90
19
-50
-48
-7
-4
-8
31
80
105
121
121
100
101
151
232
321
409
508
635
752
832
900
948
954
988
1094
1185
1225
1293
1388
1429
1412
1379
1355
1367
1406
1409
1354
1294
1214
990
628
299
28
-221
-336
-358
-392
-275
-154
-540
-1183
-1366
-1208
-1203
-1275
-1255
-1253
-1284
-1276
-1268
-1280
-1276
-1261
-1251
-1230
-1191
-1147
-1110
-1072
-1012
-940
-864
-777
-676
-580
-495
-432
-409
-416
-424
-448
-496
-538
-550
-540
-520
-482
-442
-432
-420
-363
-311
-311
-300
-237
-186
-180
-166
-119
-79
-63
-45
-14
3
-7
0
52
103
116
127
173
231
268
276
275
265
245
247
274
276
258
266
284
300
304
281
310
424
535
718
973
880
361
43
166
285
242
241
277
264
263
278
262
245
253
260
265
270
265
262
272
286
297
317
358
407
439
467
491
475
428
399
357
259
148
76
41
17
-17
-49
-55
-63
-86
-92
-102
-135
-128
-77
-63
-93
-109
-108
-121
-151
-183
-196
-186
-171
-171
-184
-191
-183
-170
-173
-188
-195
-203
-215
-205
-188
-200
-196
-151
-140
-178
-190
-183
-203
-213
-201
-203
-204
-189
-191
-183
-149
-164
-180
-87
22
111
266
255
-107
-401
-319
-177
-191
-192
-126
-90
-77
-54
-42
-45
-41
-24
-3
15
29
46
63
78
107
165
225
265
308
364
407
432
444
429
386
329
262
197
158
134
101
84
93
98
102
120
140
186
274
352
486
770
1027
1182
1479
1758
1466
692
70
-191
-270
-265
-246
-265
-281
-282
-300
-306
-294
-316
-364
-389
-397
-420
-450
-461
-435
-374
-293
-211
-133
-62
9
94
158
145
79
35
-2
-76
-141
-158
-159
-158
-150
-153
-178
-221
-268
-277
-258
-284
-338
-334
-307
-340
-391
-385
-353
-359
-384
-388
-389
-425
-472
-497
-509
-539
-573
-558
-524
-574
-593
-338
62
235
151
41
-42
-146
-228
-267
-309
-364
-407
-435
-465
-490
-510
-567
-611
-545
-466
-505
-505
-329
-125
22
175
301
435
685
848
685
402
281
278
272
262
272
285
236
118
35
33
40
16
-12
-32
-49
-56
-39
7
46
55
70
87
64
77
183
309
515
827
848
431
132
242
384
386
429
517
561
602
666
696
672
627
584
546
524
523
531
530
491
429
414
453
461
434
431
438
401
328
269
251
246
231
231
237
202
162
185
251
315
372
421
461
489
498
509
537
523
405
220
65
-12
-41
-70
-119
-180
-249
-302
-306
-273
-249
-234
-198
-152
-146
-205
-291
-370
-435
-481
-501
-506
-513
-546
-592
-586
-518
-463
-409
-332
-298
-236
-95
-182
-599
-861
-749
-619
-634
-640
-628
-654
-661
-640
-649
-678
-677
-645
-621
-621
-620
-600
-580
-576
-576
-560
-524
-494
-472
-417
-342
-314
-313
-279
-286
-409
-558
-625
-620
-573
-483
-402
-400
-463
-519
-562
-626
-652
-534
-300
-91
101
419
791
1034
1244
1471
1375
850
319
87
61
79
57
-15
-70
-63
-18
39
97
145
176
193
210
222
212
198
216
267
326
396
498
630
774
900
992
1051
1078
1058
1006
960
915
854
805
797
790
765
756
769
770
773
793
797
780
752
688
632
666
719
660
548
512
548
588
594
532
427
363
364
383
395
368
248
56
-109
-201
-249
-275
-252
-209
-260
-440
-623
-720
-782
-862
-919
-918
-895
-859
-779
-683
-626
-570
-513
-549
-651
-694
-718
-790
-819
-828
-895
-879
-733
-584
-348
-77
-164
-463
-385
-61
6
-76
-38
-4
-78
-180
-314
-512
-705
-843
-958
-1069
-1154
-1217
-1280
-1332
-1347
-1347
-1356
-1352
-1310
-1240
-1143
-982
-728
-425
-152
56
204
297
363
427
490
562
642
702
742
789
861
948
1018
1105
1252
1395
1521
1750
2028
2287
2732
3160
2821
1718
781
433
307
163
63
-5
-94
-172
-210
-252
-314
-353
-365
-369
-344
-312
-327
-357
-367
-377
-370
-320
-258
-192
-91
23
115
205
296
317
238
144
115
137
166
177
161
140
122
84
32
-3
-35
-82
-126
-167
-223
-267
-273
-273
-306
-356
-388
-400
-412
-426
-429
-418
-404
-378
-335
-294
-245
-187
-176
-220
-262
-289
-321
-364
-419
-473
-486
-453
-393
-323
-250
-175
-93
-5
58
81
106
157
215
289
353
369
450
622
706
768
885
669
64
-278
-176
-144
-318
-430
-458
-508
-583
-671
-773
-864
-887
-791
-627
-485
-367
-268
-219
-177
-63
94
234
369
510
625
700
758
801
806
763
688
581
444
301
156
13
-69
-67
-37
6
46
-19
-197
-344
-395
-400
-407
-457
-470
-303
-77
82
361
767
1059
1344
1700
1691
1172
643
398
274
159
75
4
-67
-111
-113
-104
-117
-133
-134
-154
-194
-226
-255
-278
-257
-195
-133
-68
19
110
191
276
362
412
422
410
384
332
255
170
106
49
-43
-126
-135
-96
-56
-19
0
-9
-4
25
32
-5
-72
-130
-150
-167
-235
-328
-395
-443
-473
-449
-380
-321
-303
-332
-386
-391
-298
-158
-51
32
133
176
69
-95
-175
-216
-292
-363
-412
-481
-572
-665
-743
-779
-819
-899
-897
-753
-598
-433
-244
-292
-574
-644
-438
-338
-394
-398
-366
-381
-402
-395
-377
-355
-330
-292
-241
-200
-147
-44
61
80
19
-11
58
167
246
320
414
493
553
604
610
565
530
528
519
499
497
508
505
497
502
517
540
578
627
679
730
762
768
761
762
798
859
908
1006
1224
1429
1540
1724
1912
1701
1048
387
-7
-198
-296
-365
-434
-497
-562
-642
-701
-723
-745
-772
-768
-742
-731
-733
-721
-695
-668
-649
-642
-612
-524
-396
-261
-117
22
123
190
234
246
222
184
156
148
164
201
227
212
175
144
98
24
-35
-43
-9
59
157
253
315
349
361
304
174
100
138
150
81
39
15
-94
-242
-345
-430
-518
-588
-656
-725
-744
-696
-648
-652
-676
-696
-720
-733
-736
-760
-731
-580
-448
-452
-473
-413
-277
-54
127
230
488
696
329
-275
-383
-184
-181
-261
-250
-257
-281
-243
-200
-190
-164
-118
-86
-86
-130
-178
-151
-40
86
200
311
411
494
569
638
682
686
660
615
527
405
319
269
207
168
193
211
177
137
92
9
-70
-98
-98
-91
-53
23
101
187
395
741
1031
1220
1515
1810
1659
1028
381
12
-147
-209
-240
-303
-379
-423
-462
-520
-555
-577
-619
-642
-636
-671
-719
-699
-654
-632
-575
-450
-303
-154
9
183
333
410
421
416
403
379
336
232
93
0
-50
-114
-178
-197
-189
-182
-137
4
203
390
587
775
806
661
478
339
270
239
98
-176
-383
-451
-507
-601
-665
-668
-635
-608
-610
-642
-699
-765
-802
-821
-888
-959
-882
-639
-375
-139
111
344
521
674
813
919
999
1054
1055
996
901
808
728
636
531
451
409
393
368
285
162
82
43
-14
-71
-86
-95
-125
-143
-143
-166
-196
-209
-229
-246
-227
-206
-213
-207
-186
-193
-218
-237
-276
-354
-435
-457
-374
-221
-89
-13
44
91
99
84
81
54
-44
-172
-273
-350
-420
-478
-519
-554
-600
-646
-674
-696
-721
-682
-544
-376
-242
-134
-44
38
146
231
231
247
356
454
486
503
476
412
424
486
500
483
442
341
218
108
63
162
331
506
736
771
355
-93
-117
28
33
4
-3
-80
-188
-212
-121
19
127
204
265
261
168
49
-34
-84
-121
-132
-99
-36
28
89
156
225
254
217
154
110
70
8
-52
-79
-90
-115
-138
-127
-106
-106
-108
-84
-54
-38
-27
-8
12
15
9
15
20
0
-16
-3
-7
-43
-60
-37
-17
-26
-45
-57
-68
-84
-100
-109
-107
-109
-122
-107
-67
-74
-98
-40
82
257
474
454
50
-306
-288
-165
-162
-156
-89
-31
8
29
31
38
47
38
22
21
34
46
49
41
29
31
55
67
43
11
-4
-24
-54
-84
-139
-239
-351
-443
-512
-558
-591
-602
-562
-487
-434
-400
-352
-305
-279
-255
-199
-111
-28
45
136
239
373
600
856
1044
1288
1586
1557
1064
523
245
104
-50
-199
-308
-394
-480
-566
-630
-673
-717
-763
-813
-868
-895
-856
-773
-692
-622
-567
-525
-414
-191
37
195
369
587
720
705
633
580
538
506
502
502
479
469
487
491
474
467
482
516
544
537
532
570
580
501
395
312
227
150
100
58
33
72
171
273
318
272
171
75
-7
-74
-113
-154
-216
-254
-254
-279
-353
-418
-438
-454
-487
-479
-390
-290
-237
-178
-77
5
29
0
-86
-182
-233
-272
-304
-295
-318
-345
-210
-4
155
398
486
34
-504
-529
-351
-370
-405
-367
-392
-428
-410
-414
-439
-437
-447
-483
-495
-506
-543
-511
-359
-197
-69
103
301
441
529
587
605
613
641
664
662
640
609
587
556
471
387
399
483
553
545
414
216
81
12
-86
-207
-302
-384
-466
-527
-566
-609
-679
-709
-585
-328
-116
-59
-102
-140
-128
-90
-72
-81
-66
-2
74
171
317
383
340
414
604
724
910
1104
815
206
2
167
212
182
235
222
118
42
-32
-145
-214
-237
-284
-298
-219
-168
-231
-314
-342
-353
-361
-356
-330
-247
-84
100
221
273
300
304
264
198
147
125
122
136
150
130
48
-74
-184
-245
-254
-222
-161
-107
-98
-140
-223
-338
-432
-456
-466
-529
-573
-521
-452
-391
-225
0
162
449
981
1311
1022
385
-139
-440
-590
-619
-569
-517
-499
-464
-375
-298
-297
-317
-306
-305
-336
-342
-307
-307
-356
-382
-367
-338
-262
-127
13
147
278
361
414
473
454
344
286
260
119
-65
-170
-239
-269
-190
-58
55
156
209
184
131
76
16
-19
-28
-25
25
122
199
238
280
328
364
396
433
471
510
547
573
591
607
618
617
595
551
520
511
482
428
416
453
472
445
396
328
251
199
161
94
23
-11
-34
-32
30
72
83
175
320
517
862
1020
592
29
-52
107
92
10
6
-1
-47
-102
-149
-156
-119
-64
-4
31
16
-22
-53
-74
-88
-92
-71
-25
14
31
53
89
107
78
13
-35
-49
-96
-210
-312
-362
-419
-474
-471
-451
-437
-391
-333
-236
-11
232
383
533
544
134
-478
-868
-1032
-1120
-1129
-1096
-1097
-1113
-1091
-1026
-961
-946
-952
-923
-870
-821
-778
-778
-851
-922
-902
-804
-677
-556
-460
-385
-337
-350
-417
-485
-534
-582
-610
-576
-504
-462
-463
-509
-566
-516
-340
-184
-56
64
-94
-618
-1109
-1378
-1626
-1806
-1761
-1661
-1596
-1375
-975
-522
-21
452
724
822
890
951
1012
1120
1244
1334
1420
1537
1685
1862
2028
2127
2184
2270
2360
2379
2330
2246
2138
2043
1958
1775
1467
1150
897
696
592
600
604
552
532
561
528
411
321
309
289
208
122
85
74
61
43
16
-6
-7
2
24
65
85
91
110
86
57
157
298
406
604
665
262
-163
-104
106
93
36
49
14
-37
-46
-73
-118
-131
-136
-156
-142
-99
-91
-111
-107
-89
-69
-15
81
184
247
228
135
39
-35
-145
-316
-498
-651
-773
-866
-954
-1077
-1226
-1362
-1482
-1605
-1720
-1807
-1883
-1978
-2075
-2142
-2213
-2304
-2357
-2357
-2309
-2123
-1773
-1405
-1093
-768
-398
