# session 123
1
86
159
223
291
360
423
491
563
619
667
729
795
860
889
828
716
627
529
380
242
151
79
45
74
106
66
-17
-63
-73
-97
-100
-62
-64
-102
-60
52
140
207
265
283
268
261
267
264
269
278
236
166
160
174
182
280
410
544
866
1100
713
70
-106
26
25
-39
-55
-122
-241
-360
-493
-648
-802
-930
-1032
-1110
-1145
-1140
-1126
-1080
-958
-782
-605
-453
-338
-261
-211
-190
-210
-243
-260
-260
-252
-239
-219
-182
-144
-127
-107
-86
-101
-118
-81
-36
-30
-9
51
91
82
57
38
23
4
0
29
47
28
20
20
4
51
154
238
397
545
300
-203
-372
-212
-144
-177
-158
-147
-157
-136
-122
-135
-141
-134
-115
-87
-71
-55
-2
80
151
214
292
372
417
416
385
341
298
250
207
184
167
148
157
177
162
132
127
119
89
98
160
215
250
294
388
621
909
1024
1084
1303
1356
920
363
87
-18
-90
-99
-91
-124
-153
-158
-160
-166
-175
-200
-231
-254
-279
-310
-322
-300
-255
-173
-47
90
217
333
410
433
433
425
394
356
335
327
314
297
287
289
293
296
299
291
278
287
306
291
244
221
234
229
187
157
153
127
78
61
68
32
-24
-17
30
41
23
-14
-101
-191
-216
-210
-218
-219
-196
-182
-219
-236
-142
-36
59
273
322
-149
-682
-715
-544
-560
-648
-707
-768
-796
-821
-884
-912
-912
-951
-978
-949
-910
-892
-884
-858
-784
-684
-605
-549
-513
-509
-527
-565
-631
-707
-779
-850
-900
-910
-892
-867
-857
-862
-845
-795
-755
-723
-637
-501
-339
-82
238
508
788
1018
806
97
-554
-810
-852
-860
-858
-873
-885
-838
-771
-743
-729
-706
-697
-709
-725
-735
-716
-642
-512
-342
-146
66
269
445
594
699
743
766
820
917
1107
1372
1574
1781
2226
2666
2511
1793
1171
979
1008
1051
1087
1137
1204
1276
1324
1370
1448
1520
1552
1590
1660
1724
1788
1918
2130
2376
2608
2801
2964
3110
3204
3218
3220
3270
3319
3339
3369
3409
3406
3297
2986
2436
1750
1068
480
39
-281
-567
-880
-1215
-1517
-1742
-1900
-2008
-2058
-2074
-2113
-2202
-2306
-2379
-2423
-2444
-2418
-2367
-2367
-2435
-2511
-2569
-2607
-2602
-2560
-2510
-2434
-2353
-2354
-2412
-2419
-2397
-2417
-2444
-2428
-2396
-2375
-2342
-2256
-2127
-2044
-2029
-1978
-1840
-1696
-1602
-1508
-1345
-1122
-911
-748
-613
-512
-463
-450
-439
-399
-332
-284
-277
-311
-375
-386
-315
-256
-184
-82
-198
-573
-800
-699
-534
-498
-490
-301
42
289
433
643
799
762
699
691
640
615
734
911
1031
1115
1184
1200
1178
1211
1321
1390
1358
1349
1423
1473
1521
1754
2190
2634
2978
3258
3516
3760
3979
4161
4311
4425
4508
4587
4642
4627
4600
4634
4623
4314
3577
2633
1847
1314
894
507
132
-233
-559
-911
-1263
-1413
-1447
-1587
-1679
-1791
-2352
-3081
-3336
-3350
-3587
-3866
-4013
-4177
-4380
-4518
-4535
-4425
-4287
-4181
-4006
-3785
-3642
-3506
-3329
-3241
-3147
-2813
-2319
-1854
-1414
-1026
-779
-629
-475
-306
-179
-112
-19
169
384
552
673
760
845
959
1072
1165
1258
1319
1332
1370
1458
1517
1497
1436
1375
1332
1295
1239
1189
1176
1156
1103
1044
999
1020
1110
1160
1227
1366
1231
720
437
639
818
746
702
753
746
700
698
703
668
643
661
678
669
666
692
721
723
722
753
785
771
723
652
553
446
349
266
199
106
2
-45
-93
-133
-108
-442
-1535
-2718
-3045
-2641
-2165
-1799
-1435
-1025
-571
-174
87
334
612
689
391
-119
-537
-695
-668
-641
-660
-633
-562
-538
-559
-565
-552
-547
-576
-630
-660
-659
-669
-672
-621
-516
-365
-189
-21
130
248
312
345
345
310
302
328
324
307
327
356
364
353
315
287
308
332
325
332
363
378
378
387
401
403
382
341
300
278
269
235
180
169
220
268
275
258
233
211
202
204
210
193
170
177
150
102
178
310
426
730
977
583
-110
-296
-115
-86
-163
-191
-206
-186
-156
-190
-213
-172
-156
-159
-132
-139
-187
-181
-130
-98
-55
6
35
45
49
14
-32
-50
-108
-231
-323
-353
-374
-389
-384
-381
-371
-339
-317
-328
-333
-303
-264
-247
-247
-229
-185
-137
-128
-177
-222
-207
-202
-231
-204
-166
-178
-142
-167
-322
-227
-43
-519
-1383
-2111
-3257
-4504
-4583
-4219
-4801
-5370
-4775
-3832
-3273
-2779
-2275
-1925
-1593
-1202
-868
-602
-342
-82
165
408
648
863
1066
1278
1461
1597
1725
1815
1830
1841
1900
1987
2117
2278
2398
2498
2626
2736
2818
2932
3058
3142
3221
3340
3467
3566
3655
3769
3907
4030
4111
4178
4256
4328
4410
4527
4622
4681
4791
4895
4922
5078
5256
4749
3516
2525
2021
1220
63
-719
-1056
-1388
-1758
-2040
-2295
-2521
-2657
-2784
-2964
-3106
-3171
-3236
-3321
-3376
-3389
-3379
-3348
-3295
-3226
-3157
-3091
-3018
-2956
-2928
-2918
-2925
-2958
-2972
-2935
-2882
-2825
-2753
-2673
-2588
-2491
-2397
-2304
-2200
-2096
-1997
-1882
-1755
-1644
-1554
-1456
-1330
-1212
-1141
-1098
-1042
-975
-913
-843
-749
-662
-596
-503
-410
-386
-310
-111
61
278
635
672
185
-162
-20
164
179
218
296
343
385
427
463
515
571
618
664
712
769
844
930
1020
1110
1196
1292
1383
1418
1383
1316
1253
1199
1149
1102
1064
1029
994
974
968
959
945
921
894
895
921
949
1004
1079
1156
1330
1612
1836
2050
2430
2649
2204
1326
669
384
243
178
185
160
90
61
51
-3
-72
-113
-162
-242
-318
-369
-403
-420
-402
-339
-235
-104
37
154
218
230
205
152
93
31
-51
-121
-149
-180
-235
-267
-273
-288
-303
-302
-308
-331
-349
-347
-340
-345
-356
-357
-355
-364
-380
-396
-411
-415
-409
-422
-453
-461
-443
-448
-482
-482
-420
-355
-349
-380
-395
-395
-411
-421
-400
-396
-422
-407
-383
-415
-378
-233
-105
98
327
129
-422
-645
-481
-398
-430
-399
-355
-345
-338
-342
-327
-272
-230
-231
-231
-197
-153
-121
-84
-17
76
166
236
304
371
397
393
394
367
302
255
234
202
174
166
143
121
131
131
104
102
115
106
103
127
133
107
79
71
80
70
21
-33
-45
-21
11
43
80
98
105
146
178
162
206
324
425
612
825
652
160
-57
67
134
100
102
99
79
88
89
61
45
35
3
-14
11
48
83
134
194
245
301
369
422
444
440
403
331
248
179
120
70
36
23
29
42
53
54
49
42
30
6
-22
-34
-27
-33
-63
-76
-56
-51
-96
-157
-202
-238
-272
-293
-304
-336
-366
-351
-360
-441
-429
-282
-179
-58
142
14
-531
-865
-752
-631
-671
-682
-664
-710
-788
-822
-793
-759
-783
-822
-816
-780
-747
-726
-697
-612
-491
-407
-363
-328
-318
-332
-358
-410
-488
-571
-639
-660
-620
-552
-480
-396
-304
-230
-167
-73
48
137
219
350
480
560
627
678
708
771
842
845
811
785
746
717
731
782
853
874
837
844
875
906
1056
1231
1318
1536
1699
1290
700
652
868
875
868
972
992
944
973
1072
1169
1216
1211
1186
1126
1010
882
748
591
446
359
310
262
192
93
-26
-163
-324
-486
-612
-698
-767
-823
-856
-874
-888
-897
-901
-904
-895
-874
-839
-778
-679
-493
-223
5
211
594
986
866
172
-579
-1000
-1125
-1130
-1127
-1133
-1129
-1118
-1093
-1054
-1040
-1067
-1094
-1084
-1063
-1085
-1131
-1123
-1040
-919
-769
-585
-385
-188
-26
62
75
54
42
45
45
36
30
40
58
65
57
44
21
-4
-4
15
28
37
57
86
109
125
148
166
161
162
185
184
161
168
193
198
193
182
160
169
203
203
183
206
263
300
301
273
231
203
211
225
192
159
203
220
137
146
289
371
569
967
922
245
-223
-129
-5
-58
-73
-41
-42
-56
-76
-92
-86
-67
-53
-46
-21
28
66
97
161
235
288
342
388
399
387
364
322
260
181
93
32
8
-12
-35
-39
-29
-30
-38
-42
-42
-26
-7
-22
-49
-38
-22
-52
-69
-23
30
43
25
-15
-47
-26
8
-9
-46
-51
-38
-33
-63
-110
-82
13
102
252
372
140
-297
-413
-227
-126
-132
-96
-54
-48
-48
-49
-40
-12
6
9
21
44
59
74
109
166
230
285
329
364
376
350
288
205
115
32
-35
-85
-116
-130
-137
-145
-149
-145
-144
-160
-176
-182
-203
-221
-197
-166
-159
-130
-77
-55
-60
-67
-83
-92
-89
-95
-91
-76
-86
-89
-71
-111
-155
-75
49
187
439
517
89
-419
-481
-314
-263
-280
-289
-306
-299
-285
-300
-307
-291
-283
-273
-242
-205
-173
-122
-46
34
107
179
246
296
324
311
241
138
43
-34
-90
-121
-138
-143
-136
-132
-124
-97
-81
-91
-92
-80
-82
-84
-64
-52
-68
-57
17
77
51
-7
-19
-12
-29
-30
-6
-32
-80
-32
33
-29
-60
97
278
419
587
498
21
-307
-179
-11
-53
-91
-56
-60
-76
-42
-2
16
38
67
91
118
152
184
230
302
377
436
497
552
563
521
441
331
205
96
22
-22
-49
-75
-95
-91
-73
-76
-91
-60
1
27
58
145
267
460
720
939
1225
1718
2004
1583
711
-3
-365
-491
-506
-521
-565
-571
-542
-556
-600
-597
-589
-644
-711
-743
-760
-764
-742
-699
-606
-444
-256
-107
-10
74
139
135
83
46
25
2
-23
-51
-65
-69
-90
-112
-111
-116
-140
-149
-136
-129
-128
-119
-109
-111
-112
-96
-77
-74
-77
-71
-68
-81
-94
-100
-123
-144
-123
-92
-108
-132
-96
-20
10
-18
-35
-29
-51
-71
-45
-31
-49
-19
16
-24
-13
113
229
393
615
492
-17
-292
-146
-16
-34
-40
-41
-55
-41
-32
-42
-39
-39
-42
-9
33
50
69
101
145
220
310
379
434
474
467
418
372
332
260
165
106
84
42
-12
-28
-15
-3
15
37
46
51
59
64
76
91
84
55
55
91
98
54
15
0
-32
-63
-50
-33
-60
-68
-20
-23
-85
-42
86
172
336
534
352
-136
-334
-171
-69
-118
-148
-138
-142
-156
-157
-137
-113
-110
-117
-110
-86
-55
-25
0
27
77
139
181
199
199
172
119
53
-15
-80
-137
-181
-203
-205
-199
-197
-196
-184
-168
-161
-163
-170
-173
-164
-160
-183
-202
-176
-141
-151
-185
-203
-215
-227
-228
-211
-187
-187
-199
-181
-173
-187
-103
50
187
443
661
346
-269
-459
-282
-203
-199
-157
-158
-168
-135
-119
-121
-98
-67
-36
1
18
13
31
90
171
267
370
453
511
537
519
469
400
309
228
173
125
102
104
83
55
61
63
56
93
162
215
291
501
821
1049
1199
1548
1918
1691
843
43
-334
-453
-496
-513
-532
-554
-567
-578
-588
-609
-663
-723
-756
-784
-825
-845
-845
-821
-719
-538
-361
-206
-47
69
105
110
94
41
4
10
9
-8
-3
15
16
9
23
57
78
65
38
31
46
53
58
75
63
23
16
25
10
15
52
55
20
5
11
2
-29
-49
-53
-61
-47
0
35
55
77
60
9
-12
-22
-54
-68
-64
-66
-70
-93
-80
42
170
300
553
614
168
-288
-264
-84
-88
-140
-140
-138
-138
-156
-186
-185
-172
-177
-169
-140
-123
-105
-52
17
65
116
203
283
321
340
341
300
241
188
135
76
25
16
41
26
-30
-40
-4
4
-9
-10
3
47
115
217
429
697
882
1107
1429
1415
843
181
-192
-379
-475
-464
-445
-471
-478
-463
-467
-469
-473
-513
-556
-565
-577
-595
-574
-517
-437
-315
-165
-24
99
195
233
222
198
170
130
92
68
58
55
55
65
74
62
43
48
62
58
39
28
34
34
11
-10
-6
9
13
8
13
29
34
29
15
-7
-7
28
57
62
78
112
140
147
123
82
52
27
-7
-29
-41
-62
-66
-67
-105
-100
-14
76
210
340
164
-254
-425
-286
-192
-209
-205
-200
-218
-213
-201
-203
-200
-187
-173
-157
-145
-123
-79
-35
4
60
119
158
194
228
234
211
172
121
57
-15
-79
-112
-120
-127
-128
-110
-95
-92
-73
-54
-74
-100
-66
-6
-7
-61
-76
-22
32
42
13
-47
-90
-70
-55
-75
-65
-53
-75
-56
-21
-30
37
183
301
475
568
235
-230
-254
-18
49
16
31
29
9
12
12
9
19
12
-3
22
65
78
94
160
245
314
392
474
516
516
486
413
316
223
117
16
-21
-23
-39
-43
-32
-52
-77
-54
-7
42
101
167
304
589
907
1123
1401
1807
1892
1310
442
-157
-407
-496
-532
-566
-613
-644
-651
-651
-650
-670
-728
-787
-824
-865
-905
-905
-874
-828
-737
-584
-389
-191
-42
47
113
150
124
64
33
30
22
5
-3
-3
-11
-15
-6
-12
-23
-8
-5
-31
-26
-9
-26
-26
-7
-39
-78
-67
-60
-79
-79
-70
-87
-124
-144
-132
-128
-156
-153
-86
-19
-11
-53
-109
-130
-107
-82
-67
-46
-34
-19
-6
-47
-47
90
218
367
671
677
73
-435
-346
-180
-261
-299
-236
-225
-226
-207
-215
-209
-166
-147
-155
-133
-74
-25
4
51
131
208
259
300
343
373
364
320
283
253
196
126
83
57
37
51
91
98
70
60
70
55
23
26
50
26
-43
-67
-6
74
94
49
-17
-70
-113
-136
-117
-113
-192
-256
-230
-214
-196
-70
67
192
400
416
29
-289
-192
-24
-17
-5
41
40
52
96
105
97
120
146
162
189
212
229
284
363
417
463
527
573
586
585
556
490
411
337
274
231
188
148
147
165
152
129
135
153
157
138
139
221
323
392
541
759
894
1008
1110
902
372
-78
-296
-428
-495
-486
-487
-521
-550
-584
-638
-691
-746
-814
-884
-941
-994
-1050
-1088
-1093
-1061
-985
-863
-724
-601
-502
-437
-420
-445
-492
