# session 113
-16
10
-10
-25
-13
-3
13
32
26
31
83
140
176
230
300
348
383
426
450
418
339
247
160
75
6
-32
-46
-46
-39
-52
-76
-56
-21
-41
-64
-13
69
107
88
45
12
-5
-18
-18
-19
-33
1
50
11
-2
134
271
397
601
545
60
-293
-202
-76
-125
-151
-129
-155
-188
-189
-192
-201
-193
-170
-154
-134
-103
-78
-54
-7
52
100
153
215
253
254
230
195
139
55
-24
-66
-90
-122
-136
-132
-136
-134
-106
-62
13
103
207
428
755
987
1132
1337
1386
998
382
-97
-366
-480
-491
-487
-508
-526
-532
-536
-538
-540
-557
-596
-639
-663
-672
-677
-659
-609
-536
-430
-282
-138
-23
90
160
145
119
120
92
47
35
18
-23
-36
-19
-16
-39
-55
-46
-36
-47
-59
-51
-33
-22
-7
11
6
-10
12
56
55
31
56
107
113
73
43
40
32
15
13
12
7
23
27
26
98
196
274
404
408
74
-254
-213
-50
-35
-49
-22
-33
-51
-30
-11
-12
-4
12
18
30
64
92
109
148
212
269
310
348
390
413
394
365
358
330
257
183
142
121
99
68
45
39
46
83
134
167
214
298
417
605
788
866
998
1221
1134
596
42
-246
-389
-465
-472
-485
-516
-514
-508
-531
-551
-559
-581
-619
-651
-675
-699
-722
-720
-671
-582
-473
-351
-217
-91
-3
34
32
15
-13
-53
-88
-108
-114
-111
-113
-119
-107
-86
-89
-101
-92
-77
-79
-84
-78
-80
-101
-116
-101
-84
-89
-88
-45
20
53
31
-15
-42
-44
-22
10
11
2
34
34
2
79
217
335
564
704
338
-192
-266
-82
-66
-109
-73
-58
-62
-38
-38
-55
-32
9
34
58
84
102
124
173
238
300
358
417
460
470
453
414
351
276
193
97
8
-49
-75
-97
-123
-132
-116
-98
-89
-76
-56
-9
69
105
52
-14
-27
-25
-34
-40
-46
-43
-9
-11
-50
11
147
247
457
685
440
-145
-355
-170
-88
-128
-113
-107
-124
-114
-119
-133
-112
-96
-100
-89
-75
-70
-39
16
62
109
176
232
247
238
221
177
101
17
-56
-126
-191
-232
-244
-244
-250
-266
-272
-249
-222
-215
-197
-139
-67
-12
33
80
140
240
386
516
621
855
1237
1392
1006
337
-173
-415
-485
-459
-445
-490
-515
-503
-512
-538
-552
-566
-583
-616
-657
-666
-659
-685
-694
-620
-505
-391
-264
-132
-3
125
210
231
233
223
184
165
176
145
85
81
111
101
71
74
92
72
30
37
80
84
61
85
135
154
137
111
98
86
65
71
93
71
48
73
76
76
148
221
311
465
402
14
-238
-129
9
18
27
35
8
-1
10
21
33
29
14
24
42
59
90
112
129
181
243
276
310
361
389
377
348
313
256
182
121
80
43
24
28
14
-18
-17
17
55
110
183
287
488
700
781
892
1129
1110
631
84
-223
-370
-444
-463
-484
-518
-542
-558
-573
-595
-629
-653
-669
-704
-741
-753
-747
-729
-679
-587
-455
-305
-177
-77
1
39
31
3
-24
-51
-77
-100
-115
-115
-104
-95
-92
-90
-85
-86
-90
-85
-78
-86
-95
-95
-101
-107
-94
-84
-103
-99
-31
36
36
7
-6
-17
-26
-16
-23
-44
-4
49
9
14
187
318
395
632
702
237
-226
-176
0
-35
-68
-6
17
-4
-5
10
35
64
68
54
64
114
171
210
243
294
364
432
484
520
532
509
454
370
261
164
88
4
-60
-70
-77
-113
-113
-63
-26
6
102
238
397
654
921
1029
1174
1509
1571
1016
295
-126
-321
-429
-448
-444
-464
-479
-506
-535
-513
-518
-623
-698
-684
-715
-804
-827
-805
-803
-761
-633
-470
-324
-194
-65
35
66
52
31
-9
-46
-32
-11
-46
-84
-68
-45
-55
-58
-38
-36
-65
-81
-65
-46
-58
-97
-105
-60
-40
-93
-106
-9
72
51
29
54
34
-28
-21
35
32
7
21
10
21
165
321
433
576
492
37
-271
-151
-20
-73
-87
-48
-57
-56
-32
-41
-49
-25
-16
-18
16
58
70
85
124
171
231
304
354
363
359
345
297
226
151
76
12
-37
-78
-101
-105
-107
-94
-56
-38
-49
-46
-14
32
83
93
36
-19
-27
-27
-27
-19
-20
-2
21
-30
-46
86
210
345
631
652
112
-364
-325
-195
-244
-258
-207
-208
-216
-188
-162
-140
-123
-118
-102
-61
-26
-10
15
64
115
161
219
276
303
296
262
207
140
66
-2
-50
-90
-120
-114
-100
-116
-132
-117
-93
-83
-79
-62
-30
-13
-37
-75
-92
-105
-129
-135
-134
-145
-127
-108
-142
-114
4
99
317
658
577
-10
-382
-308
-230
-262
-251
-244
-267
-245
-206
-192
-180
-168
-157
-126
-91
-72
-48
-10
38
99
164
213
257
290
289
264
237
183
90
13
-14
-27
-48
-61
-73
-107
-136
-115
-78
-96
-124
-47
97
203
293
380
439
579
816
931
852
652
299
-110
-334
-374
-389
-398
-392
-398
-395
-384
-399
-419
-425
-436
-451
-463
-495
-538
-546
-512
-463
-393
-278
-138
-11
93
171
212
230
243
240
227
230
236
226
216
208
191
183
189
187
176
166
151
126
100
90
108
140
173
226
306
417
553
653
712
875
1113
1116
749
265
-80
-243
-285
-287
-300
-315
-316
-326
-350
-362
-362
-372
-394
-411
-417
-424
-442
-455
-442
-398
-324
-232
-139
-42
56
124
155
170
170
152
136
115
79
55
55
55
49
43
33
22
13
-4
-15
-12
-22
-59
-97
-107
-104
-113
-133
-126
-73
-20
-15
-47
-73
-84
-95
-93
-78
-87
-96
-68
-78
-100
9
150
236
448
576
187
-329
-358
-166
-164
-196
-151
-150
-164
-133
-119
-128
-113
-88
-76
-58
-30
-11
13
58
107
157
234
317
361
379
381
332
243
163
88
-2
-81
-123
-135
-129
-131
-156
-161
-118
-77
-75
-73
-33
19
38
17
-19
-44
-56
-47
-20
-14
-21
12
24
-16
52
225
323
441
596
390
-115
-298
-130
-76
-137
-116
-98
-130
-133
-129
-149
-139
-104
-93
-89
-62
-26
18
72
110
150
231
309
338
353
365
330
244
138
50
6
-13
-43
-76
-96
-116
-133
-123
-91
-74
-81
-72
-27
14
16
-2
-22
-60
-97
-93
-66
-79
-109
-91
-91
-134
-90
7
69
285
555
370
-147
-341
-208
-165
-209
-200
-196
-212
-215
-225
-218
-185
-176
-178
-147
-113
-93
-61
-16
33
95
155
202
241
264
263
249
210
140
85
59
27
-13
-28
-21
-23
-51
-81
-67
-27
-10
26
121
218
331
513
642
690
856
1014
768
226
-158
-307
-382
-401
-377
-379
-402
-405
-402
-409
-423
-433
-441
-455
-463
-463
-481
-501
-467
-403
-353
-262
-115
7
88
175
229
204
154
133
110
76
66
78
84
84
85
82
85
89
77
54
45
42
26
1
-16
-22
-22
-27
-40
-44
-11
51
90
75
41
24
16
7
11
8
4
39
43
-3
69
235
342
566
848
620
-23
-294
-125
-39
-85
-93
-105
-117
-85
-68
-74
-62
-55
-56
-41
-20
-1
30
62
95
151
213
260
302
342
360
344
288
212
136
44
-45
-87
-116
-162
-181
-182
-207
-188
-107
-65
-37
82
254
453
707
892
965
1100
1215
968
400
-93
-338
-426
-461
-493
-509
-496
-494
-522
-544
-557
-584
-619
-662
-714
-755
-782
-808
-816
-774
-679
-547
-393
-233
-81
49
128
145
134
119
91
63
54
49
43
47
56
55
52
63
73
71
73
84
70
41
36
40
24
20
34
20
6
60
144
165
130
103
92
77
77
91
86
92
117
95
97
200
290
432
735
741
171
-294
-210
-63
-131
-155
-106
-121
-136
-98
-68
-57
-38
-11
20
47
70
100
129
161
210
259
298
345
386
377
340
322
298
227
136
81
53
22
-10
-35
-53
-57
-48
-36
-24
-26
-39
-23
16
19
-20
-65
-108
-141
-135
-120
-144
-156
-117
-127
-176
-121
-33
30
244
431
161
-300
-388
-243
-242
-300
-281
-260
-255
-227
-213
-224
-216
-182
-158
-144
-111
-68
-34
7
64
125
179
214
228
232
223
187
127
58
-3
-41
-66
-86
-99
-109
-122
-132
-129
-112
-99
-107
-108
-63
-10
-16
-58
-76
-80
-104
-113
-93
-93
-103
-81
-83
-117
-60
66
147
226
237
-3
-281
-262
-101
-67
-97
-98
-100
-100
-82
-74
-73
-57
-36
-24
-17
3
46
92
136
204
292
363
409
445
464
449
398
324
248
172
98
51
30
5
-22
-36
-54
-64
-23
29
50
119
278
455
643
836
961
1127
1457
1611
1187
424
-151
-378
-415
-424
-454
-471
-467
-485
-522
-545
-560
-585
-623
-672
-717
-749
-777
-787
-757
-700
-618
-484
-309
-147
-26
51
91
94
68
39
27
13
-8
-7
3
-11
-20
-3
-4
-23
-12
9
1
-17
-31
-56
-84
-86
-73
-92
-138
-140
-65
24
43
1
-25
-23
-31
-32
-11
-15
-18
19
9
-8
120
281
388
605
697
276
-222
-229
-50
-67
-104
-62
-70
-101
-84
-64
-63
-55
-45
-33
-9
13
21
42
95
156
206
261
318
344
346
342
309
238
161
104
56
6
-38
-69
-85
-89
-89
-82
-55
-16
31
115
232
362
546
769
944
1132
1413
1571
1330
755
139
-283
-448
-477
-497
-515
-513
-520
-534
-546
-576
-619
-655
-689
-726
-759
-785
-788
-750
-673
-564
-430
-280
-123
13
88
110
110
93
69
58
56
55
61
61
55
63
72
62
54
65
73
73
69
64
60
41
9
15
52
46
12
47
124
134
88
71
79
60
40
49
39
22
49
46
-8
42
164
239
410
584
331
-163
-291
-128
-89
-127
-108
-104
-122
-126
-141
-151
-141
-138
-127
-99
-91
-79
-27
22
51
98
162
212
247
272
276
260
232
190
129
61
7
-24
-37
-41
-47
-62
-72
-60
-39
-40
-56
-42
4
18
-16
-56
-82
-102
-115
-113
-117
-124
-103
-82
-112
-110
-2
118
193
199
11
-281
-353
-206
-116
-117
-101
-81
-77
-70
-79
-103
-106
-90
-82
-81
-64
-35
-10
24
83
145
194
238
283
320
334
310
251
177
99
27
-19
-39
-56
-69
-65
-63
-77
-81
-60
-52
-68
-62
-13
22
-3
-53
-73
-79
-91
-76
-56
-76
-77
-42
-56
-40
106
232
359
638
662
125
-338
-261
-103
-143
-141
-88
-119
-150
-120
-92
-85
-76
-62
-47
-35
-22
8
57
96
127
189
274
328
345
353
334
277
204
111
13
-37
-52
-76
-93
-102
-131
-152
-130
-74
-4
63
176
438
777
997
1152
1357
1362
918
270
-200
-422
-507
-534
-537
-527
-510
-515
-550
-581
-588
-605
-662
-719
-745
-773
-814
-828
-795
-727
-622
-475
-300
-120
23
108
151
164
140
100
80
76
66
56
54
53
48
37
30
37
43
35
30
34
28
18
31
36
5
-15
7
10
-21
-8
68
131
132
97
68
58
59
72
84
71
75
97
63
60
199
334
472
774
844
302
-244
-227
-59
-108
-144
-94
-112
-151
-133
-127
-139
-108
-62
-58
-69
-41
11
53
91
150
220
283
324
340
353
355
318
261
208
144
73
23
-3
-13
-23
-53
-73
-45
1
46
117
206
333
574
850
1016
1183
1420
1382
876
276
-86
-289
-421
-455
-455
-494
-532
-532
-532
-554
-571
-588
-628
-675
-706
-720
-714
-696
-659
-569
-429
-292
-169
-46
38
57
46
30
7
-10
-17
-20
-20
-21
-22
-9
-1
-16
-28
-17
-18
-37
-41
-36
-43
-50
-56
-76
-85
-72
-69
-86
-87
-52
-6
5
-20
-35
-32
-40
-51
-54
-65
-58
-16
-16
-53
1
129
241
380
412
109
-262
-283
-102
-36
-41
-13
6
9
22
26
17
14
17
18
28
52
77
97
131
184
232
274
326
371
385
380
364
325
268
210
152
95
50
24
11
2
-10
-21
-14
15
36
22
8
40
83
76
22
-21
-35
-47
-64
-62
-61
-69
-57
-61
-86
-19
112
221
410
536
230
-257
-358
-193
-149
-168
-132
-130
-155
-143
-130
-140
-133
-108
-97
-94
-79
-52
-20
15
56
110
174
221
251
280
287
237
145
50
-30
-94
-127
-132
-147
-181
-186
-172
-205
-247
-214
-179
-211
-206
-126
-85
-104
-121
-138
-166
-171
-152
-144
-151
-131
-104
-132
-117
29
146
231
439
457
6
-384
-303
-133
-147
-172
-154
-145
-118
-99
-108
-111
-116
-108
-46
0
-26
-36
26
106
171
225
266
313
374
394
358
310
249
167
113
85
34
-11
0
24
3
-28
-9
58
116
150
252
513
840
1109
1412
1778
1892
1483
715
-7
-418
-543
-562
-580
-598
-610
-620
-629
-640
-666
-709
-758
-802
-841
-876
-896
-879
-820
-718
-562
-374
-201
-58
60
129
133
104
84
81
68
40
27
37
35
18
16
28
28
15
7
12
18
8
-2
6
18
21
13
3
7
14
-5
-14
51
129
103
13
-11
11
-14
-46
-28
-21
-43
-29
-26
-52
4
100
185
444
707
454
-115
-310
-163
-110
-145
-120
-95
-98
-85
-62
-41
-25
-11
14
39
56
83
116
147
188
237
281
322
356
372
371
354
316
264
208
150
91
45
23
17
5
-9
-6
11
67
167
249
368
633
903
1031
1154
1222
917
327
-124
-320
-389
-394
-389
-409
-420
-417
-426
-440
-464
-508
-545
-580
-626
-650
-638
-621
-581
-475
-335
-198
-56
71
139
147
124
85
41
9
-12
-33
-51
-57
-64
-82
