# session 91
29
-29
-83
-145
-212
-265
-300
-310
-301
-298
-304
-293
-263
-221
-184
-176
-176
-142
-98
-98
-133
-159
-168
-178
-181
-171
-171
-174
-156
-159
-185
-126
-8
79
186
205
-82
-424
-424
-251
-211
-232
-208
-199
-206
-196
-187
-178
-163
-153
-141
-115
-90
-64
-20
31
83
153
228
278
299
293
255
183
84
-3
-49
-79
-112
-122
-116
-122
-121
-94
-75
-79
-74
-47
-33
-33
1
61
81
59
44
37
31
52
74
51
42
95
87
21
103
257
319
555
899
655
-73
-366
-166
-92
-150
-89
-38
-77
-87
-62
-59
-41
0
11
4
23
58
104
175
241
285
343
418
465
461
411
328
232
126
24
-34
-59
-98
-139
-131
-99
-101
-120
-111
-69
-7
58
155
399
758
997
1116
1346
1548
1319
685
47
-350
-514
-552
-576
-615
-630
-624
-635
-668
-704
-735
-764
-803
-857
-906
-916
-895
-861
-789
-652
-482
-312
-154
-34
26
43
37
15
-2
-7
-15
-24
-19
-9
-7
-9
-4
3
7
11
18
29
34
25
17
26
39
29
-9
-35
-17
7
-16
-34
27
109
121
93
75
56
37
45
58
33
26
80
85
51
151
293
386
654
893
537
-92
-233
-41
-18
-74
-44
-32
-48
-30
-11
-9
0
12
19
36
67
92
110
152
221
275
297
318
338
329
286
232
177
111
38
-12
-30
-58
-94
-90
-51
-41
-69
-82
-44
12
41
82
183
299
427
627
815
940
1168
1419
1283
719
145
-197
-351
-385
-380
-404
-431
-438
-456
-486
-512
-546
-590
-624
-654
-686
-695
-666
-627
-583
-485
-340
-218
-135
-53
9
11
-27
-68
-102
-113
-103
-95
-94
-84
-72
-66
-56
-40
-31
-32
-30
-26
-30
-36
-38
-48
-70
-84
-77
-64
-66
-70
-44
0
18
1
-16
-17
-26
-39
-28
-17
-20
-2
4
-34
6
155
290
458
611
382
-152
-381
-223
-119
-147
-133
-104
-106
-100
-89
-80
-54
-29
-9
28
74
102
126
176
254
331
398
459
507
517
489
432
358
277
192
104
38
-2
-38
-56
-44
-39
-53
-54
-41
-42
-46
-40
-31
-12
27
39
-14
-68
-71
-78
-103
-86
-58
-65
-50
-37
-70
-8
164
288
464
668
423
-185
-409
-193
-91
-155
-146
-109
-114
-112
-107
-112
-104
-88
-70
-54
-46
-15
41
76
116
211
300
326
344
353
277
152
56
-40
-145
-201
-224
-267
-293
-280
-280
-305
-313
-299
-289
-281
-271
-261
-231
-166
-107
-111
-161
-193
-198
-206
-198
-171
-171
-165
-126
-134
-122
30
173
290
565
654
171
-333
-307
-125
-140
-164
-117
-107
-109
-93
-84
-69
-46
-32
-18
4
29
54
83
139
232
313
353
380
404
385
314
222
128
43
-22
-70
-110
-118
-93
-86
-105
-96
-53
-17
40
141
232
357
638
977
1213
1462
1732
1645
1060
377
-65
-296
-406
-423
-415
-436
-461
-473
-496
-533
-568
-612
-668
-717
-754
-781
-782
-734
-638
-501
-330
-154
-10
90
142
141
110
80
57
39
34
29
14
4
6
7
10
17
15
6
7
21
26
16
8
3
-10
-13
-4
-14
-43
-52
-44
-45
-43
-8
48
72
33
-14
-9
10
3
6
18
13
11
-3
-26
24
98
151
360
596
370
-156
-335
-190
-150
-192
-154
-122
-135
-129
-121
-126
-104
-78
-78
-73
-47
-25
8
58
96
138
209
263
267
273
289
261
190
114
39
-24
-55
-75
-104
-117
-99
-96
-127
-139
-106
-71
-40
29
128
245
462
747
906
1002
1253
1424
1108
462
-63
-333
-438
-451
-451
-465
-459
-454
-474
-482
-495
-549
-601
-626
-663
-699
-718
-752
-747
-613
-423
-273
-112
73
192
243
272
243
171
153
222
360
529
623
688
983
1460
1736
1698
1419
832
144
-211
-277
-358
-440
-422
-396
-428
-470
-492
-514
-560
-613
-632
-634
-665
-718
-740
-676
-533
-366
-193
-15
110
161
180
168
115
79
89
92
70
57
63
56
28
17
33
36
16
7
15
7
-16
-17
-2
2
1
5
-2
-12
-3
2
-12
-15
4
16
12
6
8
9
1
6
27
24
-7
-11
12
15
-4
-14
-23
-39
-37
-22
-38
-63
-21
74
117
88
57
41
18
15
26
12
15
33
-8
-6
131
269
483
858
851
197
-324
-252
-112
-176
-189
-146
-160
-162
-143
-149
-142
-115
-101
-93
-80
-55
-15
5
18
82
162
196
216
245
245
209
159
109
68
20
-53
-116
-134
-142
-166
-170
-154
-154
-144
-92
-11
84
176
293
533
853
1078
1239
1364
1186
646
127
-150
-287
-341
-342
-370
-402
-395
-403
-440
-469
-501
-542
-569
-597
-632
-646
-638
-606
-512
-365
-228
-107
33
146
164
120
86
61
21
-18
-36
-41
-43
-32
-6
16
14
-3
-9
-2
7
11
3
-8
-7
-11
-21
-14
-13
-34
-38
-14
0
5
27
58
78
81
71
38
-20
-35
33
63
-12
-43
25
39
12
74
188
360
606
582
103
-308
-262
-97
-104
-140
-117
-109
-114
-101
-91
-94
-81
-46
-27
-28
-18
13
57
116
170
214
264
320
357
364
343
298
229
134
40
-15
-51
-95
-121
-128
-148
-165
-156
-146
-136
-96
-27
72
229
475
753
930
1046
1303
1546
1298
560
-106
-379
-448
-507
-535
-526
-541
-566
-565
-575
-616
-657
-684
-703
-720
-756
-798
-804
-760
-677
-548
-368
-166
2
105
170
221
227
171
104
75
76
76
65
49
46
58
74
70
40
29
56
65
38
39
56
35
14
8
-15
-16
15
13
24
117
183
154
120
108
79
69
96
107
97
102
80
51
155
332
459
718
994
702
-6
-280
-85
-18
-106
-97
-64
-86
-86
-54
-31
-24
-32
-40
-30
-4
24
42
58
97
157
202
228
253
267
246
189
114
36
-31
-84
-134
-178
-195
-192
-191
-197
-205
-189
-130
-86
-106
-132
-94
-22
1
-33
-65
-73
-96
-125
-120
-108
-120
-109
-93
-119
-86
39
125
232
398
268
-197
-425
-272
-177
-235
-229
-181
-189
-209
-200
-180
-165
-154
-137
-108
-77
-45
4
64
119
176
256
333
364
351
313
242
148
63
-17
-88
-122
-129
-131
-114
-86
-81
-80
-55
-23
-9
-15
-19
6
42
47
22
-9
-45
-78
-76
-47
-41
-51
-25
-7
-20
33
148
247
396
483
212
-210
-290
-109
-38
-61
-27
20
26
24
33
40
40
43
50
60
82
112
137
169
220
266
303
345
374
355
300
232
149
56
-26
-87
-134
-161
-167
-176
-188
-184
-170
-157
-130
-114
-131
-138
-109
-92
-109
-140
-169
-189
-198
-194
-183
-186
-185
-154
-157
-183
-104
33
145
313
354
-13
-426
-413
-225
-196
-200
-153
-155
-171
-145
-125
-126
-116
-79
-35
-21
-21
28
107
159
214
307
385
420
449
463
422
327
194
64
-8
-41
-84
-114
-113
-127
-159
-176
-168
-133
-72
18
183
392
562
753
1036
1313
1464
1316
738
58
-251
-287
-370
-447
-412
-370
-380
-404
-432
-461
-495
-546
-594
-621
-651
-693
-707
-680
-633
-551
-406
-234
-78
69
196
259
254
211
157
114
82
48
28
36
43
35
39
60
66
59
69
84
80
74
88
93
68
41
35
50
61
39
18
66
144
167
151
134
94
48
58
91
71
45
63
42
9
108
245
360
644
815
361
-275
-354
-143
-138
-198
-164
-153
-178
-171
-152
-152
-166
-178
-169
-146
-120
-82
-31
30
100
170
233
283
305
291
249
184
95
0
-79
-141
-189
-212
-214
-215
-218
-216
-205
-177
-148
-145
-145
-97
-18
19
-8
-47
-66
-84
-94
-74
-72
-99
-70
-41
-96
-53
134
242
391
697
625
21
-360
-239
-128
-183
-179
-136
-133
-119
-98
-100
-88
-59
-43
-41
-33
-7
34
78
118
161
224
296
322
287
245
213
135
21
-50
-65
-80
-102
-101
-87
-95
-118
-115
-84
-66
-72
-62
-17
26
33
3
-43
-72
-73
-60
-48
-50
-55
-28
-24
-51
38
198
275
479
799
627
-21
-326
-159
-70
-141
-148
-112
-97
-88
-97
-103
-78
-51
-39
-25
-2
22
46
90
162
220
250
285
316
299
245
189
118
17
-69
-99
-104
-125
-147
-143
-136
-154
-191
-206
-188
-177
-174
-127
-47
19
77
136
222
365
495
595
806
1065
1035
627
136
-198
-356
-402
-408
-406
-393
-390
-414
-435
-439
-465
-520
-566
-595
-630
-666
-689
-695
-662
-569
-443
-313
-177
-50
36
84
92
55
18
6
-14
-29
-24
-46
-78
-46
4
-10
-37
-16
17
16
4
24
57
70
85
110
120
143
186
178
125
111
120
110
122
153
147
143
168
176
210
330
467
631
797
658
195
-69
54
181
155
147
174
153
127
143
154
117
59
31
25
17
23
49
69
93
151
226
280
308
327
336
308
241
164
90
4
-74
-105
-104
-115
-146
-181
-200
-187
-154
-144
-140
-71
57
170
260
397
592
784
990
1294
1557
1413
762
-5
-463
-587
-607
-649
-683
-684
-690
-715
-740
-773
-813
-843
-881
-937
-970
-973
-986
-978
-886
-732
-577
-415
-243
-106
-25
15
9
-31
-54
-49
-56
-80
-80
-48
-22
-19
-19
-10
12
40
51
56
70
61
44
79
102
46
20
106
192
196
172
156
139
111
78
80
104
98
86
74
47
121
288
413
615
831
565
-55
-272
-75
-9
-73
-33
13
-23
-53
-38
-11
12
21
24
37
57
88
142
210
285
359
418
456
484
489
455
393
313
217
130
66
10
-43
-68
-67
-81
-116
-127
-95
-69
-84
-96
-61
-7
27
28
1
-29
-44
-64
-75
-60
-61
-59
-22
-31
-48
61
188
323
660
828
356
-227
-282
-135
-163
-192
-151
-146
-146
-142
-160
-148
-113
-125
-149
-119
-76
-65
-48
-9
32
77
130
161
161
146
118
72
2
-84
-147
-162
-178
-220
-234
-216
-233
-281
-289
-249
-212
-203
-195
-149
-83
-61
-89
-106
-94
-98
-117
-108
-93
-96
-75
-60
-100
-78
49
129
222
393
297
-138
-376
-243
-135
-169
-165
-125
-124
-134
-136
-132
-110
-87
-82
-73
-50
-28
-3
40
91
148
217
279
305
283
239
208
160
68
-5
-24
-46
-71
-56
-32
-32
-33
-28
-26
-19
0
19
22
18
45
97
109
64
18
4
-1
-1
8
6
1
26
33
4
48
158
225
306
354
120
-239
-294
-129
-80
-111
-87
-58
-58
-51
-44
-38
-11
17
20
25
52
80
103
150
221
280
322
361
387
384
359
307
214
107
38
0
-35
-66
-82
-89
-98
-108
-120
-140
-150
-122
-89
-87
-38
110
235
309
494
762
934
1123
1416
1434
900
183
-248
-392
-448
-479
-492
-507
-516
-521
-549
-580
-596
-634
-690
-721
-738
-760
-760
-736
-700
-591
-402
-241
-137
-19
93
119
89
63
42
22
7
-9
-23
-32
-42
-48
-49
-50
-45
-37
-34
-33
-30
-26
-8
-5
-48
-80
-50
-11
-9
-27
-34
16
97
98
26
1
24
12
-19
-21
-13
-5
9
1
6
92
200
304
430
388
56
-224
-183
-47
-27
-44
-32
-21
-5
23
48
71
97
114
119
127
151
182
214
253
305
355
394
419
420
400
366
308
228
145
78
33
6
-18
-43
-47
-29
-28
-38
-20
8
45
132
222
313
534
828
1002
1186
1488
1516
1008
339
-100
-312
-395
-402
-410
-438
-454
-472
-509
-540
-560
-590
-631
-678
-727
-766
-790
-786
-722
-596
-444
-295
-157
-51
2
8
-8
-40
-90
-130
-141
-148
-160
-159
-159
-167
-161
-149
-143
-122
-107
-129
-145
-130
-129
-134
-108
-92
-117
-133
-129
-134
-120
-89
-110
-139
-73
37
77
46
7
-13
-8
19
40
28
29
60
34
5
149
347
455
668
812
403
-191
-268
-69
-65
-101
-49
-58
-95
-88
-84
-76
-47
-47
-47
-8
18
31
89
164
225
302
376
410
439
454
402
315
243
147
33
-13
-2
-26
-81
-100
-86
-80
-81
-69
-45
-6
39
54
67
162
320
465
613
786
944
1132
1422
1650
1488
866
146
-271
-384
-409
-427
-424
-430
-438
-426
-434
-480
-512
-516
-545
-600
-627
-638
-674
-689
-627
-512
-383
-231
-72
48
107
124
131
132
110
78
61
56
49
37
35
49
38
-27
-120
-222
-311
-314
-225
-158
-150
-136
-117
-112
-78
-46
-84
-112
-43
47
64
26
-18
-49
-69
-70
-49
-39
-33
9
23
-13
27
141
255
473
661
408
-106
-279
-124
-43
-64
-63
-71
-84
-68
-60
-68
-63
-56
-53
-41
-27
-10
28
69
100
150
222
268
276
270
253
222
176
99
4
-65
-117
-177
-207
-192
-189
-204
-193
-177
-193
-196
-147
-99
-94
-78
-17
13
-21
-41
-36
-68
-110
-101
-82
-98
-93
-51
-55
-107
-75
47
171
323
395
134
-253
-310
-140
-94
-120
-86
-71
-91
-90
-87
-91
-76
-62
-53
-27
0
25
77
139
184
243
323
376
389
386
365
316
248
168
89
39
12
-10
-25
-22
-14
-15
-22
-34
-41
-26
2
7
0
24
78
107
93
56
22
4
-3
-3
0
-2
13
34
3
-7
95
189
265
464
525
152
-242
-233
-95
-105
-128
-109
-121
-131
-109
-93
-84
-70
-48
-18
6
29
77
133
174
221
288
356
405
427
423
387
305
191
86
0
-70
-107
-124
-154
-179
-190
-211
-224
-215
-218
-225
-212
-218
-247
-232
-174
-146
-173
-228
-272
-301
-341
-367
-361
-380
-414
-406
-417
-462
-392
-197
-68
-74
