# session 14
27
-13
58
164
241
366
417
130
-268
-333
-177
-132
-158
-142
-135
-148
-141
-130
-124
-111
-105
-114
-113
-89
-60
-45
-32
-2
38
78
127
180
215
238
269
274
228
171
124
68
9
-26
-42
-50
-55
-63
-74
-75
-69
-69
-79
-87
-94
-97
-82
-57
-55
-64
-25
46
53
-10
-47
-42
-58
-81
-81
-96
-91
-48
-69
-81
74
222
312
572
656
151
-289
-102
130
15
-76
-32
-44
-71
-52
-48
-66
-75
-59
-24
-10
-6
25
40
43
107
196
247
297
349
371
397
423
384
311
247
150
42
-1
-6
-28
-59
-87
-87
-61
-120
-284
-381
-345
-295
-266
-232
-243
-277
-235
-141
-97
-106
-129
-166
-200
-204
-195
-200
-197
-154
-142
-192
-139
48
188
347
549
360
-227
-503
-321
-205
-252
-234
-195
-205
-194
-172
-183
-187
-170
-162
-158
-144
-135
-132
-110
-69
-34
2
63
135
182
200
216
230
200
119
36
-29
-95
-141
-141
-120
-90
-49
-31
-36
-11
7
-44
-86
-43
19
49
78
108
153
231
283
258
220
211
195
179
183
172
164
185
149
92
181
312
393
649
893
568
-41
-202
-52
-58
-107
-50
-40
-89
-94
-75
-63
-40
-18
0
26
49
65
85
106
139
178
186
163
166
193
197
180
162
124
53
-21
-87
-148
-182
-196
-219
-230
-214
-215
-221
-191
-170
-186
-179
-150
-144
-139
-115
-93
-65
-25
-15
-43
-64
-59
-54
-56
-56
-54
-33
-2
-16
-21
78
211
342
509
467
57
-276
-195
-14
-1
-21
2
8
5
14
17
12
17
43
69
68
66
76
69
58
81
108
116
142
194
234
241
227
190
109
0
-85
-134
-192
-261
-312
-399
-583
-761
-782
-675
-565
-481
-404
-339
-275
-191
-127
-132
-179
-194
-178
-191
-230
-248
-264
-311
-336
-303
-248
-183
-129
-129
-100
35
170
307
505
464
37
-277
-174
-8
2
13
58
65
68
93
106
124
158
180
186
199
215
234
262
294
325
362
397
433
480
515
522
522
506
450
376
305
232
170
137
116
107
107
92
60
53
64
55
45
71
95
79
73
111
148
162
149
81
-7
-46
-62
-87
-103
-118
-121
-107
-137
-137
7
136
222
455
507
0
-497
-435
-236
-262
-288
-234
-237
-265
-255
-229
-200
-191
-207
-198
-156
-125
-108
-87
-57
-12
47
104
143
182
235
272
255
196
118
29
-61
-147
-216
-217
-184
-229
-298
-261
-205
-259
-323
-303
-259
-247
-265
-294
-275
-204
-147
-130
-132
-130
-116
-110
-98
-44
-19
-42
4
70
53
121
328
484
650
796
514
-45
-191
47
135
72
88
109
78
68
70
52
40
23
-19
-49
-48
-53
-58
-38
-11
7
43
102
161
206
220
204
167
109
29
-55
-117
-153
-186
-224
-242
-239
-238
-238
-223
-207
-203
-195
-158
-105
-78
-82
-71
-15
58
95
62
-1
-32
-32
-27
-26
-45
-45
-11
-39
-71
64
236
360
680
941
556
-103
-259
-87
-76
-135
-113
-110
-133
-126
-110
-97
-78
-62
-59
-54
-31
6
38
58
82
116
161
216
258
279
299
317
297
234
162
100
37
-18
-43
-48
-67
-90
-88
-71
-63
-69
-77
-75
-69
-65
-58
-48
-42
-27
9
37
31
-3
-46
-78
-82
-75
-90
-101
-64
-53
-114
-96
40
132
247
460
378
-115
-413
-276
-153
-195
-187
-149
-171
-176
-138
-129
-161
-171
-130
-96
-103
-97
-55
-22
-5
14
50
115
177
206
231
255
239
197
153
86
10
-36
-60
-84
-93
-83
-81
-92
-93
-81
-77
-86
-89
-73
-36
1
0
-16
34
122
128
76
64
68
41
42
77
71
47
76
97
60
81
186
303
474
570
294
-147
-267
-135
-83
-92
-75
-87
-112
-102
-87
-88
-89
-85
-80
-73
-61
-46
-38
-25
5
37
69
112
155
180
191
193
182
146
79
-2
-66
-105
-135
-162
-175
-174
-172
-175
-167
-154
-150
-152
-148
-136
-117
-102
-98
-74
-25
0
-23
-61
-86
-97
-89
-66
-62
-84
-80
-57
-79
-65
64
185
294
463
391
-54
-341
-197
-28
-29
-17
15
-16
-46
-51
-63
-55
-22
-10
-23
-27
-15
-5
-6
-6
23
76
129
178
223
261
290
300
271
208
127
44
-24
-69
-87
-83
-92
-128
-144
-126
-124
-147
-143
-122
-123
-129
-111
-90
-68
-22
25
29
13
7
-16
-53
-31
20
6
4
72
47
-27
89
274
399
648
740
223
-378
-379
-140
-134
-182
-150
-144
-143
-120
-121
-121
-98
-84
-64
-34
-36
-46
-11
38
69
116
174
211
249
303
328
314
283
218
128
61
8
-58
-100
-105
-124
-143
-129
-141
-180
-150
-73
-18
62
168
284
513
823
1048
1267
1536
1513
988
293
-182
-387
-443
-460
-477
-490
-505
-524
-529
-533
-551
-581
-613
-644
-680
-724
-757
-767
-757
-713
-621
-500
-372
-235
-102
5
76
118
126
102
72
61
59
53
46
48
56
62
64
67
76
80
74
70
72
74
70
73
84
85
74
71
74
66
45
38
53
53
22
15
64
122
146
142
117
75
38
33
55
53
31
45
41
2
80
240
338
549
798
525
-123
-343
-135
-66
-137
-126
-115
-146
-139
-115
-118
-120
-100
-81
-78
-69
-43
-25
-8
33
83
119
162
215
249
261
263
248
218
186
142
76
13
-27
-55
-85
-114
-131
-125
-107
-94
-83
-71
-61
-39
-16
-15
-14
24
69
77
46
8
-8
-9
-10
-8
-9
-11
7
9
-17
27
140
259
433
495
151
-302
-343
-150
-129
-189
-154
-123
-152
-161
-140
-136
-142
-129
-101
-77
-58
-42
-26
-2
32
70
116
168
206
226
242
245
219
170
107
42
-12
-61
-104
-125
-127
-129
-125
-112
-106
-113
-122
-117
-93
-71
-76
-80
-52
-25
-39
-73
-89
-97
-105
-91
-67
-74
-77
-39
-36
-68
0
139
231
321
320
23
-326
-333
-155
-102
-121
-107
-100
-108
-117
-105
-53
-34
-90
-126
-113
-115
-105
-58
-34
-25
28
100
152
202
248
264
253
226
178
114
47
-18
-70
-90
-87
-93
-102
-89
-66
-56
-50
-39
-33
-28
-19
-3
29
73
102
91
56
34
21
-11
-41
-31
-17
-12
25
31
-9
72
224
283
462
740
514
-146
-399
-179
-81
-146
-124
-75
-77
-78
-64
-49
-40
-35
-12
20
32
40
56
68
98
152
202
250
301
332
355
372
340
251
155
73
2
-58
-112
-167
-196
-187
-177
-192
-208
-217
-217
-178
-134
-151
-164
-100
-21
8
-5
-45
-76
-88
-105
-104
-78
-88
-96
-45
-43
-64
68
246
353
551
617
165
-354
-347
-142
-162
-208
-153
-148
-168
-154
-168
-173
-115
-91
-123
-116
-74
-56
-40
-6
31
86
155
213
262
301
315
302
265
189
88
7
-38
-70
-102
-128
-139
-140
-141
-142
-141
-139
-120
-85
-75
-100
-92
-22
36
33
-3
-45
-87
-116
-120
-106
-112
-116
-73
-68
-120
-34
148
241
466
801
606
-64
-358
-192
-131
-206
-192
-160
-159
-136
-121
-122
-97
-63
-50
-47
-42
-22
13
34
38
68
135
200
244
277
298
294
260
200
122
37
-32
-71
-93
-104
-103
-113
-130
-118
-101
-112
-115
-88
-65
-52
-31
-12
20
70
89
58
20
-1
-17
-21
-15
-12
6
17
-36
-52
74
197
311
610
766
326
-238
-289
-115
-131
-181
-134
-118
-149
-152
-131
-120
-122
-119
-107
-106
-101
-60
-23
-20
2
58
106
156
208
221
226
255
242
171
109
61
5
-32
-52
-75
-84
-83
-101
-122
-125
-126
-128
-112
-88
-83
-95
-82
-37
-14
-46
-87
-100
-108
-114
-96
-77
-81
-70
-40
-37
-18
63
153
274
396
249
-151
-337
-195
-84
-103
-103
-84
-88
-79
-64
-64
-61
-53
-53
-47
-27
-7
7
18
38
77
122
159
196
238
262
263
250
217
166
108
51
1
-32
-44
-48
-55
-57
-48
-43
-49
-58
-56
-38
-16
-5
29
131
298
497
642
687
701
659
462
322
461
513
146
-246
-295
-239
-281
-311
-299
-306
-317
-319
-333
-348
-363
-385
-415
-442
-452
-448
-448
-435
-390
-340
-298
-238
-157
-79
-20
20
53
80
82
64
59
68
68
65
73
77
62
51
56
66
59
38
25
36
40
19
-1
-17
-38
-29
3
-3
-30
-13
44
93
100
66
37
40
30
1
-8
-14
-11
8
-31
-52
95
252
359
645
786
275
-348
-376
-177
-211
-266
-201
-169
-175
-155
-146
-163
-156
-115
-93
-102
-108
-103
-78
-2
90
151
201
253
287
309
321
316
294
241
151
84
104
162
161
107
61
25
-9
-25
-49
-94
-87
-27
-27
-91
-84
15
93
80
14
-27
-28
-35
-50
-41
-57
-93
-55
-12
-60
-14
196
343
445
542
286
-251
-433
-232
-150
-206
-182
-159
-192
-182
-146
-151
-157
-139
-132
-127
-96
-73
-66
-26
44
90
117
169
236
274
273
258
227
155
51
-34
-88
-138
-183
-196
-190
-190
-186
-172
-160
-155
-145
-120
-79
-59
-78
-78
-17
54
76
48
1
-36
-58
-63
-58
-69
-62
-10
-21
-88
3
178
266
520
862
610
-111
-391
-188
-112
-180
-157
-126
-139
-130
-115
-107
-87
-68
-55
-39
-22
-1
17
25
63
135
180
195
237
289
299
283
266
230
168
95
31
-7
-26
-56
-88
-89
-75
-79
-89
-95
-111
-109
-73
-64
-96
-86
-26
-3
-34
-65
-90
-128
-155
-141
-114
-108
-90
-47
-62
-98
-18
103
196
420
590
284
-209
-308
-159
-134
-150
-114
-123
-148
-120
-95
-102
-95
-74
-63
-51
-24
3
11
19
55
107
144
179
227
266
281
284
264
214
151
89
39
12
-9
-38
-50
-41
-44
-57
-55
-55
-71
-77
-58
-46
-52
-39
4
33
18
-22
-56
-73
-86
-93
-91
-97
-103
-98
-113
-105
-9
79
113
162
70
-267
-485
-356
-190
-183
-191
-169
-174
-177
-162
-149
-128
-110
-107
-81
-31
-9
-11
7
49
88
127
184
245
282
297
301
287
250
193
122
46
-15
-55
-84
-105
-112
-105
-86
-47
0
16
8
17
40
43
40
72
121
138
118
92
71
53
50
65
63
42
67
92
45
80
259
378
525
812
718
67
-353
-221
-84
-114
-106
-111
-156
-144
-119
-116
-87
-66
-87
-91
-65
-44
-32
-12
21
66
117
170
232
291
318
311
286
240
161
77
15
-52
-119
-137
-126
-143
-161
-153
-155
-160
-141
-122
-112
-108
-123
-118
-53
3
-1
-26
-45
-68
-95
-107
-95
-90
-97
-65
-46
-123
-147
-30
100
308
553
352
-259
-523
-320
-203
-246
-223
-208
-251
-236
-182
-173
-193
-201
-198
-188
-158
-110
-93
-105
-68
6
55
106
174
208
219
228
202
136
54
-33
-98
-140
-183
-205
-201
-206
-214
-209
-205
-194
-168
-154
-138
-105
-97
-95
-31
62
81
30
-6
-9
-19
-21
7
10
0
45
58
12
97
287
403
621
880
605
-68
-313
-111
-37
-103
-79
-44
-66
-72
-58
-49
-47
-53
-50
-23
-2
6
37
89
135
184
250
313
366
410
430
430
423
388
306
220
169
136
111
100
90
72
54
57
82
95
62
29
54
97
101
82
68
78
108
84
-22
-117
-175
-272
-375
-422
-467
-510
-508
-510
-457
-264
-78
112
464
598
168
-275
-237
-76
-88
-92
-43
-38
-39
-27
-41
-43
-5
37
72
114
157
192
220
246
281
333
396
455
497
527
549
550
514
443
355
272
205
170
162
115
12
-77
-108
-95
-109
-253
-474
-578
-552
-526
-486
-390
-291
-210
-125
-63
-57
-91
-128
-190
-310
-431
-469
-434
-390
-385
-398
-385
-349
-254
-101
-186
-667
-1113
-1156
-984
-818
-661
-561
-544
-502
-401
-315
-270
-228
-170
-106
-50
1
61
122
171
222
292
358
402
435
461
475
477
464
426
370
312
258
226
229
229
204
188
202
225
239
239
236
245
264
277
276
270
280
313
332
306
261
238
229
213
209
212
189
180
201
176
150
242
358
459
619
563
99
-266
-168
13
7
-13
8
-2
-5
7
-2
-7
9
10
-1
4
20
34
44
51
68
105
152
196
242
278
291
285
250
174
79
-9
-79
-125
-156
-185
-203
-212
-228
-235
-224
-228
-256
-262
-233
-220
-238
-239
-206
-167
-144
-143
-168
-206
-236
-245
-225
-209
-226
-218
-178
-202
-198
-29
114
191
425
491
-22
-532
-459
-237
-258
-274
-197
-198
-245
-245
-226
-204
-184
-189
-196
-176
-148
-129
-100
-54
2
67
132
169
205
277
329
303
250
197
104
0
-54
-64
-67
-93
-136
-147
-115
-95
-98
-98
-104
-108
-69
-37
-61
-54
31
92
77
39
11
-5
-12
-21
-31
-35
-10
32
1
-36
102
289
395
611
741
320
-249
-285
-53
-29
-73
-33
-23
-50
-47
-27
-5
7
-2
5
37
54
55
73
101
137
193
247
298
367
363
202
27
-2
23
-13
-53
-61
-86
-108
-91
-79
-92
-93
-70
-51
-40
-27
-10
11
35
43
42
63
111
156
161
124
88
76
70
73
82
48
17
57
47
-83
-183
-216
-145
203
503
185
-388
-471
-240
-182
-214
-178
-150
-133
-104
-99
-92
-61
-46
-47
-29
-1
22
43
71
104
127
147
198
270
306
297
275
249
213
159
75
-9
-44
-54
-84
-107
-95
-87
-106
-117
-88
-67
-98
-127
-105
-86
-104
-113
-89
-58
-40
-41
-59
-85
-100
-89
-72
-80
-98
-90
