# session 108
-21
-17
-33
-20
58
165
276
398
474
457
378
266
210
368
544
333
-103
-287
-254
-267
-283
-253
-256
-257
-230
-245
-280
-269
-253
-273
-286
-269
-262
-279
-264
-201
-167
-176
-145
-65
-17
-9
11
30
17
4
6
2
-9
-29
-49
-38
-13
-8
-4
11
10
1
-3
-13
-18
-15
-42
-73
-30
51
67
27
5
3
-14
-33
-29
-24
-38
-23
6
-30
-33
100
215
320
595
688
222
-270
-256
-88
-105
-122
-72
-78
-101
-79
-65
-75
-70
-52
-35
-18
-9
-5
13
49
95
150
202
245
297
360
390
369
332
286
203
113
52
-9
-77
-105
-92
-92
-112
-125
-130
-125
-92
-59
-69
-83
-48
-5
-7
-32
-50
-71
-85
-74
-51
-41
-45
-38
-21
-24
3
99
194
318
487
400
-22
-288
-186
-71
-95
-103
-75
-75
-86
-95
-102
-99
-93
-88
-76
-52
-23
-1
13
46
99
145
184
228
269
286
279
257
225
172
99
32
-10
-39
-61
-68
-59
-48
-48
-64
-77
-70
-50
-38
-49
-52
-3
47
28
-21
-38
-54
-79
-74
-60
-80
-98
-68
-56
-95
-79
9
75
191
341
199
-204
-364
-220
-146
-186
-179
-166
-193
-200
-189
-188
-175
-153
-140
-123
-90
-62
-42
-17
16
56
107
158
197
226
247
248
224
182
119
38
-41
-92
-121
-148
-163
-157
-154
-168
-182
-187
-181
-155
-132
-133
-121
-68
-22
-27
-61
-85
-83
-78
-91
-99
-91
-78
-56
-58
-98
-47
109
215
336
492
327
-141
-331
-151
-40
-84
-93
-67
-61
-55
-45
-33
-29
-32
-20
15
48
75
107
139
172
215
276
357
442
490
495
488
459
396
323
233
116
22
-17
-29
-42
-71
-111
-118
-90
-82
-93
-82
-55
-13
92
283
481
580
619
768
1070
1323
1251
782
215
-104
-221
-328
-379
-341
-339
-379
-386
-390
-413
-424
-449
-502
-534
-548
-587
-641
-683
-699
-678
-649
-631
-566
-423
-270
-157
-64
30
104
123
96
70
59
50
44
30
-2
-13
2
-1
-21
-24
-18
-21
-23
-15
-10
-11
-9
-21
-51
-56
-25
-17
-41
-28
37
89
89
68
59
47
19
10
33
28
6
28
23
-14
69
219
352
661
941
600
-85
-305
-141
-105
-151
-121
-122
-150
-130
-115
-134
-131
-98
-81
-83
-76
-61
-40
-4
25
49
105
182
235
272
301
313
302
269
214
155
95
18
-62
-101
-94
-83
-85
-84
-80
-75
-47
-1
20
18
46
98
110
82
60
50
30
1
-18
-10
-12
-37
-33
-29
-77
-56
73
191
357
533
346
-130
-318
-166
-87
-125
-113
-95
-112
-115
-107
-108
-99
-80
-72
-75
-69
-47
-24
-2
38
81
113
149
195
232
244
226
186
155
128
67
-16
-70
-92
-106
-107
-98
-101
-103
-100
-113
-108
-57
-25
-45
-42
13
45
21
-13
-45
-86
-115
-117
-112
-127
-138
-110
-98
-138
-110
16
105
198
347
258
-126
-333
-213
-118
-144
-136
-114
-128
-128
-123
-140
-141
-122
-119
-119
-99
-82
-76
-50
2
42
65
111
180
231
251
265
276
247
168
80
6
-67
-122
-132
-129
-156
-183
-172
-154
-153
-146
-118
-96
-93
-64
1
35
18
1
-11
-45
-76
-66
-31
-17
-18
15
38
6
59
230
380
597
832
599
-33
-310
-133
-46
-124
-128
-95
-114
-132
-127
-123
-120
-111
-94
-83
-71
-46
-27
-15
28
100
162
209
263
317
353
358
332
272
172
57
-18
-58
-99
-124
-122
-131
-144
-134
-131
-133
-91
-42
-36
35
282
594
804
943
1163
1453
1498
1014
255
-247
-382
-422
-470
-479
-497
-544
-552
-530
-543
-584
-616
-645
-681
-717
-742
-756
-767
-763
-720
-636
-519
-369
-205
-68
25
83
104
95
95
115
139
189
271
381
597
889
1096
1319
1720
1917
1461
648
39
-257
-374
-395
-398
-412
-409
-404
-424
-442
-445
-475
-532
-564
-545
-522
-545
-580
-551
-451
-341
-227
-98
15
98
159
166
122
94
102
105
95
85
78
87
103
107
115
136
140
129
129
126
110
98
97
99
100
79
42
34
46
32
7
4
-1
-16
-9
19
30
23
25
38
48
51
53
44
32
34
37
23
17
33
30
2
3
34
27
-5
27
104
133
112
93
79
63
51
37
24
25
33
9
-34
-3
113
250
425
476
146
-279
-311
-118
-87
-145
-139
-127
-129
-119
-123
-139
-138
-126
-111
-93
-74
-54
-33
-3
33
75
125
180
224
255
278
283
267
234
184
120
62
14
-40
-91
-120
-133
-143
-149
-151
-150
-137
-120
-115
-116
-105
-87
-72
-65
-84
-129
-160
-168
-187
-200
-180
-168
-178
-176
-184
-186
-83
75
190
291
241
-112
-404
-297
-101
-107
-135
-88
-83
-109
-95
-79
-88
-81
-56
-41
-30
-10
21
68
121
161
217
308
398
468
516
516
474
424
342
207
84
9
-65
-136
-151
-141
-164
-185
-169
-151
-142
-124
-112
-92
-28
43
52
6
-26
-7
11
-17
-29
6
7
-12
26
45
33
132
292
432
619
614
149
-318
-298
-97
-68
-89
-85
-122
-144
-120
-111
-109
-90
-87
-99
-91
-65
-41
-15
29
79
116
160
237
309
331
317
276
191
84
-2
-76
-161
-228
-248
-255
-274
-279
-269
-266
-255
-224
-204
-204
-191
-140
-76
-45
-60
-93
-115
-122
-119
-107
-95
-101
-86
-36
-41
-65
54
205
288
548
801
462
-168
-314
-124
-110
-178
-146
-115
-121
-121
-130
-135
-111
-82
-69
-58
-44
-33
-13
42
114
167
207
262
335
404
427
393
332
253
157
74
11
-42
-70
-74
-76
-82
-88
-86
-71
-50
-43
-57
-68
-31
32
40
-13
-54
-67
-84
-101
-99
-100
-123
-120
-98
-112
-92
12
99
242
509
490
6
-345
-242
-109
-154
-159
-102
-94
-103
-97
-106
-109
-90
-78
-75
-60
-41
-18
18
48
68
100
146
191
238
273
271
246
209
152
88
25
-43
-96
-103
-89
-100
-119
-113
-109
-122
-102
-46
-9
-3
44
192
399
543
619
783
978
860
382
-59
-232
-282
-324
-340
-341
-352
-362
-364
-358
-361
-392
-424
-430
-440
-474
-496
-490
-485
-480
-439
-350
-234
-109
-4
69
121
146
128
99
80
56
47
98
172
235
367
584
743
853
996
952
539
54
-184
-240
-256
-248
-233
-245
-257
-238
-205
-195
-215
-238
-237
-221
-236
-291
-341
-341
-289
-209
-129
-44
63
168
243
302
358
452
620
730
712
808
1057
1038
608
148
-105
-225
-267
-268
-293
-323
-320
-320
-345
-374
-400
-433
-472
-505
-524
-519
-486
-421
-317
-185
-58
55
130
142
130
138
136
115
108
102
114
165
214
351
681
883
558
-107
-623
-769
-596
-273
-16
70
42
11
14
11
-14
-25
-9
9
11
9
31
81
144
227
320
382
408
407
361
280
206
129
32
-45
-85
-116
-123
-110
-127
-158
-146
-122
-129
-146
-144
-131
-124
-119
-108
-101
-103
-100
-92
-83
-68
-57
-64
-67
-58
-61
-64
-50
-51
-72
-68
-55
-89
-124
-89
-51
-92
-127
-60
29
48
43
46
13
-45
-49
-5
3
-20
-2
10
-12
73
257
393
540
619
295
-205
-288
-81
-44
-93
-53
-44
-80
-61
-41
-62
-61
-41
-48
-59
-53
-44
-29
1
39
90
147
188
220
257
277
270
254
219
152
96
78
50
2
-17
-15
-30
-46
-46
-44
-34
-23
-32
-39
-6
54
88
59
8
0
7
-30
-64
-47
-44
-89
-107
-88
-98
-87
-4
84
231
443
361
-95
-381
-277
-172
-222
-244
-219
-228
-239
-227
-222
-228
-220
-192
-166
-153
-134
-99
-62
-25
25
86
152
212
245
248
240
216
160
83
18
-26
-62
-90
-98
-94
-95
-106
-116
-111
-98
-91
-91
-82
-55
-21
-5
-31
-83
-105
-99
-113
-122
-87
-59
-65
-77
-87
-54
43
136
241
323
145
-218
-323
-148
-44
-45
-17
-4
-27
-25
-12
-13
-11
1
20
36
49
84
124
144
180
240
276
305
371
425
421
393
358
303
234
154
76
27
4
-21
-42
-48
-50
-49
-30
1
21
20
25
57
87
84
61
41
31
37
80
162
229
281
404
542
570
683
1085
1388
1097
414
-121
-326
-343
-334
-362
-388
-382
-391
-417
-420
-427
-471
-518
-545
-568
-602
-643
-670
-667
-663
-675
-640
-534
-423
-322
-200
-113
-99
-98
-87
-109
-149
-168
-174
-177
-158
-125
-115
-138
-148
-120
-92
-90
-84
-49
-6
25
30
1
-26
-17
-13
-29
-10
19
24
59
77
38
115
311
459
684
903
598
-48
-248
-31
41
-37
-35
-1
7
15
7
-9
-9
5
29
52
48
35
63
128
175
207
277
372
447
501
523
480
391
301
212
125
50
-11
-47
-57
-71
-94
-93
-68
-34
-1
29
76
184
325
475
671
868
984
1159
1479
1593
1169
437
-134
-392
-467
-487
-497
-504
-504
-508
-523
-538
-545
-558
-588
-629
-660
-681
-716
-765
-779
-732
-634
-505
-382
-269
-128
22
102
102
95
108
101
52
-9
-27
-6
-8
-34
-33
-23
-31
-26
-19
-49
-74
-49
-26
-46
-73
-82
-90
-99
-100
-83
-40
2
2
-29
-50
-58
-70
-72
-49
-38
-37
-8
-3
-38
17
144
237
467
773
601
-8
-301
-156
-72
-128
-130
-116
-132
-123
-105
-102
-94
-81
-72
-62
-49
-28
-2
24
58
108
165
221
278
325
347
340
314
284
244
173
83
20
-5
-10
-10
-24
-41
-22
21
41
39
35
45
84
121
101
51
26
19
3
-9
-6
-11
-9
31
46
16
76
227
338
458
544
312
-103
-240
-143
-136
-190
-185
-174
-175
-158
-143
-126
-102
-93
-88
-68
-45
-28
-10
11
43
88
132
171
212
243
249
237
212
163
99
38
-11
-42
-54
-63
-80
-100
-117
-121
-95
-57
-62
-97
-95
-56
-44
-75
-118
-151
-165
-163
-152
-145
-159
-160
-141
-172
-196
-105
10
134
373
435
24
-414
-419
-280
-298
-330
-289
-261
-255
-241
-224
-209
-200
-188
-157
-127
-110
-91
-68
-36
22
87
142
204
266
300
313
314
286
212
107
26
5
3
-25
-50
-51
-63
-84
-65
-28
-35
-51
-12
58
94
83
41
3
-8
-13
-19
-16
-31
-43
4
23
-15
71
246
324
408
477
198
-239
-297
-102
-64
-100
-56
-36
-58
-45
-24
-26
-23
-16
-13
3
20
15
12
50
117
176
218
269
343
390
374
328
269
169
57
-14
-64
-113
-126
-102
-99
-118
-105
-34
68
151
222
429
807
1113
1301
1625
1889
1539
689
-7
-323
-449
-494
-497
-518
-540
-538
-548
-580
-604
-623
-659
-704
-740
-768
-800
-827
-828
-787
-703
-588
-456
-310
-168
-62
-2
27
23
-8
-30
-32
-36
-47
-53
-52
-45
-33
-28
-28
-26
-22
-21
-18
-17
-16
-11
-6
0
5
0
-13
-6
21
17
-15
15
114
164
122
83
88
81
56
65
84
76
83
88
25
28
189
313
413
668
698
191
-250
-169
1
-29
-49
-10
-10
-19
-14
-6
8
11
11
33
46
43
60
87
104
134
187
248
302
334
346
346
320
269
212
146
69
6
-42
-90
-121
-135
-155
-172
-163
-135
-104
-77
-53
-16
32
46
11
-29
-42
-47
-56
-47
-35
-39
-28
-15
-55
-53
68
188
323
548
521
66
-286
-216
-108
-159
-162
-106
-121
-160
-147
-115
-102
-104
-109
-117
-128
-125
-99
-64
-32
13
63
101
129
153
153
117
62
5
-58
-126
-178
-208
-226
-234
-227
-220
-221
-220
-205
-179
-157
-151
-143
-104
-61
-64
-100
-119
-119
-125
-128
-111
-103
-113
-85
-55
-85
-55
89
200
330
537
443
-45
-338
-215
-90
-119
-127
-102
-99
-95
-91
-90
-86
-84
-73
-45
-24
-8
24
62
100
154
227
300
363
407
431
436
410
336
232
137
74
33
-4
-35
-43
-42
-63
-82
-55
-13
3
26
102
249
444
570
613
778
1116
1409
1558
1450
870
108
-271
-329
-405
-446
-387
-376
-414
-416
-417
-443
-464
-492
-535
-576
-631
-700
-742
-756
-767
-748
-677
-571
-435
-275
-127
7
135
208
208
186
160
119
78
52
43
52
45
11
-5
10
12
-3
3
26
23
-9
-50
-85
-95
-81
-88
-126
-125
-57
2
-6
-42
-61
-70
-75
-57
-35
-47
-43
-7
-34
-49
85
224
357
687
837
340
-244
-269
-83
-91
-122
-87
-98
-119
-101
-84
-77
-64
-54
-50
-47
-31
5
38
65
114
183
245
288
319
351
379
366
306
233
167
109
60
21
-9
-28
-34
-23
-15
-28
-21
25
43
19
36
88
93
66
42
-14
-87
-96
-54
-44
-73
-76
-57
-88
-111
-18
87
166
378
489
118
-361
-404
-245
-241
-265
-212
-176
-163
-137
-116
-110
-106
-91
-64
-45
-29
-2
21
52
113
161
178
215
269
281
273
272
222
111
25
-8
-33
-70
-93
-94
-98
-107
-109
-117
-126
-106
-91
-123
-134
-79
-34
-50
-83
-92
-90
-100
-113
-112
-109
-101
-79
-93
-126
-66
37
117
313
492
263
-177
-285
-137
-98
-131
-106
-84
-88
-74
-53
-45
-43
-35
-20
-9
-4
9
26
45
77
121
164
202
238
263
275
267
228
164
96
27
-36
-69
-75
-89
-108
-108
-112
-139
-150
-124
-100
-105
-106
-57
3
7
-32
-55
-50
-41
-27
-15
-25
-33
8
30
-28
-13
135
272
437
605
389
-133
-319
-132
-58
-126
-125
-109
-127
-126
-122
-130
-130
-144
-167
-167
-160
-148
-116
-85
-68
-35
24
