# session 208
-269
1479
31
-694
1476
2887
2330
2108
2398
2207
2020
2189
2298
2377
2621
2655
2170
1628
1567
1723
1664
1574
1625
1582
1496
1522
1458
1438
1547
1261
1178
1868
1106
-1288
-969
1735
969
-3174
-5623
-5560
-4454
-2549
-785
422
1663
2216
1754
1508
1672
1567
1401
1431
1409
1335
1333
1308
1220
1127
1060
1082
1115
1032
1054
1172
959
936
1458
191
-3937
-6192
-3185
504
1170
1526
1601
-1040
-2557
-578
-530
-2541
-645
2377
429
-2445
-972
1496
1538
1039
1255
1274
1093
1102
1084
1044
1098
1090
1042
1029
923
887
1091
1067
860
1140
1195
672
1268
1596
-1485
-3775
-733
1189
-2741
-6067
-5771
-5306
-3301
844
1479
-1685
-2795
-1427
-1044
-1874
-2110
-346
2254
1404
-3180
-5188
-1796
2061
2490
1625
2158
2400
96
-2009
-488
2164
2361
1614
1962
2087
1621
2185
2509
-271
-4421
-5910
-5144
-4914
-4936
-3840
-3031
-3984
-4457
-1803
2157
3617
1983
-371
-1582
-1712
-1275
282
2878
3706
1085
-1202
459
3173
3398
2707
2875
2960
2670
2607
2587
2452
2313
2120
2070
2089
1818
1851
2284
1330
-721
-358
2254
2029
-2123
-5510
-5965
-5420
-5096
-5389
-5415
-2200
2577
2535
-1113
-1330
900
845
571
2162
2772
2127
2432
2558
1360
1048
2420
2528
-274
-2809
-1618
1447
2552
1945
1823
2069
1913
1804
1897
1764
1656
1813
1641
1400
1862
1281
-2033
-5375
-6136
-5763
-5449
-5279
-5813
-5125
-1922
-212
-1659
-2449
-2044
-2148
-802
2150
3257
2539
2450
2708
2459
2333
2434
2332
2217
2235
2164
2073
2148
2110
1853
1881
1986
1570
1609
2180
378
-3206
-2590
2025
2008
-3932
-6606
-3842
-3469
-5817
-2969
2971
1764
-4687
-5704
-2481
-2458
-2567
241
52
-2465
-379
3222
2842
1962
2642
2218
1998
2869
857
-2922
-2156
1931
3062
1900
2225
2594
1745
2200
2651
-699
-5030
-6440
-6662
-5626
-2155
96
413
795
-1808
-5497
-2666
2148
-221
-4419
-2391
1782
2919
3068
3489
2563
1630
2571
3277
2257
1434
1564
1500
1226
1218
1201
1079
1024
944
820
777
727
580
526
544
384
274
374
280
322
752
461
221
1537
501
-4878
-6054
142
1950
-4139
-6159
-2545
-2798
-4274
-1096
-681
-5797
-6269
-742
2351
2247
1517
-1169
-3306
-714
3069
2169
-1925
-3165
-206
2416
2287
1740
2029
2076
1859
1985
2238
2406
2558
2685
2783
2756
2532
2340
2315
2087
1391
711
578
784
918
838
672
774
819
353
493
1131
-416
-3083
-2437
398
1046
202
256
491
288
314
458
441
543
731
712
675
903
1006
857
1034
1032
503
1078
1700
-1391
-5702
-4603
565
1663
-3235
-6081
-2240
576
-2175
-2674
707
-502
-5890
-7504
-3905
963
2783
124
-2909
-3374
-3224
-2348
692
3127
2850
2178
2589
2630
1920
2267
3026
360
-4716
-6344
-5249
-5940
-4907
147
617
-5203
-5334
1222
1839
-2730
-1819
1201
-879
-2585
476
3707
3952
1592
-756
250
1276
-1740
-3181
676
3685
3059
2623
3102
2920
2705
2879
2822
2695
2724
2626
2467
2404
2245
2060
2037
1875
1659
1807
1679
1215
1626
1623
49
448
1994
-2036
-7312
-4111
875
-1408
-3295
-604
-2157
-7498
-6736
-462
2706
26
-3954
-3955
-247
2373
2218
1727
1943
2057
1993
2080
2300
2309
1754
1143
1164
1337
1161
1112
1204
1026
1027
1178
834
852
1391
754
-179
-338
-2213
-4462
-2854
-54
777
1095
-746
-4205
-3558
-1509
-3482
-3947
211
2330
1070
871
1441
1104
934
1136
1016
939
1053
1002
973
1075
980
914
1121
1032
961
1446
1055
338
1673
1317
-3690
-5637
-2109
-2668
-6260
-2938
2243
-84
-3501
-1348
-531
-5352
-8268
-4343
72
-1250
-4247
-2705
1199
2506
1909
1915
2145
1963
1877
1925
1875
1824
1802
1829
1869
1780
1771
1868
1729
1792
2116
1683
1587
2745
909
-4700
-5187
1412
3063
-3462
-5568
-75
1504
-2974
-4018
-348
1790
1508
1114
1323
2177
1442
-1953
-3110
211
2704
2068
1614
2061
1918
1660
1787
1761
1652
1706
1676
1570
1604
1559
1448
1733
1957
1734
2245
2406
-1189
-5535
-3470
2197
2255
-2380
-4412
-3681
-2840
-1480
-1562
-4708
-7074
-6888
-6057
-3468
1160
3750
2403
-828
-3483
-3867
-2953
-3348
-3716
-914
2862
3738
2988
2903
2813
2701
2982
2020
-98
-50
2628
3429
61
-4065
-6496
-7169
-3981
1110
1116
-2143
-1873
-696
-1278
579
3319
2588
2035
3314
1451
-1943
-704
2757
3135
2149
2472
2776
2546
2878
3229
2646
1866
1760
1911
1838
1755
1715
1645
1706
1651
1420
1561
1547
1033
1498
1901
-531
-3341
-4311
-6638
-7705
-2217
1787
-2517
-4705
-213
634
-2136
7
3434
2571
1666
2454
1913
1584
2473
397
-4133
-4469
-99
2621
2001
1695
2219
1723
1541
2517
942
-4234
-7556
-6739
-5960
-6361
-5797
-5959
-6877
-3683
1174
-248
-4134
-1770
2422
743
-3306
-3958
-1923
573
3049
4243
2131
-1342
-998
2668
4158
3155
3009
3427
3148
2991
3117
2951
2812
2870
2799
2742
2792
2661
2624
2804
2598
2525
2987
2475
2013
3420
2098
-2822
-2033
2874
-346
-6234
-3145
458
-2376
-2748
-359
-2997
-7483
-7628
-3976
273
1052
-2251
-4726
-3535
-253
2735
3601
2967
2833
3039
2876
2714
2566
2583
2702
2190
2202
3143
1243
-3934
-6976
-6629
-6015
-5749
-6103
-6481
-3449
1053
618
-3273
-4331
-2278
54
2403
3921
1174
-4843
-6210
-1317
560
-2881
-2851
1998
4438
3649
3517
3900
3620
3446
3493
3328
3157
3048
2935
2860
2726
2656
2671
2475
2447
2606
2036
1935
3039
533
-6223
-6838
821
3308
-1869
-2558
491
-1412
-3230
-1112
-3294
-8402
-5588
1749
2349
-2153
-4390
-4428
-3806
-1203
2592
4730
3109
-1104
-2352
1160
3647
2797
2347
2827
2572
2436
2472
2047
2437
2470
-1366
-6624
-7498
-5954
-7022
-7029
-1998
1267
-2067
-4704
-1025
3684
2950
-1333
-1892
2009
3325
1379
1202
467
-2811
-2331
2306
3947
2639
2677
3158
2715
2629
2939
2940
2959
3127
3302
3633
3979
4006
3703
3206
2560
1914
1695
1794
1524
1390
1780
1212
725
2267
775
-5960
-7696
-1762
-13
-3456
-3266
-2664
-6189
-7853
-6596
-6384
-3821
2111
3938
12
-3635
-4701
-3779
-431
3051
3704
2965
2949
3080
2852
2718
2837
2847
2416
2389
3021
1807
-1772
-3891
-3996
-5888
-8103
-5236
290
727
-3522
-5080
-2715
-1749
-2245
273
2670
-1000
-5984
-5997
-5191
-5886
-2383
3882
4005
-1222
-3520
-2740
-3198
-2671
1215
4276
4022
3391
3751
3808
3622
3730
3716
3627
3753
3704
3486
3491
3345
3079
3300
3167
2553
3103
3343
1404
164
-259
-2648
-3730
-2059
-1848
-1263
1133
-902
-6423
-7973
-5796
-2287
2508
4364
801
-3190
-4523
-4705
-3002
976
3515
3169
2725
3117
3116
2859
2868
2764
2542
2561
2507
2197
2237
2338
1807
1933
2795
916
-3724
-5853
-4767
-5678
-8644
-7229
-1275
481
-3867
-4758
447
2147
-1670
-1726
2656
3752
2779
3649
2249
-1064
-768
-716
-4110
-3488
1925
3820
2264
2278
2837
2356
2189
2351
2177
2064
2099
2041
1912
1838
1908
1758
1426
1676
1764
1041
1511
2192
-1174
-6395
-8512
-8838
-7527
-2487
814
-1797
-3449
462
3799
159
-6876
-7696
-2503
-1570
-4644
-2478
2649
3302
1964
2361
2550
2001
2050
2163
1905
1803
1791
1705
1686
1644
1586
1682
1808
1894
2021
1958
1519
951
635
961
1447
-139
-5158
-9949
-8573
-2502
-230
-2941
-3431
-1958
-4232
-6248
-2200
2395
2399
1712
2128
1802
2288
2784
-316
-3024
-302
2963
2365
1417
1928
1880
1457
1548
1518
1321
1370
1400
1258
1183
1283
1329
1127
1075
1259
1014
811
1405
961
-2643
-7882
-10198
-6617
-1091
-86
-1636
20
2851
2929
2132
2037
1470
949
1223
1025
147
96
892
1214
970
855
843
733
651
607
530
451
378
320
272
238
307
365
296
442
731
593
658
1321
150
-4467
-8956
-8250
-2495
2215
1284
-1756
-1399
831
1131
370
481
1038
1035
637
1148
1712
-138
-1650
555
996
-3764
-5698
-1037
2703
2206
1644
2134
2048
1800
1892
1923
1898
1824
1785
1878
1689
1586
1972
1655
1395
2936
2148
-3937
-7326
-2460
2744
1951
-1175
-3812
-5346
-2912
1378
229
-5878
-8743
-5298
0
2991
3537
2375
-936
-4683
-4585
-293
3311
3676
3133
3276
3267
3066
3084
2881
2758
2927
2439
2203
3133
1618
-3769
-7451
-7074
-6412
-6228
-5817
-6557
-5670
-157
4450
2719
-2404
-5247
-2449
2871
2664
-2019
-1593
4001
5627
806
-2996
59
4194
1842
-1596
923
4233
3560
2670
3188
2992
2539
2654
2522
2310
2415
2302
2289
2674
2520
2344
2930
2415
1711
3460
2294
-4355
-5493
586
825
-3495
-2226
-99
-1320
-756
-993
-5577
-8404
-6906
-3784
889
4236
2045
-2327
-4284
-4754
-3561
750
3841
979
-4217
-5168
-1289
2817
3767
2964
3069
3266
2475
2688
3412
629
-4846
-7702
-6729
-5338
-6123
-7401
-5262
-1093
-427
-2633
-2656
-863
-975
-2109
-586
2497
3289
2763
3074
2934
2950
3657
1156
-3095
-1961
2672
3717
2429
2625
3008
2581
2544
2754
2619
2539
2663
2605
2442
2553
2479
2029
2248
2393
1273
1608
2872
-1121
-6964
-4899
412
-765
-4575
-4842
-2474
958
1935
-1877
-3881
63
3518
2922
2059
2419
2609
2430
1981
1380
1104
1042
924
867
834
775
769
724
653
625
521
477
483
163
48
342
-189
-532
725
-533
-6036
-8230
-3990
-869
-2412
-4059
-3867
-3924
-3983
-2156
376
1196
824
655
881
1388
890
-984
-1257
809
1862
1278
1197
1515
1408
1380
1517
1502
1482
1455
1454
1623
1562
1368
1679
1827
1822
2897
1841
-4362
-8394
-5270
-3796
-6410
-3938
409
-2066
-4083
-364
-410
-6171
-8444
-5205
-838
2642
3870
1882
-1435
-3850
-4592
-2725
1231
3857
3733
3247
3477
3406
3120
3037
2876
2753
2718
2533
2457
2452
2263
2390
2458
1790
2142
2968
-708
-6500
-4534
2803
2867
-3084
-4391
-2446
-2582
-1478
1792
3016
2385
1935
2231
3164
1180
-3712
-3413
2044
1908
-4116
-5568
-874
2790
3037
2639
2650
2553
2650
2575
1669
1370
2272
2380
2169
3203
2318
-2362
-6596
-7918
-6916
-2888
1773
3010
2309
989
-2656
-4706
-1219
1418
-2251
-7182
-7824
-4435
159
3121
3897
2900
-214
-3412
-4476
-4313
-2385
1834
4336
3555
3049
3481
3180
2970
2963
2454
2923
2818
-2147
-7575
-4827
2139
2941
-2259
-7129
-8012
-3723
681
-1048
-3536
-65
3901
3517
2557
3003
3223
2918
2673
3051
3047
1460
929
1892
-497
-4409
-2655
2157
3114
1891
2064
2424
2190
2195
2359
2413
2263
2141
2352
1996
1413
2315
2114
-2191
-6151
-5511
-3008
-1272
-596
-1159
-1247
-934
-3149
-5295
-2702
182
-2831
-7527
-6927
-2320
1503
3370
3229
532
-2807
-4485
-4551
-2570
1255
3581
3175
2597
2881
3102
2770
2360
2951
2977
-317
-3647
-1832
2457
3402
564
-3594
-7287
-8050
-4781
-1219
-1072
-2742
-3436
-2197
571
1491
-950
-1741
1240
2788
1396
1432
2615
374
-3551
-3023
992
2693
1913
1811
2197
2037
1980
2192
2223
2161
2218
2308
2233
2143
2246
2083
1806
2103
1820
965
1948
1709
-3955
-7720
-3505
178
-1111
-1126
-657
-2691
-2125
1112
1468
473
851
1158
1524
924
-2377
-3775
-314
2428
1728
1264
1786
1604
1436
1777
1855
1989
2407
2209
1431
1079
1163
1142
1072
931
650
681
812
-255
-3320
-6965
-7408
-3617
-1044
-2506
-2820
-961
-2082
-4091
-1773
1490
1721
1159
1287
1625
1912
739
-1063
-320
1706
1815
1187
1480
1637
1371
1406
1494
1357
1248
1211
1132
997
926
986
906
685
690
501
18
338
5
-3788
-7389
-5388
-1816
-2464
-4406
-4283
-3355
-1884
-745
-2564
-5945
-6602
-3600
-168
904
571
-182
-2090
-2846
-160
2468
2296
1757
2116
2134
1939
2061
2121
2113
2193
2192
2191
2224
2175
2217
2247
2101
2222
2236
1633
1915
2219
-1583
-6496
-4879
-285
-891
-3437
-2992
-2669
-2989
-766
2134
2477
1494
2058
3429
1743
-1148
505
2642
-642
-2439
1822
4279
2306
1547
2287
1930
1589
1858
1741
1581
1674
1500
1338
1427
1249
1097
1250
789
451
1405
281
-4734
-7276
-4510
-3204
-4219
-1224
2045
-1934
-6746
-3774
1778
2916
2011
2177
2349
2032
1979
2114
1990
1590
1382
1562
1685
1762
1825
1423
1454
2139
553
-3254
-4742
-4054
-4840
-5853
-5706
-6394
-6309
-3328
-1216
-2280
-3685
-3093
256
3555
1111
-4176
-3167
2317
3724
2054
2546
3475
1307
-2615
-4699
-3094
635
2958
2871
2415
2553
2599
2442
2332
2272
2272
2163
2071
2183
1880
1620
2423
1183
-4617
-8191
-3635
1957
1909
285
-861
-3154
-3081
-510
-751
-1347
1699
3282
1645
2071
2957
-69
-2363
112
2516
1910
1375
1830
1763
1506
1601
1650
1606
1537
1549
1588
1184
1080
1821
699
-3673
-7309
-7408
-6446
-6755
-7268
-5430
-450
3544
1551
-3558
-4323
-510
1972
1638
1475
1898
1612
1542
1980
1247
578
1802
1223
-2737
-3684
355
2869
2033
1783
2380
2236
2143
2352
2270
2294
2293
1983
2136
2161
1354
1730
2448
-709
-4890
-3421
1254
2629
736
-1763
-4287
-5368
-2896
361
-1638
-7110
-6965
-643
3216
2793
2906
3353
2376
2226
2084
-1062
-3382
-820
2150
1772
1006
1486
1476
999
1167
1320
757
658
1208
-416
-4884
-7683
-5398
-349
2331
325
-2268
-1100
108
-2477
-4113
-2092
-1596
-3575
-2834
475
2053
1774
1315
1369
2401
1770
-2125
-3606
198
3072
2242
1712
2308
2163
1869
2001
1914
1757
1749
1629
1573
1562
1340
1351
1521
1165
1085
1508
725
31
1422
539
-4575
-6387
-2984
-2424
-4773
-2708
1443
1187
-275
1259
1425
-1860
-2822
268
1997
-34
-3220
-4937
-3708
-436
1571
1452
1264
1390
1245
1309
1192
814
1422
1303
-1880
-5356
-6749
-7065
-4781
26
1824
219
624
2504
1961
797
1836
2257
-479
-2271
38
2095
1448
1653
1829
-1594
-4257
-1472
2179
2380
1689
2017
2116
1848
1851
1858
1732
1704
1734
1688
1639
1652
1568
1429
1509
1584
1602
1971
2020
1590
2009
1228
-3561
-7271
-5060
-2611
-3600
-2547
1059
2028
1358
1552
1288
1674
2454
-950
-5175
-2473
2334
768
-3685
-4998
-3409
-220
2732
3109
2359
2572
2622
2184
2338
2196
1652
2338
2113
-2017
-6362
-6929
-6278
-6170
-5579
-5947
-6191
-2504
1085
-1172
-4041
-1262
3067
3580
2246
2881
3795
1151
-2290
-1259
2192
3848
3421
757
-1988
-265
3673
4356
3072
2729
2540
2277
2395
2257
2183
2316
1834
1886
2649
852
-2298
-1292
1983
2115
1453
2405
1189
-1633
-1232
1383
2750
1568
-3165
-7646
-6019
-2583
-3803
-4395
-499
-124
-5650
-7544
-2792
1304
1855
1984
1507
-1715
-5145
-4488
-578
2114
2161
1738
1917
1942
1764
1761
1711
1592
1574
1458
1346
1398
1173
980
1545
1006
-3077
-7996
-8269
-3628
1054
2335
605
-1782
-2957
-2973
-2315
-813
757
964
149
323
1433
229
-3140
-3318
225
1991
1157
1058
1597
1463
1380
1621
1658
1633
1743
1818
1768
1680
1651
1572
1453
1520
1508
1277
1369
1386
1016
1626
1552
-3055
-7842
-5241
10
-401
-2318
-165
1822
1012
702
1114
889
1385
1780
-130
