# session 201
397
561
573
179
795
1303
-1841
-5516
-3328
1763
1789
-2426
-3054
869
1553
-2860
-4302
-346
2252
1463
1120
1630
1459
1248
1363
1274
1158
1134
1045
1054
1020
824
953
1162
818
858
1482
-205
-5199
-8673
-6253
-672
2610
2854
2403
2029
1845
1541
-612
-3905
-4815
-3261
-1872
-574
1205
2005
1659
1517
1629
1496
1342
1328
1303
1199
1149
1215
1119
1045
1362
1330
1079
1902
1766
-2005
-6285
-7551
-7123
-5188
-579
3257
1947
-3179
-6776
-6323
-5541
-6872
-5492
-36
2425
-339
-3405
-3941
-1012
2698
785
-3662
-1580
3676
4296
3019
3615
3897
3272
3180
3253
3151
3110
2722
2126
2035
2148
1873
1719
2066
1510
-1914
-6939
-8144
-3708
-363
-1903
-2337
940
2816
1921
1154
1542
2191
332
-3776
-3916
-247
-571
-3366
-1396
2335
2448
1609
2140
2266
1895
1966
1968
1763
1778
1828
1738
1678
1656
1615
1593
1529
1388
1347
1387
1252
1102
1120
971
863
1119
934
617
1369
1046
-2689
-7258
-9304
-7811
-3451
356
1807
2346
692
-2148
-953
862
-1630
-1953
1043
-392
-3080
-1212
130
-723
419
1698
897
590
1053
768
489
663
652
586
632
541
446
500
543
544
550
522
544
650
669
633
690
686
593
636
644
483
496
470
151
206
296
-307
-91
685
-1263
-4040
-2699
254
454
-30
-297
-3058
-6201
-5309
-1865
46
33
-150
12
106
103
212
350
407
448
348
25
-144
31
182
138
110
163
220
262
271
251
240
281
360
348
307
397
367
247
471
666
919
1768
795
-3189
-4722
-1127
1655
760
-11
373
189
-83
94
89
6
88
80
80
239
329
288
287
371
481
524
458
434
520
534
462
491
603
662
637
587
623
685
706
874
976
739
744
731
-458
-1545
-522
1044
962
353
744
1080
407
460
1482
-139
-3935
-3945
-254
1262
287
186
744
699
554
797
970
608
709
1560
240
-3951
-6985
-7304
-6201
-3006
979
1966
965
1330
1674
-397
-3152
-3656
-1171
2081
2133
-1010
-2082
482
2210
1571
1175
1485
1479
1435
1505
1495
1530
1491
1556
1857
1676
1557
2643
3119
1605
778
1344
-410
-5081
-7833
-5422
-851
1312
1585
1924
569
-1582
-273
1790
-652
-3705
-2066
1177
1984
1502
1673
2132
1779
1487
2534
1941
-2402
-4630
-945
2538
2069
1403
1552
1053
1543
2064
-1185
-5682
-6536
-5880
-6247
-4250
674
3155
1857
1551
3018
1050
-4276
-5612
-1263
2642
2856
504
-2453
-2854
-65
2294
2395
1686
1558
2008
1049
-1676
-2119
795
2474
1734
1615
2054
1660
1576
1876
1392
1515
2293
13
-4656
-6538
-6025
-5949
-3856
691
2838
2165
2262
2324
-276
-3757
-3888
-231
2194
380
-2055
-2479
-2448
-1562
976
2492
2021
1784
2121
2089
2098
2370
2466
2505
2632
2679
2656
2466
2008
1592
1248
895
959
999
411
585
1223
-988
-5208
-7305
-7436
-6265
-2425
925
807
669
1033
-1318
-3296
-1320
1183
1440
168
-1926
-2657
-666
1408
1293
-857
-3687
-4137
-1159
1569
1675
1119
1253
1316
1158
1162
1193
1164
1163
1120
1016
929
865
841
846
782
695
738
824
808
776
756
733
851
947
843
971
1184
828
804
1465
455
-2249
-2664
225
2468
1163
-1755
-2484
-1339
-2056
-4628
-5232
-2789
20
1008
705
589
789
780
727
775
730
673
687
675
700
757
727
753
797
677
771
969
596
604
1262
-159
-3013
-2688
-775
-2154
-3627
-772
2011
-1
-4053
-5642
-3740
-405
1421
1214
844
1034
1069
907
886
900
852
826
846
850
817
868
1010
1094
1207
1395
1291
817
474
612
875
725
612
1041
932
373
1167
1124
-2947
-7048
-7276
-6870
-6305
-2413
1605
2251
2131
1259
-1664
-2545
-564
-252
-539
1469
1752
-1646
-2776
549
2365
235
-1037
613
1854
1438
1237
1538
1486
1348
1437
1451
1394
1436
1420
1298
1273
1262
1191
1335
1396
1098
1323
1344
-1421
-5188
-4829
-738
2249
2400
1335
1246
1848
-534
-4465
-3048
768
-1460
-4738
-1814
265
-3198
-4413
-612
2069
1893
1709
1964
1917
1883
1990
2001
1993
2058
2066
2019
2067
2087
1967
1978
1995
1748
1795
1956
1417
1533
2435
354
-4281
-6169
-5779
-6020
-4080
407
2724
2618
1970
31
-1363
373
2910
2694
-655
-3572
-2095
1057
881
-253
1446
3348
1759
-3120
-7326
-5625
421
2114
-2156
-3907
-79
3022
2654
2354
2865
2336
2215
3156
1224
-4011
-6978
-6189
-5424
-5479
-5313
-5471
-4966
-3709
-4680
-5816
-2105
2423
1249
-2588
-3309
-258
3373
2794
-1320
-1768
2227
4126
3112
2916
3349
3121
3044
3206
3000
2789
2796
2626
2442
2528
2354
2047
2349
2266
1599
2452
2713
-1295
-4391
-1244
2501
2463
1730
92
-4102
-7418
-7281
-4425
-331
2218
2230
1835
1509
760
801
1625
1765
1143
718
1169
1629
355
-1257
-341
1574
1660
1039
1242
1414
1152
1016
972
797
668
664
559
442
607
615
363
661
754
139
912
1153
-2971
-5686
-2848
-3403
-7761
-5222
-1020
-3943
-4535
-361
-2120
-5204
-1870
-1254
-5453
-3913
1537
2420
1178
1720
1987
1462
1522
1645
1408
1344
1391
1298
1210
1176
1089
1004
1026
1052
974
930
940
955
1114
1146
915
1157
1431
791
1010
1824
-1595
-7185
-5995
148
1856
692
1699
291
-4684
-5059
-196
2174
1253
1215
1771
1498
1350
1545
1484
1431
1508
1447
1375
1362
1323
1399
1415
1272
1543
1859
1508
1648
1771
-1260
-6094
-8520
-8767
-6972
-1898
2037
1710
1569
1850
-1716
-5298
-3194
1438
2987
46
-4289
-4281
308
3112
2425
2106
2716
2656
2524
2741
2691
2593
2667
2549
2392
2408
2293
2223
2389
2143
1888
2560
1994
-2113
-6031
-4022
2187
4240
-698
-4794
-2156
2535
4041
3135
2480
3985
4263
-2074
-8073
-3811
2358
-933
-6533
-4687
643
2643
1785
1754
2649
942
-3900
-8101
-8660
-4516
1458
1916
-3502
-5173
-344
3089
2478
2300
2920
2319
2432
3430
984
-4738
-8102
-7568
-6625
-7048
-7238
-6212
-6286
-7386
-3961
2632
2749
-2539
-4157
-3468
-3803
-1608
404
-2305
-2936
2206
5339
4102
3638
4281
3974
3715
3917
3792
3618
3588
3464
3448
3515
3493
3581
3609
3273
2811
2431
2470
2870
2450
2025
3262
2212
-3944
-7372
-2618
2728
2851
1792
2233
2308
1713
1689
2143
1905
142
-3071
-5565
-3607
877
134
-4783
-4229
1257
2966
1224
1474
2388
873
-760
117
1628
1746
1419
1417
1430
1510
1358
1193
1715
1537
843
2214
1877
-4302
-7800
-2099
3499
2373
34
-900
-1873
-237
2567
-1317
-8615
-6658
568
-1431
-7033
-3395
1044
-3146
-5807
-1127
1950
696
378
1085
826
712
1059
1080
1095
1277
1319
1359
1421
1309
1188
1203
1204
1094
924
872
958
855
714
873
707
331
946
763
-3343
-8922
-10461
-7007
-1629
2029
1540
-1071
-1879
-2390
-5318
-5983
-517
3543
-857
-6401
-4091
1511
2992
2091
2093
2118
1775
1713
1623
1486
1549
1515
1399
1423
1408
1320
1311
1253
1124
1122
1132
1116
1249
1160
900
1241
1315
619
1405
2122
-2101
-6811
-3412
2830
943
-5628
-6234
-1206
1892
1507
1054
1370
1360
1196
1243
1235
1215
1305
1316
1240
1236
1248
1172
1091
1084
1073
989
916
961
1053
1012
946
1054
1112
1103
1379
1365
690
694
588
-3557
-9961
-9685
-2049
1097
-4307
-7163
-2253
2206
1973
1301
1747
1700
1536
1772
1809
1697
1745
1797
1774
1802
1921
1881
1702
1848
1871
1334
1643
2242
-790
-6843
-9721
-8310
-7801
-8855
-6594
-922
2868
3411
2377
-1466
-5935
-3970
1900
1666
-2405
-1022
3145
3438
2301
2772
2949
2501
2655
2856
2788
3024
3282
2985
2387
2162
2385
2334
2084
2358
2273
1636
2475
2591
-2367
-7203
-4133
2009
3308
2175
2500
2652
2176
2379
2419
2175
2719
2207
-1433
-5483
-5631
-1417
3093
2543
-3086
-6363
-2693
2289
2809
1988
2962
1571
-4246
-8581
-7013
-1939
2879
4276
707
-2992
-1157
2996
3779
2360
2351
3526
2447
-2533
-7491
-8349
-7149
-7112
-7409
-6776
-6482
-7035
-6443
-4719
-3986
-2273
1928
2869
-1456
-4049
-2988
-2745
-3133
-2810
-3289
-2554
1558
4912
4731
4059
4416
4391
4093
4172
4168
4025
4011
3894
3687
3613
3454
3196
3150
3006
2670
2815
2854
2188
2585
3187
-344
-6016
-7632
-6931
-7491
-5289
826
4751
4801
4026
3309
3116
2486
-1066
-3417
397
3447
-580
-4169
-2737
-3234
-6125
-4175
777
2122
1123
1191
1431
1158
1153
1195
1056
1094
1194
1202
1296
1414
1438
1467
1518
1517
1420
1329
1401
1403
1209
1235
1227
936
1159
1024
-42
1122
2609
-1840
-6059
-2144
191
-4332
-4649
-387
-487
-2325
-2159
-2079
-564
2180
2224
1104
1560
1881
1472
1553
1734
1553
1485
1685
1843
1776
1934
2189
1384
698
1770
1239
-2031
-1804
1598
-409
-6828
-9504
-8302
-7402
-8023
-8728
-5768
-48
1114
-2924
-5335
-3926
-686
2711
4042
3354
3205
3675
3441
3106
3304
3457
3329
3213
3170
3086
2935
2850
2880
2837
2759
2757
2617
2590
2878
2563
2086
2946
2473
-2536
-7956
-8757
-7368
-7263
-7366
-6703
-6476
-6667
-5044
-352
4536
4942
522
-3789
-4146
-2794
-3544
-4051
-451
3706
4628
4899
4050
380
104
3894
1929
-4014
-2529
3691
5123
3569
3779
4247
3769
3687
3905
3585
3305
3539
3306
2732
3280
3036
-1220
-6796
-8707
-7496
-6972
-7974
-7031
-2020
2769
3835
3905
3113
-1117
-5002
-5129
-4847
-4423
-488
4106
4284
2124
2668
4283
2121
-738
568
586
-4791
-8626
-8036
-7238
-4839
585
3708
3255
3059
3053
2692
3363
2579
-1656
-5534
-6574
-5419
-1606
2773
3743
2638
2662
2975
2536
2380
2557
2355
2168
2281
2082
1810
2053
1792
1131
1869
1793
-1793
-3977
-901
2065
1419
698
1199
1141
862
975
868
648
636
554
429
434
389
287
295
279
173
199
322
396
596
776
433
-165
-288
-85
-99
-227
-203
-165
-234
-301
-318
-335
-345
-340
-360
-369
-319
-294
-371
-427
-343
-316
-536
-670
-424
-232
-291
-148
-83
-377
-173
-27
-863
-386
668
-3553
-10164
-8808
-1507
1302
-149
-158
561
228
80
263
133
86
195
154
110
140
142
149
143
150
257
344
402
574
579
187
-122
-36
76
32
19
31
-3
3
57
68
38
6
-31
-45
4
75
117
167
240
281
286
316
367
389
374
359
372
392
346
237
150
121
129
128
85
66
133
178
137
126
164
160
138
120
85
76
99
110
120
116
83
88
94
46
63
145
187
341
568
421
-32
-194
-29
41
-19
-22
12
15
7
13
16
-2
-13
14
53
68
70
80
96
102
103
115
138
168
196
195
168
153
142
104
58
35
25
-4
-41
-43
-34
-63
-84
-56
-36
-34
-1
18
-29
-71
-71
-76
-73
-60
-104
-135
-82
-74
-127
-101
-33
121
442
532
116
-268
-236
-138
-191
-222
-185
-157
-158
-183
-178
-130
-119
-140
-116
-85
-85
-63
-19
10
49
88
89
99
133
122
89
97
86
39
22
-5
-47
-41
-171
-555
-750
-452
-78
9
-15
24
76
102
92
57
32
12
-13
-8
23
50
70
60
16
31
81
65
165
460
484
63
-233
-153
-69
-102
-91
-79
-111
-101
-74
-93
-99
-73
-73
-86
-68
-42
-29
-1
33
48
73
119
137
117
102
91
75
73
83
66
14
-39
-65
-65
-65
-74
-71
-44
-23
-11
17
48
60
47
-1
-41
-37
-56
-74
-25
-54
-104
59
-5
-666
-998
-304
487
510
143
-85
-115
-30
43
27
-21
-35
-24
-23
-30
-14
16
22
22
40
49
49
73
108
142
171
174
187
247
269
210
170
169
139
90
31
-34
-40
-8
-41
-99
-78
-32
-40
-41
0
34
55
71
38
-9
-13
-27
-62
-45
-18
-29
-21
-29
-67
-18
69
164
418
564
207
-226
-217
-84
-133
-155
-107
-131
-151
-108
-102
-127
-114
-101
-97
-64
-43
-66
-51
22
53
32
42
92
121
98
51
43
62
36
6
44
61
0
-24
19
25
-1
5
-1
-42
-16
99
144
60
0
26
3
-83
-94
-38
-41
-66
-47
-61
-107
-90
4
231
530
487
29
-286
-234
-167
-196
-179
-156
-188
-203
-184
-168
-153
-140
-142
-134
-103
-76
-62
-41
-7
33
58
62
71
92
97
88
95
104
81
48
39
46
41
13
-23
-32
-5
23
33
50
81
105
109
90
49
13
7
18
26
15
-9
-3
6
-30
-39
28
143
346
506
309
-91
-218
-116
-107
-150
-125
-117
-140
-132
-116
-116
-107
-92
-88
-80
-53
-22
-2
18
44
63
73
87
97
93
86
79
63
47
31
6
-11
-13
-27
-52
-65
-67
-55
-29
-28
-48
-10
68
77
25
0
-3
-29
-45
-28
-33
-48
-22
-20
-71
-45
81
226
420
508
227
-159
-206
-71
-63
-100
-79
-71
-78
-69
-70
-73
-62
-62
-70
-62
-48
-35
-18
-2
12
36
61
70
66
64
67
65
57
49
34
7
-23
-37
-34
-37
-61
-84
-87
-76
-63
-44
-1
56
68
16
-27
-21
-27
-54
-54
-56
-65
-29
-18
-70
-19
146
297
481
548
204
-215
-222
-66
-86
-127
-98
-104
-113
-87
-80
-75
-58
-67
-83
-66
-35
-12
7
24
47
75
89
107
132
121
86
82
80
38
1
-2
-8
-29
-42
-57
-85
-98
-79
-67
-91
-102
-52
18
39
9
-19
-30
-59
-81
-64
-65
-76
-37
-37
-82
15
197
288
357
322
-3
-284
-200
-54
-78
-101
-69
-74
-84
-70
-58
-41
-21
-16
-13
-3
10
27
47
62
81
110
131
133
127
123
113
94
79
61
33
7
-3
-10
-22
-35
-53
-70
-62
-54
-83
-95
-20
72
72
13
-16
-24
-46
-48
-35
-51
-49
-19
-54
-69
72
235
360
529
469
31
-272
-174
-67
-119
-132
-100
-108
-108
-84
-76
-79
-71
-58
-48
-40
-23
1
24
44
61
73
86
96
96
92
83
61
36
11
-22
-51
-63
-68
-71
-73
-83
-97
-96
-88
-99
-96
-32
48
55
1
-36
-48
-65
-62
-52
-74
-69
-29
-59
-91
29
211
373
515
400
-19
-270
-169
-77
-121
-132
-105
-113
-118
-102
-91
-87
-78
-67
-55
-41
-26
-4
26
53
73
88
99
110
121
121
104
84
63
30
-5
-24
-30
-35
-40
-50
-69
-81
-59
-24
-27
-31
35
105
80
23
13
2
-8
19
51
233
676
826
197
-514
-483
-102
-8
-53
-16
-7
