# session 57
53
41
41
43
37
42
69
94
99
106
129
145
144
155
186
208
228
274
329
361
377
381
359
325
288
229
155
90
28
-30
-61
-77
-95
-105
-108
-113
-110
-100
-72
-1
73
145
322
567
725
873
1052
945
442
-62
-323
-463
-543
-541
-535
-566
-589
-601
-625
-651
-673
-702
-735
-774
-816
-848
-871
-892
-884
-826
-739
-626
-477
-335
-239
-181
-147
-146
-190
-268
-325
-330
-324
-348
-377
-382
-377
-368
-353
-351
-359
-348
-327
-331
-356
-372
-363
-350
-336
-316
-331
-359
-326
-323
-376
-100
696
1412
1491
1335
1619
2221
2558
2484
2186
1826
1627
1600
1465
1263
1209
1144
948
773
625
517
556
628
738
944
779
84
-372
-265
-167
-272
-316
-325
-372
-365
-357
-424
-462
-432
-414
-427
-448
-469
-454
-397
-357
-336
-278
-194
-124
-85
-83
-92
-86
-121
-226
-331
-401
-457
-486
-504
-539
-556
-553
-570
-567
-515
-480
-474
-452
-442
-454
-418
-329
-265
-251
-262
-282
-285
-273
-266
-251
-239
-245
-223
-201
-233
-169
22
149
331
634
512
-130
-494
-334
-207
-251
-218
-149
-147
-149
-130
-115
-91
-60
-43
-31
-3
32
57
92
149
211
272
342
405
441
457
453
407
313
213
139
74
19
-4
-17
-41
-45
-36
-52
-60
-37
-25
-29
-28
-33
-24
31
114
216
322
397
506
686
815
922
1283
1835
2011
1480
615
-26
-300
-376
-391
-400
-417
-418
-405
-414
-439
-452
-467
-495
-527
-553
-580
-611
-636
-632
-598
-546
-456
-314
-155
-22
73
133
157
144
112
79
53
35
25
16
5
0
4
15
27
31
22
5
-12
-19
-5
10
-8
-45
-54
-44
-43
-45
-44
-34
5
52
55
37
32
19
2
9
18
4
13
56
53
26
98
205
272
480
684
389
-190
-354
-158
-88
-128
-98
-78
-107
-100
-69
-58
-50
-38
-39
-33
-9
5
15
42
71
101
160
229
269
292
318
331
300
229
148
78
17
-40
-83
-99
-102
-109
-118
-122
-119
-111
-105
-103
-90
-75
-66
-38
1
-4
-55
-80
-66
-79
-115
-98
-59
-66
-78
-84
-111
-71
42
100
180
308
166
-239
-406
-254
-159
-175
-149
-118
-122
-113
-104
-106
-93
-75
-66
-47
-22
-1
22
47
83
140
202
248
285
321
340
327
279
208
130
59
0
-41
-66
-81
-94
-102
-103
-106
-122
-141
-145
-127
-108
-109
-104
-64
-28
-40
-70
-89
-109
-131
-134
-123
-129
-149
-123
-76
-105
-120
1
127
212
332
240
-179
-442
-308
-151
-147
-133
-94
-92
-89
-72
-68
-63
-50
-35
-19
-4
13
36
61
97
157
233
311
383
438
470
478
449
380
287
179
69
-15
-61
-78
-83
-88
-101
-115
-111
-86
-44
38
139
229
416
759
1049
1218
1524
1855
1632
807
30
-315
-415
-453
-453
-459
-478
-471
-482
-536
-565
-560
-596
-673
-722
-745
-787
-828
-820
-781
-735
-628
-443
-257
-119
-2
84
102
68
31
22
23
-3
-44
-48
-26
-27
-36
-25
-7
0
1
0
-3
-4
-2
-4
-7
2
14
11
3
10
21
10
-15
-20
2
5
-24
-21
48
117
127
96
70
59
43
37
59
66
61
89
74
29
138
312
392
624
897
590
-76
-268
-74
-40
-93
-65
-76
-114
-98
-77
-72
-75
-103
-110
-60
-22
-16
10
49
76
124
191
235
280
340
360
326
287
238
150
48
-29
-72
-96
-136
-182
-191
-168
-150
-135
-120
-109
-83
-29
42
109
185
368
662
879
1000
1259
1554
1412
765
81
-303
-439
-477
-495
-504
-497
-489
-495
-502
-515
-545
-573
-594
-629
-669
-694
-716
-731
-714
-650
-541
-395
-237
-93
19
84
109
110
89
54
34
25
8
-3
7
13
19
40
36
-2
-3
30
22
-6
-3
-1
-4
10
17
26
41
3
-18
59
127
313
830
1067
378
-480
-524
-134
3
-10
21
15
3
38
40
12
17
32
23
22
41
58
73
104
149
194
250
324
394
433
441
431
390
303
188
84
11
-34
-67
-91
-101
-105
-114
-120
-115
-116
-125
-137
-154
-164
-155
-155
-177
-188
-172
-155
-152
-159
-165
-151
-130
-140
-159
-134
-103
-113
-116
-82
-65
-65
-26
26
30
3
-13
-22
-39
-44
-31
-31
-37
-24
-33
-43
41
177
294
419
376
-2
-350
-299
-105
-76
-99
-72
-60
-66
-65
-67
-60
-42
-39
-42
-32
-18
-5
18
49
90
142
197
247
292
320
323
314
296
246
170
99
43
-8
-49
-68
-70
-67
-64
-62
-67
-71
-54
-29
-15
4
45
104
195
295
353
424
578
737
866
1086
1317
1215
695
103
-244
-367
-412
-426
-429
-443
-451
-444
-453
-479
-499
-532
-583
-624
-649
-683
-725
-755
-754
-712
-621
-484
-322
-170
-51
39
98
113
96
64
18
-15
-11
6
-1
-19
-18
5
34
49
33
10
33
83
93
68
45
28
37
76
78
31
26
89
149
166
149
111
79
58
60
94
91
40
41
51
27
136
336
423
544
668
346
-204
-292
-73
-61
-129
-71
-52
-105
-93
-57
-90
-115
-57
-13
-49
-61
1
51
68
121
209
282
341
416
474
456
397
359
290
146
20
-37
-98
-166
-182
-183
-216
-237
-215
-182
-158
-144
-134
-125
-99
-39
25
35
-3
-44
-72
-96
-101
-71
-64
-99
-92
-67
-107
-74
106
249
405
624
461
-129
-412
-222
-133
-232
-217
-149
-158
-165
-161
-179
-175
-150
-140
-122
-92
-65
-25
22
67
124
184
233
298
363
367
308
227
136
38
-52
-124
-171
-192
-198
-201
-204
-201
-188
-182
-190
-181
-145
-120
-126
-125
-82
-23
2
-17
-46
-54
-59
-71
-62
-51
-68
-56
-25
-53
-23
132
232
379
714
712
100
-371
-273
-110
-149
-165
-134
-148
-147
-114
-111
-130
-128
-109
-92
-73
-42
-8
25
70
138
211
271
331
391
411
389
363
301
175
56
-6
-52
-91
-94
-92
-119
-132
-95
-58
-34
46
165
289
502
769
953
1189
1509
1449
829
170
-165
-317
-409
-430
-429
-450
-471
-484
-496
-513
-533
-559
-601
-642
-660
-671
-691
-695
-647
-538
-397
-261
-124
16
110
144
159
158
123
79
57
49
32
17
22
24
6
8
36
31
-9
-15
7
2
-17
-24
-30
-36
-26
-25
-41
-47
-32
-23
-35
-54
-50
-18
7
-1
-3
53
115
104
56
34
23
18
46
61
38
46
73
49
58
164
283
423
524
310
-124
-284
-125
-22
-42
-38
-25
-41
-43
-29
-27
-37
-40
-30
-13
-2
5
15
38
74
118
170
217
250
278
302
303
279
242
189
112
35
-20
-60
-96
-116
-117
-120
-122
-116
-112
-100
-57
4
65
129
220
395
633
786
875
1092
1280
1058
518
68
-188
-344
-402
-391
-397
-418
-422
-422
-434
-453
-471
-485
-507
-546
-588
-616
-632
-633
-609
-543
-434
-299
-160
-32
70
127
137
112
67
19
-14
-36
-49
-45
-32
-30
-34
-28
-14
-2
8
17
24
31
38
36
25
26
32
13
-14
-6
14
-1
-22
0
61
112
109
66
40
30
1
-13
-4
-7
15
39
-21
-17
164
312
459
757
729
114
-349
-243
-84
-121
-135
-120
-136
-124
-109
-116
-106
-106
-116
-84
-32
-7
-5
-5
46
153
233
278
346
407
413
396
362
279
172
74
-13
-79
-116
-146
-177
-191
-181
-172
-175
-168
-135
-111
-117
-110
-50
13
22
-9
-46
-73
-87
-101
-105
-98
-101
-90
-83
-139
-115
74
207
339
650
631
-3
-456
-296
-121
-199
-218
-153
-156
-175
-160
-143
-132
-132
-135
-109
-67
-44
-31
13
88
155
204
278
377
424
397
355
305
207
87
-5
-71
-116
-136
-151
-170
-171
-161
-150
-136
-126
-121
-103
-79
-76
-65
-3
84
137
161
199
269
393
556
672
785
1098
1529
1588
1042
289
-188
-349
-385
-399
-404
-405
-413
-431
-440
-442
-463
-496
-516
-535
-571
-608
-628
-638
-639
-611
-540
-433
-329
-237
-118
11
88
111
99
50
17
28
17
-22
-16
18
8
-18
-4
14
6
11
46
57
23
3
30
61
65
70
99
134
143
124
98
86
78
64
58
57
55
65
62
33
72
191
284
415
562
383
-98
-328
-185
-67
-89
-102
-103
-112
-100
-97
-114
-106
-86
-84
-78
-59
-48
-22
35
76
94
154
246
292
303
330
334
280
224
185
105
2
-52
-71
-98
-118
-113
-114
-129
-128
-113
-102
-84
-56
-52
-62
-37
9
15
-26
-61
-69
-75
-80
-76
-76
-68
-51
-72
-91
-18
82
158
297
325
-6
-371
-361
-181
-139
-150
-116
-102
-111
-110
-103
-90
-72
-57
-45
-32
-15
15
57
98
137
187
253
319
369
398
401
372
311
229
136
54
0
-39
-72
-90
-92
-96
-106
-117
-126
-128
-118
-100
-91
-91
-54
33
100
116
149
216
312
487
681
789
1008
1524
1896
1528
604
-151
-421
-452
-474
-478
-463
-488
-521
-514
-510
-543
-576
-602
-636
-672
-718
-776
-817
-837
-841
-798
-702
-574
-422
-257
-99
33
106
114
104
103
94
76
61
41
19
19
41
52
39
20
16
24
28
31
44
48
21
-11
5
82
159
167
121
83
64
42
38
54
49
55
89
53
21
155
317
424
630
663
199
-263
-226
-50
-62
-80
-40
-42
-49
-24
-13
-16
-12
1
13
13
18
41
59
76
128
205
278
346
397
412
400
362
290
197
94
-1
-50
-67
-100
-130
-125
-116
-124
-128
-123
-108
-72
-46
-61
-70
-21
45
63
22
-35
-67
-72
-74
-79
-98
-121
-97
-84
-125
-63
100
174
352
693
581
-74
-430
-267
-164
-243
-248
-207
-206
-203
-191
-171
-140
-136
-150
-134
-98
-80
-61
-19
31
86
160
238
297
333
332
293
233
151
52
-31
-87
-129
-143
-136
-142
-150
-138
-127
-136
-142
-134
-115
-102
-107
-94
-19
70
104
118
163
234
355
519
624
746
1092
1444
1287
630
-3
-313
-397
-406
-418
-443
-444
-432
-450
-464
-440
-436
-486
-528
-533
-553
-592
-596
-582
-593
-595
-522
-382
-232
-101
28
135
171
155
138
120
88
68
67
64
54
51
58
63
63
62
60
65
71
55
28
15
8
13
32
36
42
89
123
97
71
78
68
48
69
92
75
79
111
86
70
169
287
426
676
692
211
-238
-205
-32
-38
-76
-59
-48
-40
-31
-38
-42
-33
-22
-8
5
5
15
55
97
122
163
226
277
310
336
337
308
258
184
98
27
-22
-53
-73
-94
-116
-123
-120
-119
-120
-121
-117
-93
-66
-70
-78
-45
-7
-21
-65
-87
-88
-95
-105
-99
-93
-94
-78
-82
-106
-37
102
182
269
325
87
-291
-361
-190
-125
-149
-123
-96
-107
-108
-95
-108
-125
-100
-95
-116
-53
-24
-107
17
174
-251
-721
-305
370
410
243
291
265
123
53
-5
-81
-100
-102
-131
-149
-141
-135
-144
-163
-168
-135
-98
-103
-113
-78
-25
1
-5
-30
-46
-47
-53
-49
-26
-30
-28
10
-5
-9
138
280
382
675
806
288
-322
-336
-127
-138
-163
-94
-94
-142
-132
-94
-68
-49
-44
-46
-28
10
51
91
131
178
244
317
374
421
457
449
386
294
188
80
-3
-63
-112
-127
-113
-121
-138
-119
-92
-42
74
178
272
508
831
1098
1425
1751
1604
890
123
-316
-479
-522
-533
-552
-566
-567
-583
-615
-636
-656
-699
-749
-791
-833
-869
-882
-866
-809
-697
-543
-369
-201
-56
59
129
152
144
121
101
94
89
73
64
69
75
79
87
91
85
84
95
106
108
96
83
86
99
104
97
82
68
59
41
19
19
32
19
-13
-16
33
100
120
81
43
38
39
37
41
26
18
57
58
24
105
241
352
600
755
354
-222
-299
-103
-91
-141
-107
-99
-117
-98
-77
-75
-71
-61
-47
-36
-35
-18
29
78
113
151
201
253
282
281
271
266
241
180
94
18
-33
-82
-133
-145
-117
-104
-127
-135
-100
-61
-21
66
159
240
443
739
940
1128
1343
1200
596
18
-254
-379
-452
-460
-447
-448
-468
-501
-505
-489
-518
-574
-599
-615
-653
-682
-669
-626
-575
-503
-385
-235
-104
-10
58
90
79
44
6
-19
-34
-44
-42
-34
-37
-39
-25
-8
1
1
-8
-12
-4
0
-3
-1
6
13
19
19
18
25
22
6
9
29
29
19
50
104
122
102
77
60
46
38
48
54
40
44
59
27
35
162
297
420
529
348
-114
-327
-167
-57
-92
-81
-50
-59
-47
-21
-11
3
18
26
42
61
79
110
151
191
236
286
327
370
418
434
408
379
350
288
205
136
82
34
1
-9
-6
-13
-23
-16
-9
-15
-11
-3
-14
-1
54
84
55
0
-51
-74
-68
-55
-41
-40
-46
-34
-55
-86
30
215
334
563
739
342
-310
-438
-204
-155
-207
-175
-169
-195
-183
-179
-202
-211
-189
-164
-174
-197
-169
-109
-88
-79
-19
65
122
165
204
196
121
12
-98
-196
-272
-329
-371
-401
-430
-452
-444
-431
-391
-217
36
128
24
-75
-95
-102
-96
-80
-124
-199
-209
-169
-167
-191
-189
-177
-107
127
383
478
510
548
569
688
709
246
-327
-381
-175
-204
-316
-284
-241
-280
-312
-295
-275
-286
-298
-276
-248
-237
-215
-175
-142
-101
-22
75
151
199
229
223
168
81
-4
-79
-142
-179
-195
-205
-208
-196
-167
-119
-74
-29
69
206
340
555
872
1167
1475
1874
2073
1728
995
342
26
-36
-26
-17
2
20
33
54
