# session 228
204
232
252
267
261
209
147
105
27
-42
-13
-28
-90
23
41
-175
42
233
-1395
-4380
-5658
-3879
-1058
410
412
293
577
818
924
1230
1760
2090
1769
903
143
-137
-155
-168
-183
-179
-188
-201
-191
-171
-183
-225
-258
-280
-317
-351
-359
-351
-318
-236
-127
8
173
269
255
268
309
260
185
111
19
60
85
-57
84
212
-254
-40
673
-1082
-3739
-2576
36
-652
-2009
-942
21
-417
-496
-133
-124
-123
-5
-26
-37
30
59
87
126
150
209
241
232
330
460
510
687
871
593
93
-7
154
179
149
160
138
128
146
123
102
116
107
97
122
135
129
138
157
191
244
277
290
304
299
274
237
171
109
89
70
31
11
10
8
9
24
82
207
317
396
611
952
1184
1388
1752
1897
1393
553
-72
-362
-455
-475
-500
-532
-540
-548
-578
-609
-621
-633
-657
-679
-693
-708
-702
-633
-509
-375
-250
-124
-8
56
49
31
41
13
-43
-16
21
-58
-85
4
-117
-413
-413
-182
-142
-225
-212
-199
-244
-258
-239
-227
-215
-192
-148
-100
-78
-58
-5
48
61
58
67
75
75
91
103
90
103
125
94
108
224
306
418
638
573
87
-226
-105
16
-42
-55
1
0
-15
8
-27
-94
-41
-23
-130
8
143
-458
-1085
-593
216
266
139
322
386
293
290
263
163
120
108
85
86
92
61
20
9
23
27
5
-4
36
98
128
114
84
69
67
74
83
85
109
146
118
95
196
331
498
771
774
271
-154
-95
42
8
-5
13
-20
-11
33
22
41
75
-13
-7
161
-114
-633
-223
472
10
-103
915
-343
-3762
-3785
-420
878
-64
-126
230
-26
-85
86
0
-61
12
10
-15
-32
-65
-14
96
119
75
62
67
50
45
68
64
54
86
80
45
139
288
348
412
392
83
-229
-213
-71
-29
-43
-58
-54
-55
-60
-23
-89
-209
-28
29
-593
-973
-357
254
231
185
315
399
405
214
-16
93
275
166
37
73
80
41
48
45
4
-23
-23
-8
-7
-34
-26
56
127
127
110
95
40
-12
5
30
25
44
38
-26
14
144
228
477
868
764
139
-205
-89
-14
-70
-68
-46
-55
-46
-32
-47
-61
-44
-33
-33
21
59
32
107
227
221
290
314
85
307
660
-533
-2126
-1445
201
285
-219
-45
62
-95
-31
63
36
83
178
231
308
522
846
1061
1131
1259
1328
1025
482
49
-193
-312
-350
-365
-391
-406
-415
-443
-467
-474
-513
-574
-593
-618
-667
-643
-609
-587
-378
-173
-155
123
352
-30
225
770
-1697
-5502
-4557
-600
-544
-2978
-2262
335
1090
732
828
934
805
778
752
642
593
586
555
535
524
496
476
484
502
503
495
520
576
604
567
506
477
485
514
535
505
464
452
409
434
604
669
785
1237
1161
285
92
305
-893
-2272
-2131
-2044
-2282
-1087
102
-493
-868
15
435
215
359
553
481
526
632
601
607
699
730
710
690
651
614
593
533
461
433
415
430
466
392
356
451
356
348
638
312
98
1177
149
-4178
-4921
-820
55
-2383
-1929
-732
-1478
-391
1928
1531
295
575
711
338
484
502
89
69
359
406
309
120
-263
-582
-649
-608
-531
-391
-229
-52
148
301
380
450
522
560
591
594
533
529
553
435
429
555
320
275
808
69
-2267
-3276
-2395
-1435
-17
1051
-1058
-3758
-2355
485
759
572
934
-427
-1793
-473
1112
865
507
754
716
621
706
664
741
913
977
1418
1753
970
324
661
-330
-3356
-5517
-5172
-3069
-291
1345
911
570
1387
654
-1733
-1906
-323
-624
-1277
273
1610
1243
1106
1480
1365
1169
1198
1087
936
877
767
681
683
640
583
622
657
606
594
633
584
535
576
568
594
672
480
375
620
316
10
860
390
-2676
-4008
-2067
-708
-946
-1357
-2278
-2711
-979
377
-1589
-3697
-1765
1535
1980
1040
1102
1196
761
624
663
513
444
492
461
398
396
445
506
555
599
638
662
666
638
565
445
315
240
213
184
130
42
14
53
-40
-94
88
-48
-323
202
263
-1551
-2718
-1157
685
681
-147
-545
-255
199
67
-199
62
250
49
47
218
276
579
992
715
-31
-288
-78
0
-36
1
-21
-97
-45
34
-28
-29
78
-34
-112
129
-25
-246
541
-18
-3934
-6140
-2643
701
-1100
-3419
-1973
614
1231
141
-757
-96
1116
1232
822
839
819
564
467
446
351
298
294
319
380
391
331
289
281
294
315
279
222
236
221
162
244
329
332
678
1098
677
-262
-641
-215
395
-61
-1624
-1999
-600
111
-324
-240
146
458
1275
937
-1479
-2368
-153
1405
852
591
996
930
759
847
832
747
692
566
484
497
443
336
287
248
201
220
230
149
139
197
111
98
249
88
23
524
-48
-2238
-3312
-2407
-1591
-1016
9
424
114
128
279
270
464
658
642
624
423
20
-72
121
164
120
169
199
210
306
446
573
657
686
683
589
488
577
596
479
701
776
359
791
1347
-283
-1807
-668
-662
-4165
-6953
-5979
-3270
-1928
-2118
-1253
796
1335
799
1043
753
-482
-398
889
1266
736
482
677
925
981
897
860
843
773
728
731
736
707
665
714
868
1053
1273
1297
829
341
416
542
336
544
693
-1501
-5599
-6899
-3285
285
-803
-3383
-2573
198
1297
1022
1040
1187
1113
1140
1231
1201
1147
1078
942
828
762
677
568
485
457
457
441
431
451
467
463
431
397
413
384
325
396
378
316
684
786
323
1018
1442
-2273
-6106
-3095
1512
-730
-4407
-1940
1185
-679
-2295
-154
1404
665
336
676
495
280
357
286
140
100
35
-51
-48
-25
-92
-152
-52
109
191
279
396
445
469
490
443
415
424
320
267
370
252
105
364
130
-995
-1266
-142
537
236
67
184
240
445
761
897
1020
1327
1488
1178
600
113
-169
-265
-304
-383
-358
-301
-427
-396
-248
-560
-544
74
-1089
-3779
-3761
-1041
95
-534
-414
30
-61
89
289
117
412
470
-1469
-3522
-2462
204
1108
666
660
820
648
548
589
548
497
498
472
428
419
425
413
404
402
367
324
326
335
308
290
286
242
188
169
147
140
161
112
99
258
263
60
189
261
-889
-2877
-3822
-2776
-778
456
506
260
229
273
451
803
972
688
228
59
182
257
223
234
279
271
229
223
255
266
260
285
331
359
372
405
461
518
575
633
670
691
710
687
624
539
358
194
306
166
-1303
-3413
-3666
-1764
-47
951
1386
-824
-4437
-4070
-167
1670
1069
1203
1874
1923
2069
2546
2587
2004
1197
547
217
109
71
39
-11
-71
-129
-190
-245
-295
-361
-430
-496
-574
-634
-682
-724
-649
-486
-363
-114
146
-3
16
449
-476
-2800
-3225
-1049
491
245
10
412
490
82
277
688
-1111
-4317
-4492
-1341
915
765
-360
-1827
-3211
-3316
-1602
612
1436
1014
855
1090
1059
926
954
1032
1154
1218
1085
979
999
926
864
932
785
557
740
626
-816
-2728
-3066
-1195
1211
2138
1616
1000
823
806
788
723
615
544
504
451
417
421
414
369
328
342
368
349
343
416
480
473
479
506
499
493
446
354
373
318
81
117
124
-270
59
556
-915
-2785
-3059
-3181
-2369
-271
-1720
-5539
-4027
967
2163
963
1153
1370
790
648
717
496
416
469
385
356
423
353
290
445
594
731
1031
1002
437
62
14
37
300
200
-243
389
466
-2335
-4090
-1570
688
238
247
-11
-2651
-3868
-1262
1190
1216
923
1164
1101
903
901
817
644
532
412
302
269
225
157
150
159
118
97
117
99
85
135
167
139
134
179
198
153
123
154
89
-52
53
182
-510
-2044
-3081
-2474
-806
313
404
452
979
1292
939
479
414
482
373
223
169
112
19
-7
44
56
24
50
95
84
102
123
88
197
313
202
385
621
88
223
1165
-1012
-5306
-4814
-593
-276
-3271
-3551
-1022
890
1386
1337
1241
1166
1033
837
640
574
609
381
-5
48
397
446
280
217
230
291
397
455
478
478
405
387
521
594
619
859
863
157
-313
23
-313
-2029
-3491
-3555
-2574
-1012
359
804
780
914
977
842
762
747
694
639
629
663
704
709
682
624
540
445
335
236
182
144
110
82
73
143
140
11
135
223
-159
77
703
-702
-2740
-1884
-555
-2148
-3540
-2173
-716
-282
685
1668
1562
1206
1219
1130
896
813
841
876
1022
1370
1534
1022
261
54
238
240
121
105
102
80
134
172
87
63
168
141
87
242
177
7
401
356
-701
-794
-239
-1479
-2595
-1360
-782
-1549
-179
1335
-1748
-5865
-4608
-307
1256
571
530
774
546
482
590
492
431
507
521
506
516
476
449
501
514
484
509
501
482
559
504
418
661
674
509
1294
1126
-2857
-6665
-4624
-487
-701
-2790
-1899
284
973
1143
1469
1267
1240
1618
811
-642
-361
946
1129
769
900
951
798
865
921
795
717
694
607
495
424
388
348
297
213
127
245
387
173
154
486
100
-86
970
-339
-4714
-5067
-620
171
-3054
-3172
-451
995
907
-608
-2366
-1395
846
990
360
759
1006
808
859
681
187
87
261
262
226
261
246
222
230
214
230
306
322
291
355
416
381
440
519
488
689
833
422
639
1349
-624
-4288
-3621
702
1067
-2621
-3169
-672
-784
-2104
-490
1599
1350
863
1241
1250
1036
1126
1173
1293
1640
1794
1834
2158
2362
1872
998
374
116
33
12
-18
-82
-125
-141
-185
-240
-284
-369
-464
-489
-541
-665
-681
-661
-755
-599
-334
-1178
-3232
-4469
-3442
-1226
235
428
233
236
266
356
602
665
637
786
477
-349
-420
328
603
342
277
315
258
279
317
272
293
382
341
273
393
378
193
435
591
185
605
707
-2720
-5999
-3456
166
-1137
-3035
-2019
-1584
-1856
-65
1860
1757
1430
1949
2149
1594
936
676
754
791
700
650
630
604
625
614
519
484
523
484
405
436
503
496
538
602
527
539
680
493
409
872
224
-2215
-3492
-2143
-889
-870
64
1366
-349
-3774
-3616
-98
1642
894
611
947
767
601
726
674
608
647
529
494
576
362
353
676
268
68
1010
82
-2783
-2627
-523
-1261
-2640
-2180
-2447
-3007
-1694
-197
374
942
1152
846
823
942
827
739
745
695
637
616
574
528
581
665
645
650
705
637
647
696
363
276
679
-183
-2110
-2093
-261
444
18
71
338
335
413
610
819
1060
1287
1656
2098
1945
1030
151
-156
-174
-213
-253
-257
-272
-302
-300
-318
-430
-503
-527
-686
-711
-536
-753
-821
-118
-543
-2555
-3113
-2199
-2319
-1956
278
1489
823
533
751
592
486
494
312
256
375
352
267
271
270
228
223
265
262
219
274
256
-36
-91
201
-400
-2154
-3256
-2948
-2208
-946
844
1066
-527
-877
586
1232
703
567
737
608
506
551
545
537
555
544
483
412
503
661
684
893
1176
770
135
109
74
50
585
-78
-2402
-2885
-705
569
92
-14
369
409
405
456
370
403
564
582
560
678
805
801
741
717
675
613
614
545
367
364
347
87
202
465
-289
-1415
-1879
-2603
-3693
-3632
-2222
-470
814
1212
1215
1455
1700
1791
1864
1645
1049
519
246
111
87
110
67
-18
-108
-169
-188
-290
-416
-386
-493
-754
-607
-628
-1748
-2824
-2763
-2700
-2965
-2207
-673
136
241
378
490
473
528
613
610
570
564
595
583
548
562
474
348
476
465
130
321
646
-428
-2146
-2680
-2237
-1359
57
982
604
18
174
578
708
703
725
712
657
642
646
623
610
546
412
426
505
365
331
630
826
750
200
-1034
-1595
-443
703
562
324
536
479
273
350
459
431
428
474
474
430
439
489
505
604
694
526
540
843
206
-1621
-2965
-3043
-2762
-2655
-2125
-730
616
867
574
589
668
586
563
580
578
626
699
735
699
670
707
641
629
920
925
652
1099
1225
-450
-1623
-259
1244
1057
440
43
-362
-420
-281
-346
-344
-229
-254
-255
-161
-134
-63
-10
-113
-76
-75
-340
16
278
-2142
-5510
-4997
-1535
431
687
283
-1232
-2274
-1699
-1504
-1750
-593
765
715
469
749
776
617
683
735
739
864
988
1116
1355
1528
1627
1947
2236
1837
925
319
187
160
126
40
-77
8
16
-279
-132
148
-935
-2291
-1665
-305
-286
-683
-469
-300
-334
-186
14
159
302
378
440
474
361
320
378
182
137
469
73
-769
-576
-1145
-4412
-6544
-3904
126
1169
-50
-1171
-1579
-1292
-484
130
231
260
437
560
558
491
449
541
670
682
667
720
749
711
683
706
758
768
693
671
711
614
655
1008
943
737
1391
978
-2041
-3653
-1239
977
381
-497
-523
-489
-352
-241
76
674
-268
-2349
-1991
462
1340
789
920
1298
1235
1274
1398
1334
1309
1259
1084
1140
1198
828
828
1215
296
-1106
-353
1010
137
-1136
-731
-515
-1634
-2236
-1116
545
1220
1109
1268
1681
1849
1958
2168
2157
1782
1245
808
619
595
524
391
384
456
370
257
255
125
41
124
-253
-506
151
-706
-4029
-5162
-2215
387
553
-246
-1600
-2270
-918
423
255
109
435
330
156
341
374
215
330
659
761
463
-22
-389
-573
-691
-732
-609
-418
-291
-201
-170
-206
-128
-20
-164
-290
-226
-356
-258
398
52
-1950
-3622
-3728
-2623
-710
713
587
71
119
41
-264
-254
-220
-427
-428
-263
-480
-787
-611
-349
-373
-386
-399
-414
-228
-322
-494
74
-533
-3935
-5713
-2161
1198
-1269
-4581
-2612
756
53
-2564
-3646
-3418
-2121
15
1245
1112
815
786
989
1420
1632
1553
1638
1843
1879
1871
1958
2054
2144
2247
2327
2464
2691
2937
3338
3805
3728
3129
2843
3001
3142
3305
3489
3477
3601
3832
2988
606
