# session 272
-4
72
119
116
81
61
68
72
75
97
99
78
88
113
124
152
154
152
254
301
266
500
634
51
-394
152
717
547
322
344
269
157
133
75
11
11
11
-3
-5
-17
-20
4
9
-8
12
50
86
178
335
531
772
967
1062
1244
1499
1385
764
101
-250
-363
-381
-374
-393
-431
-456
-462
-459
-468
-495
-510
-520
-558
-587
-581
-601
-650
-655
-621
-570
-468
-336
-233
-141
-54
-15
-17
-19
-31
-59
-78
-90
-113
-132
-136
-137
-131
-110
-93
-86
-70
-45
-30
-26
-10
15
28
31
28
15
8
8
-12
-41
-35
-14
-33
-67
-34
51
91
65
43
51
40
5
0
27
24
-5
4
24
22
77
165
223
376
517
258
-190
-248
-47
-38
-125
-90
-38
-47
-53
-43
-19
31
83
104
109
117
122
124
135
161
196
234
267
295
314
317
301
277
243
190
133
85
31
-31
-61
-62
-72
-84
-82
-93
-111
-100
-74
-39
30
121
271
521
771
1002
1336
1535
1171
410
-163
-359
-384
-398
-423
-440
-429
-407
-406
-431
-453
-454
-455
-468
-483
-518
-562
-566
-544
-532
-489
-386
-254
-122
-8
47
32
-16
-59
-93
-121
-133
-125
-112
-101
-81
-56
-35
-12
14
27
28
33
38
34
30
24
4
-13
-11
-8
-13
-17
-20
-20
-20
-31
-36
-21
-20
-32
-25
-26
-38
8
86
91
33
10
30
40
34
35
40
48
74
81
41
62
184
291
424
574
416
-25
-196
-18
73
9
-2
15
-4
-6
7
-2
-22
-31
-32
-42
-60
-48
-16
-4
12
64
122
164
201
232
249
254
245
228
205
157
93
46
4
-51
-78
-75
-84
-84
-81
-117
-115
-83
-134
-83
109
-79
-544
-337
518
1008
1014
1221
1703
1899
1473
673
3
-320
-425
-452
-448
-458
-482
-494
-505
-531
-549
-553
-567
-607
-653
-685
-709
-730
-735
-708
-649
-556
-436
-300
-160
-39
44
86
93
77
49
25
12
8
1
-5
-2
2
-5
-9
-1
0
-5
-4
-6
-11
-5
-6
-23
-22
-1
-2
-23
-31
-26
-29
-36
-47
-61
-34
47
106
98
67
48
40
44
60
68
56
70
134
157
138
206
327
450
693
828
455
-74
-157
3
4
-45
-23
-32
-65
-63
-62
-68
-58
-51
-51
-39
-27
-26
-13
21
53
81
122
164
189
208
226
223
208
190
153
93
38
-5
-41
-62
-77
-102
-121
-121
-108
-96
-102
-102
-40
53
152
345
620
874
1188
1527
1469
864
164
-252
-416
-448
-429
-424
-428
-420
-431
-461
-481
-493
-512
-531
-539
-551
-572
-575
-545
-498
-439
-351
-235
-125
-42
22
67
78
57
19
-20
-40
-33
-22
-33
-60
-76
-56
-34
-49
-63
-52
-53
-63
-62
-66
-67
-56
-69
-86
-64
-46
-61
-62
-53
-67
-72
-54
-43
-36
-28
-23
7
74
135
150
128
105
103
108
111
110
85
59
74
79
77
175
321
447
650
724
325
-178
-230
-64
-67
-112
-79
-70
-83
-69
-60
-58
-45
-31
-20
-15
-19
-11
17
42
62
89
130
174
212
235
242
232
203
173
154
109
19
-56
-74
-85
-119
-134
-127
-132
-127
-102
-87
-49
47
154
317
614
937
1241
1634
1852
1433
560
-117
-373
-428
-439
-434
-441
-464
-480
-481
-488
-507
-518
-526
-546
-576
-604
-632
-647
-645
-623
-555
-434
-297
-170
-64
15
66
75
39
1
-9
-25
-58
-64
-39
-26
-35
-40
-31
-20
-14
-10
-8
-20
-27
-9
3
-13
-20
-9
-3
6
18
21
24
15
-14
-12
24
17
-22
11
105
157
147
116
87
74
76
78
80
85
106
138
114
67
140
292
427
628
705
317
-196
-275
-105
-69
-93
-73
-81
-93
-73
-60
-54
-42
-40
-43
-30
-17
-9
9
26
43
87
148
185
209
240
254
240
216
189
144
78
13
-35
-72
-102
-120
-118
-108
-106
-114
-124
-139
-148
-139
-141
-164
-157
-94
-27
-1
-11
-40
-68
-90
-107
-103
-99
-117
-110
-97
-126
-99
22
134
338
616
508
-1
-267
-148
-81
-137
-129
-105
-125
-125
-109
-109
-105
-97
-94
-86
-67
-51
-35
-1
47
85
106
138
194
232
212
173
160
128
46
-14
-35
-75
-107
-93
-96
-135
-140
-109
-95
-106
-113
-96
-57
-23
4
47
83
78
45
17
4
2
2
5
7
-1
10
16
-33
-41
61
167
362
700
712
194
-223
-193
-110
-159
-167
-141
-159
-171
-158
-151
-159
-164
-140
-106
-106
-113
-83
-47
-35
-13
26
57
83
118
142
140
122
94
52
4
-33
-63
-95
-110
-95
-86
-93
-92
-100
-129
-136
-107
-46
44
115
228
504
787
931
1167
1465
1319
701
146
-140
-288
-325
-299
-305
-316
-308
-317
-336
-341
-356
-387
-414
-448
-487
-501
-500
-508
-499
-440
-345
-232
-101
23
100
134
147
134
98
60
36
21
8
-7
-22
-25
-14
-10
-36
-59
-30
1
-35
-78
-59
-34
-42
-37
-21
-22
-4
38
51
51
89
133
130
114
131
149
128
95
80
70
54
53
70
64
44
64
78
32
35
128
229
408
618
479
13
-228
-131
-65
-103
-103
-91
-107
-110
-105
-109
-108
-112
-112
-84
-58
-58
-49
-13
24
59
100
132
150
169
183
181
181
179
139
68
13
-12
-34
-74
-108
-113
-111
-129
-155
-173
-181
-172
-156
-162
-187
-180
-130
-92
-106
-146
-164
-153
-141
-126
-90
-65
-49
-8
-6
-42
24
154
243
386
448
133
-259
-266
-110
-122
-163
-127
-117
-125
-107
-101
-102
-69
-39
-46
-45
-13
4
13
57
98
114
178
265
262
210
217
240
196
116
49
-3
-41
-61
-68
-53
-19
3
7
19
32
21
-1
-9
1
22
54
125
232
299
368
562
795
989
1330
1738
1720
1156
466
-38
-317
-405
-404
-418
-438
-446
-456
-464
-469
-484
-505
-525
-550
-591
-635
-664
-685
-701
-690
-628
-534
-440
-337
-214
-100
-13
38
44
23
4
-21
-39
-26
-15
-24
-12
17
10
-23
-29
-19
-29
-44
-40
-34
-36
-30
-21
-31
-57
-78
-80
-65
-50
-43
-14
50
105
108
82
75
88
96
103
113
109
107
125
103
72
143
248
357
591
705
351
-96
-141
-21
-49
-90
-62
-62
-88
-87
-62
-44
-61
-87
-58
-4
4
-4
29
64
80
122
181
205
221
253
257
231
213
183
122
76
60
37
13
16
36
41
28
14
3
-22
-52
-58
-41
-31
-45
-52
-18
17
1
-45
-75
-83
-85
-91
-95
-104
-119
-111
-105
-139
-131
-56
24
217
487
401
-56
-303
-207
-145
-184
-178
-161
-165
-152
-138
-147
-155
-140
-116
-120
-118
-76
-84
-148
-98
55
127
123
158
199
183
142
115
72
1
-56
-74
-76
-89
-106
-116
-125
-138
-145
-142
-143
-148
-150
-146
-121
-72
-33
23
143
270
384
562
752
882
1078
1321
1291
879
350
-51
-261
-315
-311
-326
-352
-360
-354
-356
-371
-387
-393
-408
-452
-502
-529
-544
-568
-579
-544
-464
-360
-240
-110
4
81
127
157
163
144
123
112
103
98
101
110
126
143
147
136
123
113
99
86
88
92
77
54
55
66
51
18
5
11
11
-14
-42
-13
71
125
105
68
56
48
33
32
36
17
15
48
27
-9
89
239
369
594
660
218
-286
-290
-99
-114
-173
-142
-138
-166
-160
-135
-128
-140
-139
-98
-60
-58
-52
-23
-1
13
55
122
179
211
229
234
217
185
134
57
-22
-77
-120
-159
-181
-184
-180
-176
-170
-160
-153
-158
-159
-134
-109
-123
-141
-99
-21
13
-16
-54
-61
-53
-61
-69
-62
-63
-49
-13
-40
-84
6
143
222
338
332
1
-292
-224
-101
-140
-158
-122
-132
-136
-99
-86
-97
-89
-65
-43
-24
4
48
92
134
198
266
304
327
344
329
294
271
236
164
91
43
7
-32
-64
-80
-76
-70
-72
-69
-69
-92
-101
-57
3
42
93
188
380
674
901
1012
1242
1535
1426
827
184
-194
-334
-357
-358
-361
-364
-399
-440
-428
-411
-444
-485
-508
-527
-555
-592
-619
-628
-635
-606
-514
-418
-328
-189
-49
15
37
59
55
24
0
-20
-43
-47
-33
-26
-25
-20
-16
-12
-3
4
5
11
18
17
13
13
16
16
12
11
9
-5
-24
-20
-2
-3
-4
41
105
121
91
68
62
51
37
41
45
27
21
40
17
-13
61
187
268
321
240
-48
-256
-179
-48
-40
-50
-25
-18
-24
-11
9
10
1
13
50
78
91
113
142
169
199
233
261
282
300
310
304
281
243
198
144
79
16
-35
-73
-100
-115
-124
-131
-133
-134
-139
-150
-158
-146
-118
-113
-131
-109
-44
-13
-30
-61
-92
-89
-75
-116
-109
-35
-119
-202
85
354
129
-146
40
459
611
262
-257
-407
-267
-237
-280
-239
-202
-213
-213
-208
-208
-194
-162
-125
-94
-68
-37
-11
4
35
94
153
191
211
215
209
202
184
139
79
32
0
-31
-49
-52
-59
-70
-67
-62
-66
-65
-68
-84
-59
14
70
182
496
966
1449
1818
1876
1690
1562
1305
555
-243
-485
-427
-481
-533
-503
-531
-566
-521
-511
-581
-614
-598
-628
-699
-751
-797
-856
-897
-914
-915
-867
-746
-603
-487
-363
-201
-50
36
79
114
142
158
161
160
164
165
156
150
147
140
133
125
115
108
104
100
102
108
106
97
94
92
72
41
41
55
18
-28
6
83
111
89
57
35
36
34
16
17
29
29
36
21
-7
52
155
272
586
899
646
18
-227
-87
-69
-170
-142
-62
-75
-118
-107
-80
-79
-81
-83
-99
-104
-70
-22
3
5
10
32
62
102
147
163
151
147
143
114
77
46
5
-24
-22
-32
-71
-80
-55
-40
-7
67
132
253
531
837
1099
1452
1694
1390
658
-7
-342
-385
-411
-520
-427
-316
-694
-1043
-692
-268
-350
-474
-415
-443
-505
-484
-468
-441
-363
-282
-178
-56
16
63
118
127
83
43
18
-5
-24
-40
-50
-49
-42
-34
-31
-29
-25
-19
-20
-23
-25
-26
-28
-32
-33
-27
-19
-16
-14
-6
6
8
6
11
16
14
6
-13
-29
-17
-6
-14
-1
40
60
42
15
-1
-14
-38
-46
-24
-18
-26
7
20
-15
40
175
288
511
725
476
-50
-219
-90
-80
-139
-125
-120
-136
-128
-123
-131
-128
-121
-111
-96
-79
-55
-22
13
46
88
142
193
225
248
263
253
234
223
194
139
88
47
1
-33
-44
-51
-61
-65
-64
-67
-77
-81
-66
-47
-47
-59
-62
-36
13
37
-4
-71
-92
-77
-83
-92
-74
-78
-109
-97
-79
-93
-34
109
243
350
304
-26
-332
-277
-88
-60
-96
-74
-47
-38
-29
-27
-26
-16
-13
-14
-3
12
26
40
53
79
123
160
200
257
288
277
250
196
105
26
-21
-70
-123
-155
-162
-156
-146
-139
-129
-114
-106
-100
-86
-80
-95
-99
-56
21
71
50
-7
-33
-30
-43
-60
-42
-27
-39
-31
-21
-53
-25
103
215
342
447
235
-186
-303
-122
-40
-75
-64
-41
-43
-45
-60
-82
-82
-76
-79
-81
-74
-62
-45
-22
15
71
132
185
237
283
304
295
271
228
165
98
40
-5
-37
-58
-73
-80
-79
-71
-58
-65
-90
-85
-40
-25
-58
-63
-12
27
24
16
-7
-62
-84
-56
-56
-90
-92
-62
-29
-8
13
116
321
556
795
866
498
-64
-289
-215
-201
-252
-242
-218
-217
-202
-172
-146
-127
-118
-115
-110
-111
-128
-147
-154
-157
-160
-146
-121
-100
-72
-30
5
17
12
1
-16
-40
-66
-84
-87
-92
-107
-108
-96
-101
-112
-108
-97
-79
-52
-43
-40
-7
32
46
50
46
14
-26
-42
-37
-30
-46
-63
-45
-39
-80
-66
15
81
288
651
648
130
-252
-198
-109
-143
-130
-89
-99
-104
-89
-86
-77
-61
-53
-36
-7
10
22
49
86
122
154
178
211
262
304
312
301
283
245
187
130
87
61
48
35
24
25
22
11
12
19
8
-1
12
22
17
27
62
98
106
83
43
10
-7
-22
-31
-24
-36
-66
-56
-46
-97
-92
11
105
275
513
404
-65
-303
-182
-111
-150
-114
-67
-79
-74
-47
-40
-19
32
68
77
84
92
101
125
154
170
188
215
237
244
238
222
201
169
117
51
-11
-48
-66
-91
-116
-120
-112
-115
-123
-123
-119
-115
-117
-117
-105
-91
-94
-90
-42
11
4
-43
-64
-66
-89
-108
-84
-68
-107
-133
-126
-161
-184
-130
-47
164
500
477
-37
-397
-318
-222
-271
-274
-246
-265
-269
-233
-197
-168
-149
-138
-132
-134
-141
-144
-144
-126
-86
-50
-25
6
40
60
68
71
57
10
-52
-101
-135
-160
-166
-159
-145
-120
-104
-65
123
426
696
1055
1563
1672
968
-7
-516
-568
-544
-560
-570
-589
-626
-637
-626
-627
-641
-659
-685
-704
-704
-716
-737
-712
-623
-513
-408
-287
-144
-22
59
121
164
155
103
65
65
79
78
75
95
123
123
113
134
161
156
152
172
179
167
177
194
188
191
235
289
360
522
746
919
1070
1254
1311
1138
921
791
648
454
278
153
88
87
101
90
66
61
93
142
157
108
19
-53
-76
-91
-147
-221
-254
-247
-228
-195
-147
-86
-6
74
135
191
237
245
241
257
268
263
268
286
324
382
437
549
771
968
1130
1467
1758
1446
630
-35
-309
-410
-468
-498
-539
-591
-622
-639
-658
-679
-710
-751
-789
-825
-850
-854
-854
-843
-793
-706
-611
-535
-494
-456
-408
-416
-491
-543
-569
-632
