# session 231
221
192
207
237
274
323
424
593
660
681
889
944
792
1030
1036
458
931
1189
-1836
-4321
-1726
1055
609
1141
1085
-3412
-5073
220
2315
-2138
-3084
1156
2583
988
906
901
-648
-995
332
833
464
519
604
351
326
477
347
134
145
135
-91
-195
-30
47
81
297
335
325
746
460
-1501
-3348
-3571
-3243
-3011
-2119
-435
1167
1071
-1079
-2331
-907
852
1361
614
-1637
-2888
-796
1458
1199
674
1071
1105
914
1050
1004
867
942
818
772
1052
683
374
1431
765
-3462
-5318
-1408
1989
679
-1182
-841
-888
-2143
-2152
-776
-112
-208
76
607
938
911
431
58
302
695
812
841
862
816
792
795
756
729
722
666
632
667
650
621
713
766
722
812
841
713
910
963
336
418
967
-584
-2658
-2190
-1897
-3419
-2703
212
961
165
369
615
472
644
452
435
1239
287
-2426
-2234
875
2120
1442
1764
2422
1979
1238
769
397
318
391
265
186
183
30
162
454
-444
-2383
-2622
-69
1282
-1799
-4936
-3869
-2358
-2853
-2387
-1719
-2708
-2291
-2
795
511
1121
1947
2317
2221
1413
541
341
413
405
459
503
447
396
358
317
292
222
132
138
163
165
311
453
319
286
608
715
587
733
637
305
785
658
-1821
-3662
-2384
-907
-796
-78
844
543
220
573
665
542
661
701
581
578
627
626
671
726
706
716
834
1035
1346
1547
1484
1667
1964
1513
1218
1823
800
-2896
-6248
-7341
-5633
-1301
1002
-1561
-3567
-2293
-2212
-3354
-1997
85
159
-167
166
197
47
202
336
374
481
568
664
845
961
973
1014
1065
1072
1074
1058
1079
1119
946
846
1158
1117
816
1514
1270
-2516
-5739
-3363
1070
2033
796
643
1130
634
-559
-1525
-2259
-2323
-953
570
652
223
332
391
197
138
93
25
127
268
333
410
514
650
817
904
902
909
917
896
894
914
908
874
923
1148
1349
1413
1624
1881
1972
2417
2625
870
-1619
-1731
35
646
-874
-3141
-4201
-3360
-1977
-1381
-1308
-1205
-1089
-1002
-873
-741
-661
-556
-360
-139
48
232
436
630
742
734
742
805
709
565
672
668
483
850
610
-2544
-6256
-5341
-926
1325
1027
1139
777
-1249
-2808
-2971
-2551
-1187
575
1010
600
709
990
985
999
1004
906
901
946
940
964
985
989
1042
1006
911
1030
1190
1295
1715
1880
1125
667
877
20
-1201
-522
740
823
737
553
269
1096
692
-2566
-3493
-545
-31
-2700
-3149
-1345
-482
-409
-241
-230
-211
-60
-46
-106
-76
-13
54
150
242
274
274
341
449
549
678
673
535
660
779
505
681
1053
-601
-4116
-6383
-5588
-2421
550
1046
610
1060
-25
-2899
-3091
-651
2
-646
157
1080
805
668
922
835
751
881
850
742
744
731
693
714
752
778
800
806
826
890
966
1014
1025
1026
1044
1025
944
878
803
662
552
475
407
475
494
304
348
409
-542
-2267
-3386
-3108
-1612
-206
-106
-465
-111
325
285
332
648
930
1157
1411
1655
1763
1633
1424
1257
981
616
358
190
77
78
81
15
9
12
-54
-67
-114
-226
-137
-182
-517
-237
0
-1562
-3187
-2520
-2036
-3568
-3702
-1284
-268
-1470
-1559
-189
491
243
13
468
944
-166
-1483
-719
252
33
-226
-1657
-3634
-2159
1114
1562
671
984
1197
858
921
1077
989
956
976
952
890
867
983
1064
1161
1480
1489
1047
512
-1188
-3789
-4000
-2151
-2142
-2441
86
1280
-1918
-3933
-1475
924
779
511
920
964
878
1024
1071
1070
1182
1233
1192
1161
1119
1044
941
823
755
737
692
623
586
564
520
483
514
568
567
610
727
731
738
892
866
881
1420
1306
-624
-2964
-3811
-2855
-822
645
463
-144
43
230
-176
-255
214
60
-378
278
176
-2570
-4223
-1947
340
-15
-493
-49
25
-62
210
383
416
540
594
554
545
533
491
450
422
428
428
402
403
379
327
336
258
159
360
350
-46
326
622
-1309
-3149
-1588
716
710
255
413
215
464
472
-2600
-6643
-6016
-1209
1360
-880
-3467
-2383
410
1514
1226
1012
798
549
619
717
634
613
636
588
577
600
561
516
525
549
558
557
552
559
587
624
656
661
636
625
646
641
588
543
469
342
306
334
270
258
295
169
207
393
112
125
830
22
-2108
-1750
830
1835
1403
1428
1197
392
48
39
-128
-173
-88
-138
-212
-198
-211
-267
-290
-307
-361
-404
-456
-570
-588
-690
-1845
-4150
-5397
-3733
-788
660
598
508
582
520
497
458
430
517
338
266
801
374
-1454
-1763
49
959
445
347
586
465
378
452
457
402
364
431
390
214
466
636
141
528
1135
-1578
-5193
-3734
409
1292
286
569
882
487
615
899
798
1093
1293
627
431
566
-1065
-2729
-1382
736
746
221
490
559
363
436
482
422
467
472
418
472
549
556
592
653
663
676
656
552
550
541
292
290
475
15
-40
863
-582
-4588
-5178
-1263
1169
519
273
977
1062
768
990
1680
2059
1704
1156
627
-50
-103
289
-686
-2432
-2206
-195
575
-1712
-5301
-5956
-2681
194
186
-313
-29
-101
-195
212
-514
-2772
-3710
-1763
638
1216
851
857
990
959
1046
1238
1355
1512
1829
2090
1951
1409
813
415
198
85
37
17
-17
-67
-93
-128
-228
-308
-299
-334
-451
-470
-371
-323
-318
-243
-125
-20
71
143
197
245
259
236
215
202
184
172
175
174
147
117
111
107
81
52
36
28
26
23
10
1
9
19
12
7
28
38
8
-16
-5
-3
-15
-2
26
34
15
-7
-1
21
19
-4
-23
-37
-36
-15
-19
-59
-72
-52
-59
-83
-64
-9
33
46
33
-5
-27
-10
-3
-32
-46
-59
-117
-108
30
157
300
513
425
-87
-427
-315
-184
-224
-234
-196
-185
-170
-153
-146
-117
-89
-87
-65
-24
-10
-1
26
42
60
114
156
144
113
95
71
39
16
-6
-46
-76
-72
-74
-103
-104
-79
-86
-109
-101
-86
-90
-83
-41
9
13
-26
-50
-44
-43
-47
-39
-26
0
31
6
-54
-38
32
149
396
527
219
-189
-216
-73
-82
-123
-98
-97
-112
-94
-69
-58
-62
-74
-55
-5
21
21
43
87
124
149
171
188
194
177
135
88
49
26
14
-11
-45
-46
-28
-45
-81
-75
-37
-21
-29
-12
38
70
65
60
59
34
10
11
16
27
71
115
155
252
375
478
695
950
789
172
-286
-313
-248
-277
-290
-275
-275
-266
-249
-250
-261
-268
-285
-316
-351
-382
-409
-429
-439
-429
-380
-298
-218
-154
-90
-30
-9
-11
6
21
7
-2
-2
-10
1
17
17
71
184
261
397
695
953
1090
1290
1349
906
245
-144
-257
-280
-267
-255
-257
-253
-262
-289
-301
-299
-315
-346
-374
-401
-430
-444
-425
-362
-255
-131
-30
42
94
101
67
41
36
14
-7
8
12
-18
-13
24
21
-1
14
37
37
40
73
120
130
160
322
501
574
731
1029
1130
854
370
-91
-306
-235
-138
-176
-242
-276
-306
-306
-280
-290
-341
-392
-423
-439
-462
-492
-495
-452
-389
-310
-191
-40
84
180
274
324
397
653
926
1031
1336
1902
1892
1000
79
-320
-446
-492
-468
-464
-494
-502
-508
-534
-562
-603
-659
-697
-710
-711
-683
-601
-487
-361
-227
-110
-24
41
61
32
27
100
176
166
104
66
60
52
43
46
51
39
14
11
42
62
55
50
23
7
111
252
324
413
395
56
-268
-213
-46
-41
-62
-32
-24
-27
-18
-19
-31
-36
-22
-1
16
40
85
143
191
214
230
249
238
190
146
109
53
-5
-46
-81
-98
-87
-75
-77
-56
0
41
45
28
-4
-37
-48
-49
-54
-47
-28
-17
-35
-63
-44
22
145
332
359
69
-192
-129
1
-31
-77
-49
-30
-40
-57
-75
-73
-59
-51
-37
-24
-32
-29
6
51
90
128
150
145
125
98
56
6
-30
-49
-61
-72
-71
-60
-53
-53
-39
-1
41
64
135
360
657
845
1024
1369
1533
1054
224
-273
-352
-369
-426
-439
-441
-473
-506
-534
-559
-570
-585
-620
-651
-664
-658
-616
-531
-422
-297
-151
-10
80
108
102
90
67
32
3
-11
-28
-54
-59
-38
-44
-87
-98
-58
-37
-53
-66
-71
-69
-29
20
4
-50
-37
26
40
7
18
89
152
177
174
141
84
58
94
119
85
75
108
88
75
166
264
409
638
560
40
-333
-285
-194
-189
-121
-86
-155
-158
-68
-30
-46
-32
-22
-22
19
50
34
58
136
196
234
262
251
232
228
183
94
32
-5
-71
-134
-130
-103
-138
-194
-170
-100
-99
-138
-94
31
147
233
302
398
583
783
931
1198
1558
1534
941
241
-172
-342
-401
-417
-450
-492
-475
-411
-407
-501
-571
-556
-565
-653
-731
-756
-751
-715
-642
-523
-355
-171
-9
109
177
209
212
173
133
122
101
89
109
102
82
119
144
119
139
180
152
126
171
223
206
134
128
212
255
299
325
96
-15
309
213
-69
673
93
-3967
-6296
-2818
530
-546
-1180
783
1379
249
103
580
525
472
586
530
496
566
561
530
552
556
527
523
554
580
579
583
633
710
749
747
754
764
722
654
611
554
445
376
375
306
241
338
300
108
385
448
-1712
-5451
-6625
-3469
-2
104
-987
-287
898
879
580
639
592
495
507
471
450
449
360
348
460
487
451
491
527
495
495
542
528
506
539
452
409
659
587
294
916
819
-2397
-5588
-4438
-580
2147
1500
-2573
-5160
-2357
838
-210
-1780
-880
376
844
1066
965
782
881
957
891
871
878
895
944
927
834
759
722
706
711
712
697
701
752
875
1084
1289
1450
1752
1995
1469
449
125
259
-30
26
494
-666
-3698
-6203
-6234
-3629
-862
-752
-1625
-601
706
397
32
394
317
-183
-319
73
894
1097
-305
-1442
-352
1107
1014
609
798
837
638
622
701
698
635
662
707
588
713
942
474
475
1327
-618
-4652
-3722
596
-777
-5366
-4162
-46
65
-1291
-281
1134
1242
862
536
425
564
596
475
467
550
587
583
591
630
658
639
628
658
671
657
656
681
774
898
929
910
921
848
760
757
584
403
531
356
87
618
-156
-3580
-4971
-2075
-346
-1656
-1429
640
1203
757
962
1190
1171
1418
1770
2078
2417
2439
1890
1110
521
224
123
53
-63
-49
19
-191
-235
147
-386
-1907
-2001
-718
-575
-777
97
-778
-4132
-5879
-5516
-5314
-3453
194
935
-1174
-1763
-997
-589
341
1137
749
786
1179
266
-415
230
71
-604
300
1378
1061
760
1032
990
828
914
963
958
958
894
889
882
792
838
798
600
868
973
296
678
1461
-1109
-4636
-3701
-843
-465
-966
-903
-830
21
1117
992
613
861
937
781
831
853
784
791
768
731
798
843
788
773
841
863
813
833
870
728
618
661
484
358
633
360
-479
-518
-129
246
1064
-217
-4259
-5044
-1235
384
-1369
-1928
-1246
-802
282
1209
758
338
684
528
170
888
980
-1282
-2775
-710
1876
1386
-1236
-2782
-1599
657
1376
839
793
1127
972
755
1020
1018
569
930
1282
-756
-4103
-6068
-6127
-3932
-525
342
-1512
-2091
-475
1089
1659
1595
1375
1351
1397
1350
1314
1268
1190
1160
1121
1070
1106
1109
1040
1111
1170
1038
1056
1120
914
1054
1335
927
1286
2279
-135
-4563
-3922
1018
2818
664
-575
142
-263
-2402
-3013
-1284
-46
209
-290
-3304
-5973
-3350
590
-245
-2302
-907
1032
888
546
855
932
959
1187
1251
1262
1366
1299
1186
1209
1109
1036
1109
826
743
1394
718
-2368
-5426
-6549
-5290
-2086
-194
-1250
-1712
5
1238
1329
1453
1397
1108
1148
1319
1335
1348
1347
1238
1102
1047
1111
1192
1170
1067
875
674
733
840
657
691
866
388
431
1318
-603
-4975
-4936
-239
1237
-1740
-3403
-2875
-2794
-2296
-461
597
310
156
82
141
917
403
-2008
-2368
164
1496
882
782
1095
893
797
929
852
795
852
822
903
1084
1044
1040
1236
1254
1451
1940
1774
1917
3078
1308
-3934
-5339
-1534
98
-1793
-2513
-1573
-580
389
705
265
98
141
-23
-52
28
6
51
52
-74
66
346
259
151
477
807
776
616
572
662
598
376
554
694
214
547
1089
-1942
-6266
-4787
229
680
-2049
-2110
-1061
-2025
-2712
-1100
717
828
183
142
366
264
388
794
709
838
1619
732
-1871
-2067
574
1941
1368
1293
1894
2049
1657
1121
871
950
1020
1000
911
840
944
837
612
1095
665
-3152
-6934
-5128
-579
-8
-2107
-1590
835
1780
1496
1444
1461
1274
1132
1061
1012
1022
1022
985
969
966
943
894
828
765
723
729
784
755
666
758
815
566
640
975
-423
-4214
-7200
-6126
-2409
-141
-578
-1666
-1560
-293
578
84
-479
-462
-873
-649
544
-849
-3894
-2882
92
-581
-1670
431
1880
1083
924
1452
1326
1210
1445
1480
1417
1581
1693
1524
1599
1803
1163
847
1827
463
-4113
-5252
-1100
1427
-299
-2086
-1718
-252
858
693
-153
-573
-611
-506
-106
386
755
1184
1645
1762
1374
760
318
162
119
104
127
102
19
-13
-25
-50
-73
-158
-176
-114
-281
-319
-53
-424
-643
465
0
-3124
-4190
-2523
-2138
-2291
-1472
-1596
-1554
306
1152
81
-341
-16
-112
-119
161
272
403
674
810
841
908
946
935
919
901
921
960
941
932
975
982
1008
1079
1020
988
1112
967
743
1076
1016
-992
-4523
-6901
-5213
-801
1095
-183
-722
-456
-736
119
1671
1696
1241
1562
1706
1522
1532
1496
1396
1418
1388
1325
1358
1369
1322
1278
1237
1241
1245
1234
1312
1274
1126
1328
1334
783
1172
1432
-2065
-6418
-5186
-1112
-978
-3286
-3442
-1678
156
1232
1217
900
989
1035
896
880
854
737
700
696
642
596
584
611
659
665
692
928
1183
799
-87
-442
-489
-905
-588
-122
-2589
-6505
-7609
-7302
-7569
-5782
-3089
-3469
-4059
-1618
140
-393
-388
