# session 72
-6
-13
-29
-26
-4
6
3
20
62
90
67
33
38
50
42
42
47
46
57
50
28
85
188
245
301
279
6
-291
-275
-112
-75
-96
-82
-82
-90
-75
-71
-84
-85
-75
-67
-61
-46
-17
14
42
79
129
176
215
246
254
232
187
113
17
-62
-108
-148
-184
-192
-181
-177
-175
-167
-149
-112
-64
-37
-36
-20
22
42
12
-28
-51
-68
-66
-48
-52
-67
-41
-29
-63
-16
136
260
404
540
320
-176
-366
-202
-107
-128
-120
-135
-177
-169
-150
-154
-142
-116
-99
-77
-50
-23
19
78
133
192
274
344
375
388
381
317
213
108
11
-51
-74
-112
-161
-165
-144
-142
-153
-166
-166
-142
-132
-146
-126
-55
-3
-22
-71
-80
-64
-74
-85
-81
-90
-67
-19
-45
-43
105
235
326
462
320
-182
-436
-251
-130
-194
-182
-118
-119
-137
-136
-112
-62
-36
-46
-27
33
86
117
154
231
351
448
485
513
559
566
505
403
298
218
167
128
112
119
114
94
81
59
41
90
184
238
311
558
899
1120
1313
1608
1659
1123
321
-231
-454
-519
-543
-569
-578
-558
-567
-620
-661
-690
-740
-794
-837
-890
-946
-972
-967
-930
-838
-691
-520
-352
-200
-75
6
14
-27
-54
-57
-72
-91
-99
-113
-124
-113
-114
-153
-176
-153
-141
-161
-168
-161
-167
-176
-179
-181
-174
-168
-190
-211
-199
-192
-230
-249
-182
-91
-85
-142
-162
-156
-196
-229
-204
-204
-227
-201
-213
-255
-158
-7
146
506
764
401
-144
-180
65
176
234
320
379
444
489
444
384
391
433
483
533
571
605
642
661
659
676
725
763
769
773
772
732
659
585
503
399
301
253
239
209
175
168
148
100
104
164
198
213
266
356
501
673
759
815
971
1044
761
234
-232
-511
-637
-691
-727
-752
-768
-789
-812
-835
-856
-875
-907
-952
-987
-1018
-1048
-1029
-964
-897
-793
-595
-383
-267
-220
-163
-115
-112
-124
-125
-131
-138
-132
-119
-114
-109
-97
-86
-80
-79
-76
-64
-54
-45
-27
-12
-7
-3
-9
-20
-9
11
11
5
20
62
97
87
48
33
38
36
38
55
68
88
108
97
118
218
333
487
647
506
60
-183
-75
27
24
47
65
61
79
81
61
77
105
120
147
159
154
185
231
254
297
346
334
308
338
350
273
167
100
55
2
-52
-83
-83
-80
-92
-95
-75
-68
-93
-107
-74
-39
-63
-93
-48
13
2
-43
-69
-87
-100
-99
-95
-98
-92
-65
-64
-88
-28
96
175
246
236
-48
-370
-354
-173
-133
-155
-137
-143
-156
-132
-112
-119
-121
-98
-71
-57
-44
-16
17
51
101
172
254
326
361
349
310
248
144
27
-56
-125
-196
-221
-195
-179
-186
-184
-176
-174
-154
-118
-116
-137
-106
-35
-4
-17
-35
-55
-69
-55
-39
-63
-96
-53
18
-7
-23
123
272
380
629
702
226
-269
-238
-47
-62
-102
-76
-81
-98
-96
-98
-81
-61
-75
-75
-29
8
25
65
120
180
265
357
414
433
422
372
287
193
98
5
-54
-75
-116
-163
-150
-113
-115
-101
-36
38
113
230
440
735
1012
1271
1575
1673
1232
462
-137
-422
-535
-566
-558
-554
-565
-582
-602
-620
-645
-696
-762
-821
-872
-916
-947
-959
-923
-806
-641
-474
-302
-130
-7
45
62
73
55
6
-24
-11
2
-5
-8
11
33
28
16
33
62
62
45
41
39
33
41
64
75
63
39
20
19
29
24
6
13
68
132
145
107
72
68
69
73
79
66
63
85
61
46
163
300
424
665
704
225
-231
-172
13
-13
-46
-11
-15
-16
21
28
11
21
38
38
50
87
122
145
167
211
287
358
385
383
379
362
310
233
156
93
30
-30
-63
-64
-69
-87
-86
-67
-54
-27
37
113
168
233
394
648
847
957
1122
1269
1091
596
128
-146
-298
-355
-344
-410
-623
-838
-896
-832
-777
-771
-774
-772
-780
-781
-753
-718
-688
-625
-496
-327
-184
-81
16
82
74
45
39
23
-5
-11
-12
-21
-18
-11
-18
-18
4
15
13
24
34
23
28
60
73
55
38
26
15
26
53
57
36
46
98
124
94
63
57
45
30
29
16
-2
21
26
-34
-23
108
224
344
448
242
-211
-391
-228
-115
-137
-144
-143
-145
-117
-105
-123
-118
-96
-89
-77
-46
-18
7
51
119
193
252
291
328
367
388
377
327
255
187
123
52
-5
-26
-29
-34
-43
-40
-17
3
13
38
67
61
51
88
132
127
90
58
36
10
-11
-9
-17
-37
-21
-21
-63
-3
144
255
441
591
267
-298
-417
-189
-120
-168
-140
-116
-132
-127
-112
-112
-114
-107
-81
-52
-39
-28
1
58
146
230
271
302
353
386
358
281
181
67
-47
-130
-169
-187
-208
-223
-209
-192
-210
-231
-202
-148
-135
-170
-197
-157
-66
-22
-73
-143
-166
-164
-151
-116
-105
-127
-120
-107
-107
-11
141
221
349
476
218
-280
-427
-228
-112
-137
-154
-153
-145
-124
-112
-105
-94
-90
-81
-45
-11
6
43
109
177
245
317
368
390
398
371
285
169
65
-11
-71
-135
-195
-216
-204
-198
-195
-175
-146
-110
-83
-97
-112
-63
9
33
21
-6
-37
-45
-53
-82
-78
-50
-46
-25
-19
-67
8
210
335
516
751
511
-118
-351
-154
-83
-139
-115
-97
-118
-110
-103
-112
-110
-100
-74
-38
-22
-2
52
114
172
237
302
360
400
393
348
295
225
133
45
-18
-55
-81
-100
-106
-99
-94
-101
-111
-105
-84
-76
-80
-69
-40
-5
23
14
-23
-42
-51
-91
-116
-98
-86
-80
-78
-112
-96
10
126
373
726
637
7
-411
-323
-207
-247
-254
-227
-222
-200
-180
-183
-167
-123
-86
-76
-72
-41
10
46
84
147
210
254
291
309
290
246
187
113
32
-36
-75
-91
-102
-113
-121
-119
-108
-116
-153
-159
-101
-57
-45
22
143
272
449
625
698
811
1024
1006
595
102
-204
-343
-394
-406
-404
-387
-383
-399
-400
-401
-426
-452
-481
-519
-543
-560
-595
-612
-566
-467
-329
-162
-9
101
189
255
259
206
157
138
126
111
102
94
84
82
84
79
65
51
42
38
42
52
52
41
46
65
60
38
42
69
82
82
104
148
174
161
126
102
95
84
79
88
77
62
87
84
49
116
252
393
610
666
241
-249
-268
-90
-96
-136
-98
-104
-139
-127
-114
-123
-119
-103
-90
-67
-41
-28
-10
30
79
126
175
224
260
259
226
184
136
62
-27
-99
-147
-187
-208
-202
-191
-192
-192
-194
-203
-187
-152
-142
-155
-150
-115
-62
-14
-25
-86
-125
-123
-99
-61
-60
-100
-82
-41
-82
-44
148
272
386
607
475
-132
-462
-279
-149
-206
-194
-149
-149
-138
-139
-163
-154
-124
-94
-57
-29
-2
53
113
157
223
326
421
469
472
421
323
227
148
52
-43
-96
-124
-138
-130
-118
-116
-110
-98
-88
-73
-48
-37
-63
-87
-47
22
27
-31
-71
-76
-85
-100
-87
-67
-75
-55
-10
-37
-40
113
268
409
687
716
179
-300
-238
-75
-110
-121
-79
-93
-104
-88
-81
-62
-50
-65
-61
-29
2
35
67
98
157
228
272
307
345
341
278
197
118
40
-31
-92
-131
-134
-129
-148
-162
-148
-137
-160
-185
-166
-126
-135
-170
-148
-76
-29
-36
-72
-101
-113
-117
-108
-95
-102
-95
-72
-95
-83
45
149
250
481
483
9
-372
-283
-133
-161
-167
-129
-145
-157
-131
-119
-127
-125
-107
-84
-59
-40
-28
0
61
133
196
251
286
297
292
250
161
64
-11
-74
-122
-141
-138
-134
-133
-127
-102
-69
-62
-86
-95
-62
-25
-29
-56
-42
18
48
9
-33
-32
-26
-35
-30
-15
-10
10
14
-24
1
110
203
375
610
477
-49
-341
-212
-96
-126
-117
-81
-92
-89
-52
-42
-50
-24
12
10
11
47
78
106
158
204
233
286
346
356
332
312
267
180
101
51
6
-19
-11
-18
-45
-41
-8
0
-19
-28
-8
34
91
144
204
355
590
730
799
1008
1183
935
400
-2
-213
-352
-404
-395
-414
-454
-474
-501
-539
-563
-590
-636
-677
-702
-729
-747
-730
-673
-580
-456
-315
-173
-42
53
90
92
85
62
26
-4
-26
-42
-45
-35
-34
-42
-40
-22
-10
-17
-25
-16
-2
-6
-15
-7
1
-11
-22
-21
-33
-51
-39
-22
-52
-87
-57
20
73
70
36
17
26
31
26
28
36
74
117
74
55
214
390
510
723
730
223
-256
-213
-21
-11
-27
-21
-48
-31
34
56
37
25
37
71
102
102
95
120
176
244
311
363
399
431
438
396
331
255
150
38
-31
-69
-112
-149
-145
-120
-110
-114
-129
-150
-134
-89
-88
-128
-122
-62
-11
7
-14
-57
-74
-72
-93
-112
-106
-108
-97
-82
-126
-111
69
231
318
435
320
-158
-461
-323
-165
-178
-176
-154
-179
-192
-181
-179
-167
-136
-111
-106
-105
-82
-40
12
79
158
237
308
356
361
326
255
156
50
-42
-114
-167
-195
-206
-216
-225
-215
-195
-181
-171
-170
-164
-131
-111
-145
-152
-74
-3
-6
-29
-38
-55
-86
-103
-79
-51
-64
-68
-50
-73
-46
104
209
321
591
590
50
-369
-255
-90
-118
-109
-73
-97
-79
-41
-55
-44
1
0
-11
16
47
90
155
202
248
317
378
421
450
427
350
255
156
59
-16
-70
-109
-132
-144
-147
-149
-155
-153
-144
-138
-131
-110
-83
-69
-59
-30
19
39
1
-46
-46
-25
-25
-28
-26
-22
4
9
-39
-9
131
253
461
734
572
-41
-362
-203
-96
-170
-164
-99
-114
-150
-145
-131
-116
-93
-92
-97
-70
-35
-17
20
77
130
197
271
298
283
265
226
143
44
-39
-95
-118
-126
-130
-132
-135
-126
-98
-89
-111
-121
-104
-88
-82
-81
-80
-57
-17
-3
-26
-56
-75
-83
-85
-79
-79
-100
-103
-75
-99
-126
-28
102
185
329
349
-13
-383
-354
-199
-205
-222
-172
-162
-181
-161
-136
-138
-134
-100
-68
-52
-32
-4
36
103
172
223
280
347
388
398
386
339
254
163
89
40
17
6
-3
-7
-4
5
21
32
27
30
57
111
193
262
312
465
697
797
823
955
958
581
115
-124
-222
-287
-306
-317
-351
-374
-380
-384
-397
-428
-464
-490
-533
-589
-613
-612
-618
-600
-512
-383
-244
-93
36
114
170
189
136
79
78
67
22
6
15
2
-7
10
21
9
-9
-11
-1
-3
-21
-34
-34
-30
-30
-32
-20
-13
-38
-67
-59
-46
-56
-65
-53
-17
26
40
38
39
22
-18
-32
5
29
3
3
31
-4
12
190
342
464
685
610
39
-343
-185
-29
-115
-142
-68
-54
-83
-95
-83
-45
-29
-51
-42
-3
15
41
103
168
227
296
359
417
448
416
365
320
220
85
5
-49
-128
-178
-167
-152
-168
-192
-188
-139
-90
-95
-81
36
146
220
460
810
999
1149
1399
1366
837
214
-180
-393
-470
-459
-482
-519
-482
-438
-473
-517
-520
-537
-582
-614
-648
-705
-749
-753
-718
-635
-516
-383
-229
-68
43
81
80
67
44
26
18
1
-13
1
27
42
49
47
46
62
86
89
74
60
58
61
59
60
71
73
49
20
14
24
25
5
-6
35
101
122
107
108
107
72
28
25
55
65
59
75
65
60
164
284
421
794
1046
583
-120
-249
-65
-93
-172
-124
-94
-118
-117
-98
-92
-98
-96
-73
-57
-54
-25
26
70
129
209
270
309
342
351
323
276
203
101
7
-55
-102
-150
-186
-196
-194
-187
-178
-184
-199
-187
-168
-164
-154
-155
-165
-123
-63
-74
-121
-140
-155
-182
-188
-170
-160
-153
-112
-86
-107
-52
87
187
356
565
382
-128
-338
-192
-105
-114
-102
-123
-144
-97
-58
-65
-67
-46
-18
7
24
52
91
119
150
209
275
314
324
307
270
212
129
40
-29
-82
-125
-151
-167
-175
-165
-142
-122
-113
-120
-128
-110
-79
-68
-64
-29
18
30
7
-15
-34
-60
-69
-45
-32
-61
-77
-46
-33
-23
46
124
245
471
498
107
-264
-245
-101
-83
-82
-49
-57
-81
-69
-44
-39
-34
-9
17
30
52
84
114
147
188
236
294
340
341
317
295
261
191
108
45
8
-15
-22
-25
-35
-38
-24
-15
-22
-31
-33
-18
12
30
43
107
200
266
353
473
528
568
730
838
613
172
-172
-333
-390
-408
-427
-453
-461
-459
-479
-515
-534
-555
-609
-660
-680
-701
-730
-731
-703
-652
-556
-411
-257
-126
-18
71
122
119
84
60
56
52
42
41
50
49
44
52
62
64
65
65
69
83
77
41
40
90
99
52
50
106
121
84
76
132
197
211
178
154
142
111
79
80
84
81
95
62
3
97
298
438
650
820
457
-174
-301
-56
-10
-78
-48
-39
-52
-13
-3
-28
-14
3
-5
22
61
67
100
177
230
268
335
394
434
479
459
339
232
174
80
-24
-73
-121
-177
-171
-143
-158
-157
-126
-134
-154
-116
-59
-14
73
258
524
769
908
1049
1257
1261
832
210
-231
-434
-523
-556
-559
-563
-564
-561
-574
-607
-635
-658
-695
-745
-787
-821
-860
-895
-889
-823
-704
-545
-367
-198
-53
44
69
56
54
37
-5
-13
0
-16
-26
-1
7
3
15
15
7
21
33
34
48
51
34
38
68
87
78
55
61
91
86
77
139
214
239
234
202
159
161
182
176
168
168
188
228
217
217
338
455
582
876
937
396
-120
-65
113
79
69
113
94
76
