# session 36
-16
1
0
-19
-29
-8
18
21
17
31
56
75
88
107
150
213
275
326
367
389
377
327
254
165
68
-5
-39
-64
-98
-115
-114
-113
-106
-91
-77
-67
-74
-95
-93
-64
-54
-63
-42
20
63
54
29
15
1
-11
-19
-20
-9
-16
-42
-13
16
-44
-11
194
338
486
745
607
-63
-453
-276
-135
-209
-215
-171
-179
-181
-174
-177
-163
-151
-157
-153
-127
-94
-74
-71
-54
-11
45
122
209
263
296
344
379
365
314
242
148
49
-22
-59
-86
-111
-126
-145
-170
-172
-163
-172
-187
-190
-186
-154
-111
-115
-144
-111
-29
22
28
14
-17
-41
-35
-32
-33
1
15
-13
14
44
-5
44
230
380
632
957
754
42
-331
-193
-89
-137
-141
-133
-148
-130
-103
-106
-114
-116
-120
-111
-86
-57
-27
-11
-9
13
57
103
163
227
261
278
292
262
186
111
35
-54
-122
-146
-159
-177
-184
-174
-154
-133
-126
-127
-116
-95
-90
-87
-70
-70
-91
-64
8
31
-6
-28
-33
-55
-72
-63
-45
-57
-94
-89
-48
-67
-77
35
172
325
534
450
-65
-428
-329
-186
-211
-207
-157
-156
-165
-154
-141
-119
-97
-93
-94
-83
-55
-29
-17
0
41
97
154
204
260
323
363
364
351
321
250
163
94
33
-23
-62
-94
-120
-130
-129
-124
-118
-108
-89
-68
-68
-72
-43
0
8
5
39
83
94
86
72
50
43
47
37
33
42
32
37
65
36
14
114
248
422
686
670
161
-279
-251
-108
-117
-144
-138
-153
-161
-152
-156
-156
-140
-132
-139
-129
-103
-91
-84
-58
-36
-21
15
71
128
182
219
226
215
192
142
71
3
-46
-79
-102
-110
-104
-102
-103
-96
-85
-80
-81
-86
-94
-99
-94
-76
-59
-58
-49
-3
31
10
-24
-41
-56
-64
-63
-67
-73
-81
-82
-70
-86
-104
-20
118
239
426
488
108
-372
-408
-201
-157
-191
-165
-151
-152
-124
-102
-96
-86
-77
-74
-61
-35
-12
0
15
45
83
132
191
255
315
358
384
407
411
358
262
167
85
18
-20
-40
-64
-92
-116
-131
-135
-126
-118
-118
-113
-110
-121
-119
-93
-90
-98
-50
32
68
54
21
-6
-10
-6
-18
-8
16
5
0
17
-26
-23
139
285
458
822
874
232
-363
-320
-117
-138
-178
-154
-153
-147
-128
-138
-150
-133
-105
-94
-101
-106
-91
-62
-42
-25
16
75
134
197
265
311
324
308
261
181
91
11
-52
-100
-127
-141
-155
-161
-154
-146
-146
-141
-130
-129
-134
-133
-133
-131
-113
-110
-134
-119
-45
2
-14
-41
-61
-75
-82
-93
-91
-65
-68
-79
-46
-58
-98
15
198
325
555
686
282
-273
-337
-141
-112
-155
-154
-165
-159
-130
-132
-134
-104
-80
-78
-75
-59
-38
-21
-3
20
49
94
155
219
280
332
350
340
319
271
183
85
7
-49
-88
-121
-149
-160
-152
-141
-132
-123
-107
-83
-67
-74
-73
-44
-19
-22
-19
16
59
86
106
94
33
-2
23
28
14
45
54
12
26
47
3
48
186
303
566
851
590
-56
-307
-148
-88
-138
-122
-113
-131
-110
-92
-104
-99
-90
-97
-89
-68
-54
-37
-20
-13
1
31
68
109
156
203
236
243
234
207
139
50
-16
-58
-85
-96
-104
-114
-107
-95
-106
-112
-89
-70
-75
-78
-86
-111
-124
-101
-72
-65
-64
-44
-15
-9
-28
-52
-79
-103
-110
-112
-121
-125
-129
-124
-117
-140
-132
-28
81
178
311
250
-129
-405
-312
-163
-168
-178
-139
-126
-133
-136
-127
-95
-75
-92
-93
-56
-26
-18
-2
39
85
118
147
192
240
273
290
302
303
276
218
153
89
25
-23
-40
-49
-62
-60
-49
-45
-34
-20
-22
-22
1
17
6
-7
-10
-2
13
19
26
63
107
119
106
76
36
17
16
14
28
39
11
-3
4
-31
-26
88
193
336
576
511
-11
-365
-238
-86
-124
-141
-112
-123
-127
-109
-112
-115
-95
-85
-94
-93
-78
-70
-57
-19
24
58
99
160
226
285
326
354
380
377
315
220
142
80
24
-8
-15
-24
-33
-28
-19
-21
-26
-28
-29
-25
-15
-17
-41
-58
-38
-6
-26
-69
-38
47
74
36
1
-24
-44
-46
-47
-45
-31
-30
-29
-28
-111
-210
-198
-185
-153
45
40
-463
-860
-719
-494
-462
-426
-366
-354
-314
-256
-233
-199
-151
-139
-137
-94
-38
-2
15
29
51
94
158
222
278
325
353
368
388
376
289
187
130
76
2
-32
-23
-28
-45
-40
-21
-13
-5
19
39
41
47
54
41
33
58
71
39
11
45
116
152
140
120
89
41
17
18
11
-5
-24
-19
15
-7
-51
60
244
391
667
850
433
-219
-355
-148
-100
-142
-127
-135
-160
-155
-153
-156
-153
-153
-143
-128
-123
-111
-85
-62
-38
6
60
111
172
239
294
323
336
329
280
183
86
23
-18
-56
-90
-112
-125
-133
-138
-131
-116
-91
-34
78
266
494
674
789
822
663
429
403
407
92
-289
-363
-318
-379
-432
-418
-414
-422
-413
-396
-384
-387
-398
-394
-380
-369
-362
-361
-339
-280
-227
-202
-172
-126
-81
-47
-28
-22
-9
7
6
-3
-8
-12
-16
-13
-5
1
-5
-18
-22
-16
-14
-14
0
29
44
34
38
62
63
46
64
96
101
99
105
95
81
89
98
87
77
89
104
101
86
84
90
78
44
10
10
47
59
19
2
53
113
114
54
-5
-5
13
-2
-2
28
18
-17
-18
-31
-32
73
217
375
616
636
177
-273
-262
-111
-125
-150
-121
-123
-131
-116
-110
-107
-93
-82
-70
-54
-45
-33
-9
8
15
39
89
139
173
192
209
233
261
266
235
186
134
76
18
-32
-75
-104
-113
-121
-137
-136
-129
-146
-158
-137
-130
-155
-166
-152
-151
-168
-168
-138
-109
-101
-87
-37
10
0
-47
-70
-64
-67
-77
-67
-49
-60
-78
-49
-6
-13
4
112
242
377
438
194
-222
-340
-166
-77
-110
-108
-92
-101
-98
-88
-85
-76
-59
-44
-35
-27
-7
19
38
59
94
138
183
234
294
350
385
396
392
370
317
236
153
86
35
5
-4
-29
-70
-83
-72
-74
-84
-88
-94
-99
-100
-117
-146
-151
-135
-131
-133
-122
-95
-53
-15
-19
-60
-85
-75
-61
-71
-80
-69
-76
-103
-78
-45
-93
-81
88
243
410
640
499
-107
-452
-270
-113
-170
-175
-121
-123
-127
-110
-112
-126
-128
-104
-64
-44
-55
-59
-39
-6
30
68
128
203
256
299
364
398
371
335
280
167
47
-36
-95
-121
-132
-173
-215
-211
-195
-183
-156
-136
-147
-157
-149
-144
-155
-156
-133
-124
-149
-148
-74
14
29
-22
-60
-57
-41
-34
-26
0
31
27
25
58
30
-14
110
298
448
715
815
301
-322
-365
-149
-141
-175
-118
-95
-107
-95
-82
-75
-55
-35
-30
-26
-2
33
49
61
95
138
173
212
269
333
377
391
387
361
297
217
149
81
6
-48
-74
-95
-113
-119
-130
-156
-159
-124
-103
-114
-118
-119
-137
-129
-91
-96
-139
-129
-60
-14
-12
-22
-47
-92
-117
-110
-104
-97
-78
-79
-82
-54
-69
-96
0
140
268
513
613
193
-314
-337
-145
-126
-154
-115
-97
-105
-109
-116
-111
-93
-81
-74
-71
-68
-57
-39
-12
15
25
49
111
164
196
243
270
249
233
219
148
43
-39
-88
-110
-131
-168
-181
-160
-151
-147
-125
-121
-139
-134
-112
-104
-109
-117
-109
-80
-73
-92
-64
15
56
43
27
18
12
17
6
-11
10
29
1
-1
24
-9
-10
94
195
329
505
374
-92
-338
-191
-56
-71
-70
-44
-43
-32
-20
-28
-29
-19
-14
1
23
36
48
63
76
103
145
176
206
256
297
316
334
336
297
242
187
118
54
18
-15
-54
-69
-64
-64
-70
-68
-59
-58
-74
-88
-83
-83
-110
-128
-104
-68
-62
-65
-40
-5
-4
-31
-59
-86
-106
-105
-99
-97
-90
-95
-96
-68
-70
-89
1
141
222
348
408
114
-277
-306
-143
-117
-142
-110
-100
-119
-114
-99
-101
-113
-113
-103
-100
-94
-72
-64
-73
-51
2
34
41
84
166
225
239
249
256
220
141
64
3
-52
-89
-105
-114
-125
-128
-126
-122
-114
-106
-104
-102
-98
-103
-106
-98
-85
-67
-49
-42
-29
17
75
94
63
17
-11
-26
-44
-49
-24
-9
-31
-22
2
-48
-43
144
324
488
791
796
181
-339
-242
-37
-67
-89
-44
-47
-50
-36
-33
-19
-9
-32
-42
-22
-8
-4
5
17
41
87
132
160
204
278
335
348
339
310
239
141
47
-20
-54
-85
-130
-155
-139
-128
-144
-161
-156
-142
-137
-141
-148
-155
-162
-166
-160
-149
-164
-193
-163
-70
-11
-18
-41
-59
-74
-72
-64
-65
-52
-34
-41
-30
-10
-40
0
173
318
538
898
798
71
-392
-238
-103
-185
-180
-125
-141
-167
-195
-204
-151
-127
-164
-154
-103
-105
-127
-112
-72
-15
46
79
108
171
238
275
292
285
245
178
90
-1
-71
-114
-145
-162
-156
-138
-129
-127
-111
-89
-84
-77
-60
-63
-87
-99
-96
-104
-125
-127
-89
-35
2
18
14
-8
-17
-2
9
-1
8
36
40
49
83
50
12
124
265
391
691
850
396
-187
-240
-61
-71
-115
-84
-84
-101
-92
-86
-74
-58
-78
-112
-92
-42
-38
-60
-40
5
32
70
126
168
208
253
266
253
234
187
114
52
-2
-56
-89
-98
-101
-108
-111
-101
-85
-75
-67
-48
-30
-30
-42
-51
-47
-31
-13
-4
-1
19
58
80
66
33
5
-10
-8
1
6
19
22
-2
-5
1
-38
-35
71
187
338
503
341
-160
-445
-340
-232
-255
-257
-245
-268
-268
-240
-227
-226
-214
-192
-172
-157
-136
-109
-90
-81
-66
-31
23
81
132
179
215
228
226
214
186
136
75
21
-9
-23
-39
-52
-56
-57
-64
-71
-69
-66
-69
-69
-58
-45
-41
-30
2
40
54
55
86
137
148
113
86
78
63
54
65
75
63
41
47
76
63
43
129
247
352
607
793
440
-149
-295
-115
-79
-148
-140
-120
-142
-159
-156
-148
-145
-155
-155
-135
-113
-102
-92
-77
-53
-15
26
64
118
183
225
240
254
251
206
133
56
-12
-67
-112
-136
-133
-140
-164
-162
-134
-119
-111
-94
-88
-99
-109
-118
-124
-106
-70
-63
-73
-44
18
52
53
42
14
-10
-8
-14
-26
2
19
-12
-14
1
-36
14
193
328
514
767
568
-110
-468
-310
-195
-251
-256
-243
-256
-233
-213
-219
-195
-164
-161
-158
-147
-131
-90
-49
-39
-8
63
121
173
260
342
384
407
400
342
264
185
93
15
-28
-62
-94
-111
-125
-141
-143
-133
-128
-125
-116
-99
-74
-76
-98
-77
-30
-43
-87
-63
28
96
103
76
40
3
3
39
36
-3
-2
20
38
48
-15
-37
154
359
475
682
662
87
-409
-315
-122
-163
-183
-139
-151
-153
-130
-129
-116
-100
-112
-122
-112
-99
-78
-58
-50
-30
7
45
95
167
225
250
264
267
236
178
114
48
4
7
16
-12
-46
-51
-45
-42
-44
-51
-49
-32
-24
-29
-33
-46
-66
-63
-49
-74
-122
-112
-39
15
8
-25
-54
-76
-90
-99
-101
-89
-88
-113
-102
-73
-113
-110
40
179
336
632
631
73
-374
-288
-137
-193
-233
-207
-196
-178
-164
-175
-173
-158
-156
-144
-110
-84
-69
-32
20
57
81
117
176
250
316
343
349
349
315
237
154
80
11
-34
-53
-67
-77
-75
-68
-58
-37
-17
-10
0
27
42
27
9
10
17
20
20
14
28
73
109
115
114
90
37
11
25
19
-4
-11
-13
-9
-6
-55
-67
48
147
233
496
619
200
-296
-321
-172
-188
-209
-170
-178
-191
-174
-182
-187
-156
-146
-156
-142
-124
-118
-96
-68
-61
-51
-8
58
116
156
189
225
251
240
187
118
53
0
-42
-72
-93
-100
-93
-89
-95
-100
-100
-103
-108
-106
-97
-91
-90
-95
-105
-113
-106
-89
-80
-70
-39
-6
-3
-43
-106
-137
-117
-103
-118
-118
-111
-121
-100
-53
-72
-91
17
154
260
400
353
-44
-352
-252
-79
-75
-68
-14
-11
-20
6
32
44
50
43
42
64
82
75
73
93
112
129
160
203
251
300
333
347
355
346
308
247
179
125
86
49
19
3
-14
-37
-43
-34
-26
-24
-19
-8
3
9
5
-5
-12
-10
0
17
51
119
223
330
405
471
583
679
668
627
585
384
84
-78
-170
-342
-442
-388
-346
-369
-380
-374
-381
-394
-399
-404
-427
-470
-506
-525
-542
-559
-561
-545
-510
-451
-367
-262
-143
-36
46
130
208
228
198
173
147
106
86
84
68
48
41
42
46
56
63
62
55
52
57
61
51
38
35
30
14
13
26
21
10
18
-2
-68
-92
-47
-43
-101
-98
-4
69
67
37
12
0
-5
-26
-42
-14
8
-7
8
19
-35
8
201
357
533
747
544
-74
-374
-197
-74
-113
-92
-53
-75
-87
-68
-56
-62
-81
-98
-105
-103
-91
-82
-73
-47
-13
16
73
159
233
284
333
374
380
355
320
269
190
110
52
1
-48
-70
-66
-65
-68
-64
-58
-48
-38
-46
-56
-51
-60
-89
-91
-75
-92
-126
-118
-62
-1
29
7
-46
-73
-59
-49
-61
-61
-41
-51
-76
-57
-58
-100
-25
144
286
551
789
449
-231
-438
-238
-186
-238
-197
-174
-194
-180
-167
-171
-155
-136
-132
-125
-107
-85
-60
-38
-13
23
66
125
202
265
306
344
361
342
294
213
112
19
