# session 34
-24
-51
-72
-76
-61
-49
-59
-75
-61
-14
23
21
-11
-49
-74
-77
-74
-76
-66
-52
-58
-39
-13
-44
-15
151
277
431
751
754
158
-324
-240
-86
-138
-161
-124
-141
-153
-133
-137
-152
-136
-110
-108
-115
-103
-80
-61
-45
-26
8
63
121
178
233
261
263
269
260
195
102
26
-25
-57
-74
-78
-74
-80
-94
-80
-38
-16
-21
-7
48
129
235
334
406
571
872
1053
976
815
541
76
-223
-163
-149
-343
-414
-300
-243
-267
-272
-270
-283
-296
-312
-334
-356
-378
-409
-454
-486
-475
-445
-425
-377
-275
-156
-47
58
152
224
273
271
220
204
233
173
10
-75
-38
-17
-29
-2
22
11
23
56
50
22
15
13
9
23
38
27
12
9
6
-2
-14
-31
-42
-55
-71
-57
-16
0
-11
11
75
121
119
85
52
42
44
32
26
45
51
38
35
22
19
97
204
322
533
587
180
-295
-329
-156
-145
-190
-168
-163
-192
-204
-195
-180
-181
-190
-171
-144
-149
-148
-112
-79
-55
-18
24
66
121
182
223
242
248
252
245
211
153
88
32
-4
-24
-45
-67
-79
-81
-86
-95
-98
-93
-89
-99
-117
-116
-83
-49
-44
-35
13
54
44
17
3
-9
-17
-21
-18
-1
1
-1
42
56
5
63
228
351
591
868
605
-75
-348
-161
-76
-132
-114
-90
-114
-115
-102
-107
-104
-96
-94
-94
-92
-87
-77
-69
-62
-31
34
106
164
220
270
281
260
238
200
114
22
-29
-81
-151
-161
-133
-161
-195
-159
-133
-159
-153
-116
-114
-125
-105
-84
-98
-129
-120
-46
19
0
-50
-76
-101
-125
-125
-120
-121
-123
-127
-124
-141
-168
-79
111
245
381
490
226
-296
-458
-238
-128
-185
-190
-156
-149
-134
-112
-102
-93
-84
-76
-46
-2
9
-1
26
93
148
188
250
307
345
402
452
430
364
303
231
137
46
-20
-52
-68
-84
-80
-43
25
138
252
381
644
962
1180
1493
1922
1846
1026
176
-169
-242
-314
-368
-413
-476
-509
-515
-539
-571
-594
-620
-653
-703
-765
-799
-805
-818
-821
-764
-643
-495
-349
-205
-61
54
106
113
105
88
70
63
60
49
37
34
32
27
24
20
10
-4
-10
-4
4
6
4
6
13
19
17
14
19
26
24
19
20
21
16
13
16
20
22
17
1
-9
2
20
10
-44
-94
-79
-31
-42
-99
-98
-36
12
20
0
-36
-55
-62
-71
-53
-29
-45
-39
-3
-32
-12
164
313
459
749
736
149
-307
-201
-42
-100
-119
-69
-71
-82
-72
-78
-87
-81
-73
-67
-62
-61
-46
-15
16
45
87
139
195
248
288
314
332
335
324
312
285
220
143
96
68
32
1
-6
7
10
-12
-19
10
26
1
-12
6
8
2
79
234
383
541
702
734
627
477
300
256
521
697
333
-174
-297
-243
-295
-333
-302
-312
-344
-336
-317
-329
-361
-380
-384
-403
-433
-445
-441
-434
-421
-400
-370
-328
-271
-203
-139
-88
-46
-9
17
25
28
37
40
41
50
43
21
28
55
56
36
26
31
37
21
-18
-44
-57
-108
-179
-219
-245
-294
-333
-329
-287
-243
-226
-202
-126
-50
-42
-71
-80
-78
-72
-47
-25
-26
-33
-28
-6
3
-5
50
183
342
543
633
328
-145
-264
-93
-24
-61
-61
-65
-92
-94
-88
-96
-95
-83
-75
-64
-42
-19
-1
23
62
108
156
201
246
292
331
357
371
371
354
332
297
232
160
114
85
55
41
43
41
36
35
33
37
44
30
3
5
27
30
30
55
79
72
50
26
-12
-47
-55
-54
-56
-55
-71
-76
-43
-55
-87
14
180
309
504
555
125
-370
-364
-138
-103
-123
-80
-76
-85
-52
-37
-49
-41
-23
-15
-12
-4
7
12
15
38
79
117
158
213
263
299
329
344
314
225
112
19
-60
-131
-160
-166
-211
-257
-243
-221
-221
-196
-178
-207
-207
-141
-85
-56
19
206
496
771
940
1124
1412
1505
1061
311
-213
-378
-399
-411
-424
-439
-444
-450
-479
-511
-538
-573
-613
-655
-700
-731
-754
-788
-817
-809
-765
-698
-606
-480
-318
-152
-28
43
86
97
68
37
20
-18
-67
-77
-65
-78
-97
-92
-69
-46
-51
-91
-123
-110
-82
-84
-97
-81
-41
-18
-19
-29
-37
-18
38
74
58
62
140
234
268
264
302
384
437
429
395
364
334
299
275
286
294
261
251
268
234
247
384
506
695
1040
1027
413
-66
17
169
126
112
153
140
108
61
-20
-85
-126
-183
-237
-266
-297
-336
-359
-366
-367
-357
-330
-283
-233
-214
-208
-169
-131
-146
-172
-172
-195
-246
-256
-213
-164
-122
-76
-26
25
68
105
163
247
307
297
251
237
241
210
165
159
175
168
135
105
103
119
140
189
254
318
430
575
652
766
1087
1370
1196
643
151
-103
-218
-274
-303
-338
-367
-373
-373
-385
-410
-437
-452
-456
-463
-478
-490
-507
-538
-564
-566
-543
-487
-412
-337
-242
-130
-52
0
62
82
26
-27
-28
-31
-59
-73
-60
-43
-38
-48
-56
-44
-25
-22
-30
-38
-53
-73
-76
-61
-56
-58
-36
5
23
12
-6
-20
-22
-6
9
13
18
17
19
36
19
-8
72
202
296
458
541
215
-247
-323
-167
-143
-170
-137
-138
-163
-140
-110
-115
-128
-128
-121
-135
-173
-188
-165
-143
-119
-78
-35
8
72
146
194
216
235
252
232
168
95
36
-22
-68
-75
-68
-77
-85
-75
-58
-34
-16
-25
-44
-39
-28
-32
-46
-55
-40
12
61
78
81
73
53
65
105
115
128
167
165
150
156
111
112
282
458
659
1010
1020
375
-173
-103
76
41
22
50
24
11
23
7
-9
-1
10
17
17
6
7
29
52
70
105
177
259
312
350
400
429
401
340
267
172
63
-32
-106
-158
-187
-215
-254
-284
-299
-322
-347
-355
-359
-370
-367
-349
-338
-336
-318
-257
-175
-130
-134
-149
-154
-147
-129
-119
-114
-96
-94
-102
-78
-99
-168
-90
78
189
474
789
448
-322
-576
-363
-310
-371
-328
-319
-361
-336
-299
-313
-328
-315
-282
-244
-226
-218
-194
-162
-130
-76
-6
52
113
192
257
279
285
290
256
170
80
25
1
-12
-29
-50
-44
-9
7
-4
1
18
13
-5
-7
3
16
29
47
92
176
277
362
421
517
688
822
890
1130
1564
1721
1304
636
157
-51
-103
-99
-102
-118
-120
-110
-111
-130
-161
-208
-274
-351
-428
-509
-616
-746
-847
-873
-816
-707
-595
-485
-349
-198
-84
-8
53
91
101
91
67
58
65
49
24
30
40
4
-67
-133
-163
-149
-122
-119
-132
-131
-112
-97
-90
-76
-58
-50
-41
-13
29
58
72
99
159
222
242
223
201
193
194
200
206
213
212
208
230
242
193
196
327
448
566
747
658
157
-185
-72
14
-180
-343
-363
-404
-473
-501
-515
-532
-519
-484
-437
-369
-303
-266
-231
-171
-100
-29
41
105
173
236
266
266
269
258
191
90
10
-38
-79
-117
-136
-142
-148
-148
-137
-130
-127
-112
-91
-83
-84
-64
-23
4
0
7
55
110
136
135
113
73
52
61
61
58
81
83
60
85
88
42
126
297
425
725
1037
697
-68
-326
-105
-39
-122
-104
-70
-84
-87
-88
-98
-89
-65
-53
-63
-67
-43
-31
-37
4
74
109
155
242
287
299
346
368
306
220
127
2
-78
-78
-100
-166
-189
-177
-185
-185
-160
-146
-148
-146
-148
-159
-159
-142
-126
-134
-156
-138
-69
-25
-36
-53
-79
-133
-160
-148
-144
-139
-136
-148
-114
-101
-196
-174
60
204
312
589
556
-50
-492
-372
-202
-234
-244
-215
-234
-239
-203
-178
-172
-162
-147
-137
-134
-124
-97
-63
-29
13
64
115
178
256
314
333
334
320
263
166
71
-15
-90
-127
-130
-148
-172
-160
-138
-143
-140
-111
-82
-63
-57
-59
-33
28
92
156
235
376
639
923
1082
1268
1657
1912
1576
791
103
-210
-280
-310
-349
-357
-351
-366
-371
-350
-344
-353
-345
-332
-347
-392
-438
-481
-536
-584
-579
-528
-462
-371
-254
-152
-66
21
75
70
44
29
7
-24
-42
-48
-52
-47
-28
-6
10
28
55
83
108
118
103
86
86
79
62
68
79
61
45
52
42
13
2
-10
-51
-74
-43
-32
-85
-110
-48
2
-23
-50
-64
-108
-141
-140
-145
-135
-96
-91
-92
-63
-77
-83
35
178
319
532
512
54
-327
-262
-108
-108
-97
-41
-31
-40
-39
-45
-41
-22
-14
-15
-6
7
11
13
22
32
52
97
153
197
235
280
321
348
348
312
253
195
140
84
34
4
-16
-37
-53
-60
-64
-62
-53
-42
-31
-23
-34
-56
-53
-27
-15
-29
-30
14
61
44
-24
-70
-79
-87
-99
-98
-85
-77
-85
-73
-50
-82
-86
40
154
245
497
598
168
-315
-315
-144
-148
-175
-146
-153
-168
-154
-146
-141
-130
-121
-109
-92
-80
-59
-22
4
17
46
107
180
250
312
357
377
367
328
265
181
80
-5
-60
-92
-105
-117
-146
-171
-174
-171
-169
-171
-175
-165
-166
-201
-212
-168
-151
-193
-201
-136
-66
-37
-42
-64
-88
-95
-88
-90
-97
-86
-80
-87
-66
-72
-111
-10
191
318
539
799
529
-141
-380
-156
-53
-113
-105
-75
-73
-61
-56
-60
-51
-54
-67
-65
-68
-83
-72
-40
-22
1
56
123
192
268
325
349
367
364
306
223
159
101
29
-22
-37
-47
-65
-73
-65
-49
-31
-19
-13
-6
-8
-17
-27
-39
-40
-29
-33
-39
5
70
76
36
1
-29
-53
-56
-57
-49
-27
-38
-56
-34
-59
-92
36
191
280
558
788
382
-277
-403
-201
-178
-220
-181
-171
-189
-176
-162
-153
-130
-114
-105
-87
-67
-52
-38
-21
6
48
95
143
201
258
294
322
345
321
236
149
92
22
-64
-111
-115
-122
-144
-157
-162
-167
-173
-183
-189
-171
-148
-160
-194
-201
-181
-173
-173
-152
-116
-77
-52
-62
-93
-107
-105
-99
-83
-69
-79
-97
-81
-38
-37
-37
76
217
361
678
882
468
-165
-296
-119
-105
-159
-141
-145
-159
-130
-111
-114
-99
-72
-56
-46
-24
4
21
37
62
86
116
170
230
267
291
319
333
310
261
218
175
109
30
-29
-51
-49
-58
-71
-30
36
39
2
-3
-4
-25
-15
12
0
-26
-20
-10
-27
-33
3
30
8
-24
-33
-45
-63
-70
-71
-61
-45
-55
-61
-42
-60
-74
15
120
214
372
346
-44
-358
-275
-120
-124
-132
-98
-98
-100
-81
-77
-82
-72
-59
-58
-57
-46
-33
-25
-13
8
24
46
96
153
189
210
221
215
189
142
70
-11
-78
-132
-166
-174
-184
-210
-219
-196
-176
-173
-164
-153
-150
-139
-116
-113
-136
-140
-106
-70
-60
-55
-20
36
71
73
61
47
41
50
53
49
58
52
33
56
57
-11
27
204
334
513
741
536
-76
-352
-172
-60
-95
-76
-58
-83
-71
-51
-68
-79
-69
-52
-32
-15
5
29
37
34
51
92
149
220
280
312
333
350
342
305
243
154
53
-14
-34
-47
-77
-97
-100
-117
-132
-111
-88
-98
-115
-118
-110
-96
-101
-134
-150
-129
-119
-145
-152
-101
-41
-23
-30
-41
-67
-89
-79
-56
-50
-47
-45
-55
-35
-10
-45
-13
168
342
543
782
590
-70
-421
-251
-136
-214
-211
-161
-177
-192
-175
-163
-161
-156
-134
-109
-108
-121
-126
-106
-43
21
36
61
137
205
242
284
311
284
217
134
45
-30
-75
-111
-152
-174
-167
-164
-167
-156
-142
-132
-110
-89
-85
-80
-69
-83
-118
-138
-128
-117
-136
-161
-135
-64
-14
-3
-15
-42
-52
-30
-25
-43
-20
17
12
32
73
28
28
206
354
504
903
1064
473
-182
-187
20
-23
-95
-51
-16
-21
-39
-54
-37
-12
-7
1
10
9
19
36
47
75
116
151
196
244
279
320
363
361
314
248
161
65
-16
-79
-124
-153
-178
-201
-206
-199
-199
-198
-177
-148
-131
-125
-115
-110
-120
-124
-104
-87
-97
-111
-96
-46
4
19
4
-11
-25
-40
-38
-37
-56
-69
-85
-98
-63
-52
-98
-35
121
230
432
611
288
-308
-463
-253
-175
-216
-206
-195
-197
-179
-168
-159
-140
-131
-123
-101
-92
-94
-80
-52
-14
41
99
151
205
263
318
360
373
348
296
218
131
56
-8
-61
-91
-106
-125
-130
-115
-108
-102
-76
-56
-66
-67
-46
-39
-52
-54
-46
-50
-65
-72
-64
-56
-56
-48
-13
39
78
84
56
20
3
2
-6
-15
-20
-32
-21
30
35
-22
13
134
196
335
602
540
33
-304
-216
-102
-127
-130
-101
-96
-95
-94
-94
-82
-65
-54
-51
-59
-62
-49
-37
-27
-2
37
84
137
195
246
284
309
315
289
236
170
103
44
5
-18
-38
-54
-61
-69
-80
-82
-81
-92
-100
-98
-97
-96
-97
-115
-128
-117
-121
-155
-169
-150
-131
-127
-123
-99
-56
-32
-48
-75
-83
-69
-46
-45
-59
-41
-13
-16
-8
2
-23
30
189
330
553
816
625
13
-273
-99
11
-38
-38
-30
-60
-64
-64
-85
-90
-81
-83
-75
-48
-29
-19
5
37
67
107
155
207
280
356
406
440
446
371
241
125
15
-100
-172
-193
-201
-197
-176
-169
-184
-185
-159
-141
-148
-150
-153
-213
-319
-397
-408
-369
-328
-315
-297
-240
-184
-171
-164
-115
-38
18
27
-4
-39
-40
-15
-4
-6
14
34
29
37
38
7
80
270
412
595
820
613
-9
-294
-95
32
-27
-25
15
9
10
24
25
33
48
51
55
71
