# session 150
-41
-72
-95
-105
-116
-128
-121
-106
-73
11
107
190
301
351
302
381
534
319
-180
-410
-338
-307
-336
-314
-296
-298
-283
-274
-283
-291
-295
-307
-322
-329
-327
-321
-307
-277
-235
-189
-136
-73
-14
30
62
80
68
42
31
24
8
6
17
9
-10
-2
20
23
29
63
106
136
145
123
77
48
54
77
90
70
52
85
97
53
111
274
382
521
662
427
-58
-196
-23
22
-37
-13
17
-10
-39
-46
-25
-7
-31
-47
-6
31
29
49
123
199
251
312
394
459
475
449
398
331
243
131
30
-26
-56
-83
-102
-128
-167
-176
-146
-125
-98
-11
115
296
573
806
891
1087
1455
1439
754
-56
-477
-609
-667
-693
-720
-754
-760
-758
-778
-798
-815
-850
-896
-932
-964
-999
-1031
-1031
-969
-851
-723
-586
-411
-232
-121
-63
-11
24
36
57
86
104
117
133
147
171
214
257
274
285
322
365
396
432
463
452
411
376
357
347
323
288
295
339
343
290
234
191
145
108
100
95
66
54
54
15
15
105
191
343
595
542
50
-284
-189
-74
-105
-100
-64
-69
-65
-45
-50
-68
-73
-70
-72
-78
-66
-32
-1
28
83
152
192
199
214
242
243
209
163
112
63
29
9
-7
-18
-36
-77
-124
-134
-100
-76
-83
-38
77
164
273
495
663
750
989
1164
816
172
-232
-380
-469
-506
-506
-513
-509
-511
-534
-543
-544
-569
-591
-592
-606
-628
-616
-574
-521
-431
-294
-152
-24
87
163
193
195
172
122
72
58
61
52
42
42
48
59
67
58
55
69
77
70
65
62
58
45
21
17
47
59
37
43
84
97
62
20
7
7
1
10
26
3
-15
-4
-31
-42
35
113
253
526
537
74
-313
-275
-166
-195
-210
-196
-219
-224
-195
-182
-186
-167
-126
-98
-88
-57
-5
32
70
138
205
255
299
325
335
332
302
249
192
118
45
4
-23
-48
-48
-45
-64
-76
-71
-66
-56
-26
18
55
60
23
-24
-47
-50
-43
-33
-51
-76
-43
-27
-89
-52
124
238
331
433
217
-235
-366
-181
-115
-167
-151
-123
-131
-126
-116
-125
-128
-109
-72
-37
-28
-22
24
92
156
229
300
343
369
385
361
288
195
108
29
-38
-78
-98
-123
-149
-156
-153
-136
-101
-91
-120
-120
-55
17
37
15
-16
-47
-75
-89
-77
-60
-64
-53
-34
-80
-87
57
189
282
492
522
84
-313
-254
-108
-131
-143
-110
-116
-112
-87
-90
-96
-86
-88
-87
-71
-59
-37
19
84
126
158
203
254
285
265
208
172
155
97
4
-60
-96
-134
-152
-144
-159
-189
-166
-103
-50
11
103
238
478
764
945
1074
1228
1164
733
218
-121
-318
-422
-438
-442
-477
-504
-515
-537
-559
-562
-578
-629
-682
-704
-717
-736
-720
-648
-541
-399
-226
-75
37
138
185
149
105
92
66
38
39
35
12
12
35
36
15
10
25
38
35
24
22
32
30
5
-25
-46
-40
-1
19
-5
-8
37
71
66
58
62
64
65
77
94
90
75
77
70
66
131
222
318
492
552
245
-129
-157
-5
35
19
32
37
35
41
47
62
71
59
59
79
89
92
111
138
165
200
238
265
284
304
310
287
246
211
171
114
66
44
26
7
-2
-21
-42
-17
32
47
79
177
287
428
645
812
935
1207
1428
1159
504
-60
-346
-458
-499
-519
-540
-556
-565
-580
-608
-634
-654
-699
-770
-822
-848
-878
-891
-854
-774
-663
-516
-341
-173
-58
-13
-11
-26
-49
-66
-62
-60
-81
-91
-71
-52
-53
-54
-52
-55
-47
-24
-13
-15
-9
-2
-7
-16
-13
8
33
36
23
51
130
168
130
100
108
89
54
61
83
88
97
73
31
104
247
341
528
732
491
-73
-279
-100
-16
-67
-65
-51
-64
-50
-25
-17
-2
21
35
46
68
96
120
151
194
245
295
337
359
363
357
341
293
215
135
72
20
-29
-66
-86
-89
-91
-99
-91
-59
-37
-34
-7
51
88
78
40
4
-18
-37
-45
-31
-35
-66
-51
-27
-58
-24
92
190
408
675
478
-92
-327
-187
-151
-217
-196
-185
-220
-207
-180
-200
-218
-210
-210
-219
-217
-196
-158
-104
-49
-4
50
117
163
169
157
140
96
24
-41
-80
-100
-103
-96
-102
-116
-120
-111
-95
-81
-78
-73
-42
6
31
17
-12
-32
-48
-62
-56
-48
-74
-91
-65
-62
-69
-13
74
228
470
451
8
-333
-249
-120
-175
-210
-161
-147
-170
-167
-153
-163
-175
-145
-96
-72
-58
-15
47
104
158
214
266
304
317
294
255
224
175
94
32
15
2
-13
-5
14
9
-11
-13
21
58
52
34
66
118
128
104
75
45
29
26
24
22
15
9
16
2
-6
48
118
267
535
548
118
-240
-206
-108
-127
-123
-108
-128
-121
-104
-128
-148
-136
-133
-140
-128
-109
-100
-80
-35
15
54
91
131
154
152
138
115
71
18
-16
-31
-44
-60
-69
-76
-90
-107
-110
-92
-69
-70
-80
-52
-5
-4
-45
-78
-89
-101
-113
-111
-115
-132
-118
-103
-136
-110
14
122
287
507
375
-127
-376
-226
-138
-197
-186
-151
-173
-174
-148
-157
-178
-166
-135
-110
-96
-80
-48
3
56
108
166
226
277
303
292
254
204
138
70
32
16
-7
-28
-17
15
36
46
76
186
431
719
937
1275
1849
2068
1381
316
-274
-391
-434
-459
-422
-416
-456
-476
-470
-472
-498
-531
-551
-568
-595
-612
-604
-572
-506
-386
-230
-78
50
150
198
179
137
121
111
80
47
29
21
14
12
21
26
10
-1
7
-1
-29
-47
-61
-76
-75
-84
-110
-112
-97
-106
-127
-132
-130
-129
-137
-154
-141
-72
1
16
-13
-38
-46
-48
-33
-8
-12
-13
8
-16
-20
102
234
387
706
790
265
-273
-269
-114
-153
-177
-122
-112
-119
-110
-114
-110
-89
-80
-77
-57
-33
-8
27
80
143
201
242
280
322
334
307
287
277
225
131
66
46
13
-36
-50
-48
-76
-99
-82
-55
-43
-37
-15
36
68
45
9
-5
-17
-27
-26
-30
-62
-90
-76
-78
-106
-55
42
150
408
607
289
-258
-387
-218
-179
-213
-183
-160
-152
-130
-133
-139
-114
-101
-106
-86
-55
-36
-1
45
83
136
205
251
268
268
252
225
173
96
35
-1
-36
-47
-26
-19
-19
2
18
74
265
504
702
1002
1371
1360
802
152
-199
-320
-368
-385
-405
-430
-436
-443
-470
-503
-531
-551
-570
-600
-626
-625
-596
-541
-447
-313
-164
-27
80
143
162
146
111
78
66
63
53
39
30
17
-1
-17
-22
-21
-29
-49
-63
-63
-70
-88
-96
-88
-83
-90
-92
-83
-82
-91
-101
-103
-83
-53
-49
-51
-10
43
49
27
8
-16
-32
-18
5
10
20
50
37
-10
37
151
224
363
507
275
-198
-330
-147
-85
-141
-130
-104
-103
-81
-64
-64
-42
-12
-3
10
37
55
76
117
156
189
242
297
321
335
351
342
303
257
208
147
82
36
24
21
-10
-50
-46
-4
44
120
227
374
643
999
1275
1521
1834
1868
1250
316
-291
-456
-489
-553
-588
-565
-550
-580
-611
-613
-627
-676
-717
-737
-768
-800
-796
-761
-705
-600
-435
-258
-120
-14
66
99
112
143
181
259
439
629
777
1078
1521
1606
1026
176
-372
-502
-476
-478
-490
-476
-466
-475
-486
-499
-525
-562
-599
-632
-670
-702
-684
-588
-453
-328
-219
-108
-4
66
98
104
95
81
75
72
68
59
49
54
74
78
62
62
74
71
64
65
67
67
68
62
62
86
113
112
102
108
112
98
92
102
96
73
63
73
97
107
84
73
104
116
98
103
114
93
73
65
50
41
40
31
26
25
19
40
90
106
80
65
51
27
41
75
68
60
75
59
74
184
304
475
707
621
106
-254
-174
-53
-91
-104
-75
-108
-144
-115
-87
-104
-115
-89
-62
-61
-54
-17
17
27
52
111
157
166
170
180
175
163
147
112
72
40
-3
-45
-59
-61
-69
-83
-105
-115
-106
-99
-86
-39
8
12
-12
-45
-90
-136
-162
-169
-156
-139
-142
-136
-110
-113
-116
-43
58
153
227
114
-188
-329
-204
-98
-112
-116
-107
-129
-144
-147
-157
-162
-158
-160
-153
-128
-105
-85
-50
2
63
127
185
226
252
261
234
171
98
35
-21
-78
-122
-131
-125
-139
-155
-140
-113
-101
-100
-96
-71
-21
12
-10
-60
-84
-90
-101
-95
-74
-71
-62
-47
-74
-65
63
190
286
408
307
-108
-354
-209
-56
-66
-63
-36
-55
-61
-34
-30
-47
-42
-28
-38
-45
-12
29
56
101
171
234
296
364
400
393
375
346
274
173
90
45
24
8
-13
-29
-33
-28
-5
32
62
117
240
402
604
840
995
1126
1464
1770
1478
677
4
-308
-431
-456
-439
-461
-488
-487
-498
-523
-551
-595
-626
-630
-671
-773
-850
-843
-809
-791
-733
-597
-428
-266
-137
-52
26
72
26
-36
-27
-13
-31
-36
-43
-55
-30
-6
-29
-35
-6
-17
-53
-33
6
-17
-59
-42
-11
-43
-81
-25
79
108
76
71
78
44
8
32
67
46
47
91
54
22
184
379
483
637
614
168
-206
-132
0
-36
-40
-8
-30
-43
-41
-56
-47
-23
-23
-30
-21
-2
28
68
123
190
251
298
333
360
377
359
290
207
144
82
15
-29
-44
-57
-78
-100
-107
-89
-73
-73
-61
-14
35
47
9
-46
-79
-98
-114
-108
-103
-131
-124
-89
-113
-98
29
122
266
562
541
8
-362
-251
-135
-192
-190
-141
-158
-176
-151
-126
-126
-127
-106
-86
-86
-66
-11
30
50
91
159
229
274
276
248
208
148
83
38
-6
-72
-113
-111
-110
-127
-141
-137
-109
-79
-84
-90
-48
-11
-32
-65
-69
-73
-85
-76
-58
-64
-61
-36
-46
-57
24
118
175
296
323
28
-285
-264
-136
-142
-160
-137
-155
-180
-173
-173
-174
-159
-157
-158
-128
-96
-86
-61
-16
31
91
164
214
233
240
233
208
162
92
21
-18
-35
-58
-80
-80
-82
-90
-60
-12
-10
-21
23
107
169
186
223
359
504
598
800
1082
1081
702
249
-71
-246
-289
-280
-302
-316
-294
-290
-313
-323
-329
-353
-382
-403
-422
-433
-431
-412
-370
-306
-215
-100
15
111
183
222
226
207
175
138
110
89
64
49
48
42
34
36
35
26
25
25
3
-22
-22
-1
13
19
36
62
77
62
24
4
15
15
-5
-22
-32
-17
-5
-44
-27
96
179
309
576
530
-6
-375
-261
-138
-206
-231
-196
-212
-235
-221
-200
-199
-210
-202
-173
-151
-121
-65
-19
15
78
157
226
291
336
337
316
284
225
141
47
-34
-75
-79
-84
-113
-138
-129
-102
-94
-84
-7
137
273
383
550
761
887
1031
1394
1651
1265
434
-166
-364
-428
-473
-475
-472
-489
-509
-527
-542
-564
-605
-637
-652
-698
-757
-778
-790
-796
-733
-611
-484
-327
-130
21
83
105
119
111
89
65
40
28
36
49
64
80
80
90
129
136
96
85
103
81
59
84
89
51
44
92
143
159
121
62
50
70
70
60
57
69
89
60
39
143
257
358
673
915
530
-86
-203
-34
-33
-75
-40
-40
-60
-48
-45
-50
-37
-26
-14
5
14
18
42
88
130
169
227
277
279
270
289
283
220
153
101
40
-10
-35
-66
-105
-121
-116
-93
-71
-88
-103
-52
8
-2
-46
-79
-114
-152
-164
-151
-160
-179
-151
-138
-179
-151
-61
18
244
502
308
-205
-392
-255
-213
-258
-238
-223
-233
-219
-212
-224
-225
-226
-228
-202
-163
-139
-116
-83
-40
16
68
98
125
156
161
129
77
20
-30
-58
-74
-78
-67
-65
-82
-84
-57
-32
-25
-18
11
55
79
62
30
20
26
21
11
9
19
41
45
8
15
101
174
295
480
396
-12
-241
-127
-30
-53
-44
-19
-25
-21
-16
-24
-21
-9
-3
-1
5
29
67
101
132
172
216
256
283
294
294
287
258
206
151
109
79
62
51
34
15
6
12
34
45
29
27
66
88
53
5
-20
-38
-50
-45
-56
-88
-83
-73
-112
-101
-9
93
310
569
407
-126
-374
-236
-161
-219
-222
-196
-193
-182
-172
-176
-182
-182
-171
-159
-156
-132
-86
-49
-10
46
92
127
164
176
159
136
91
21
-35
-78
-126
-146
-128
-129
-157
-164
-141
-122
-130
-146
-116
-49
-26
-58
-83
-97
-126
-140
-115
-101
-110
-89
-75
-120
-81
94
205
247
299
123
-260
-363
-173
-103
-139
-92
-65
-99
-83
-54
-77
-87
-52
-24
-16
1
42
82
106
147
223
291
329
357
369
340
280
213
143
73
16
-17
-30
-36
-49
-71
-81
-64
-45
-53
-66
-38
23
57
35
-11
-44
-61
-68
-52
-37
-53
-44
-3
-26
-36
82
185
272
503
565
160
-226
-186
-61
-93
-103
-65
-83
-102
-83
-81
-99
-92
-69
-65
-65
-43
-18
5
50
99
131
167
202
202
183
169
135
69
10
-18
-35
-62
-84
-87
-90
-106
-96
-54
-46
-85
-87
-24
40
58
26
-32
-59
-41
-21
-19
-28
-26
-2
0
-9
48
125
234
471
576
239
-174
-212
-91
-95
-131
-125
-127
-130
-135
-156
-158
-138
-133
-135
-118
-92
-61
-24
11
50
109
172
207
217
220
204
165
132
98
44
6
3
-4
-19
-15
-19
-39
-34
-7
-15
-52
-53
-21
-36
-103
-133
-121
-147
-193
-186
-171
-199
-218
-220
-240
-234
-160
-58
