# session 40
171
194
230
270
307
352
405
446
464
467
448
394
315
247
197
148
103
78
67
57
54
51
41
36
44
50
63
94
138
217
343
486
668
903
1055
1061
990
737
286
-7
-52
-208
-476
-518
-398
-384
-434
-438
-445
-476
-495
-515
-544
-560
-576
-605
-621
-611
-576
-514
-426
-312
-178
-48
57
138
185
188
160
121
79
35
-9
-46
-62
-67
-72
-71
-70
-82
-90
-77
-62
-62
-67
-73
-83
-82
-81
-98
-108
-92
-96
-120
-113
-91
-105
-139
-144
-110
-86
-111
-149
-150
-134
-131
-141
-150
-138
-93
-32
17
29
-4
-49
-52
-28
-26
-28
-16
-20
-13
17
-10
-7
158
341
514
782
746
141
-350
-261
-88
-141
-168
-123
-139
-164
-150
-144
-143
-124
-99
-83
-72
-50
-20
2
25
66
118
167
212
262
322
375
403
405
391
363
324
273
199
122
85
60
17
-10
-5
-2
1
10
3
-10
1
15
-4
-36
-40
-14
5
-11
-32
2
84
145
167
202
252
306
429
600
681
772
1124
1502
1353
690
72
-221
-330
-383
-390
-378
-373
-372
-378
-391
-397
-399
-418
-449
-474
-500
-534
-572
-612
-637
-634
-618
-581
-492
-369
-256
-153
-45
50
98
96
71
44
13
-18
-41
-57
-68
-67
-63
-64
-53
-40
-55
-71
-55
-40
-51
-66
-67
-58
-49
-48
-53
-59
-61
-51
-35
-29
-17
34
99
123
105
79
58
49
52
53
58
56
36
30
32
5
18
122
245
402
535
337
-124
-311
-140
-22
-51
-55
-27
-19
-15
-18
-21
-4
12
11
19
39
50
53
65
89
122
163
202
240
285
322
335
347
365
351
292
221
149
81
29
-11
-49
-71
-71
-76
-94
-90
-65
-60
-73
-79
-84
-93
-90
-79
-79
-79
-69
-58
-35
-5
-5
-34
-59
-74
-88
-95
-94
-79
-63
-74
-71
-32
-38
-52
52
187
292
464
468
58
-329
-281
-113
-120
-145
-115
-121
-133
-108
-105
-139
-146
-118
-101
-103
-96
-79
-66
-43
-13
11
36
84
155
226
267
280
280
262
198
101
12
-49
-95
-132
-158
-169
-164
-155
-159
-168
-162
-141
-119
-104
-90
-86
-106
-132
-123
-97
-93
-98
-74
-28
4
-7
-47
-73
-74
-74
-75
-59
-49
-66
-56
5
8
-32
69
253
404
700
931
531
-172
-350
-127
-60
-105
-80
-73
-90
-63
-44
-71
-87
-61
-33
-34
-36
-18
-4
-6
8
60
123
180
250
318
347
368
398
373
284
198
126
42
-30
-70
-93
-110
-120
-122
-122
-124
-129
-128
-119
-108
-103
-107
-119
-135
-129
-89
-68
-104
-125
-68
9
32
13
-14
-38
-49
-51
-56
-50
-40
-52
-52
-39
-71
-55
100
252
404
648
595
26
-418
-335
-173
-197
-203
-165
-180
-194
-182
-181
-174
-156
-154
-160
-147
-125
-106
-83
-49
-10
34
88
150
221
288
325
334
330
302
231
133
45
-16
-59
-85
-96
-103
-110
-116
-128
-138
-127
-105
-100
-105
-99
-86
-86
-104
-110
-87
-60
-60
-64
-26
43
69
35
-1
-16
-23
-11
-2
-8
2
17
20
42
36
-2
76
231
366
661
949
652
-7
-235
-79
-52
-107
-69
-46
-74
-77
-72
-70
-47
-28
-34
-40
-31
-14
-3
0
19
68
119
154
201
268
311
317
314
307
264
187
110
39
-26
-66
-85
-122
-176
-209
-213
-214
-216
-210
-199
-184
-169
-159
-155
-154
-152
-151
-151
-139
-114
-108
-126
-108
-43
-12
-45
-83
-103
-119
-117
-111
-122
-119
-106
-118
-127
-125
-143
-101
37
173
311
396
175
-242
-378
-209
-103
-127
-127
-103
-105
-105
-84
-65
-58
-51
-38
-18
10
41
61
70
82
108
146
190
235
281
321
339
335
318
283
217
133
62
13
-21
-42
-51
-57
-59
-50
-35
-32
-34
-27
-19
-18
-13
-5
-2
5
7
-15
-38
-25
7
19
3
2
54
113
107
61
38
30
22
17
-2
-26
-34
-42
-40
-28
-58
-54
61
162
301
606
650
117
-376
-326
-141
-163
-208
-179
-169
-176
-161
-139
-126
-112
-105
-115
-120
-93
-63
-52
-28
21
63
97
157
233
295
348
387
395
367
313
240
154
64
-8
-44
-65
-94
-113
-111
-124
-154
-154
-135
-149
-180
-175
-154
-159
-163
-153
-166
-195
-200
-184
-169
-165
-176
-163
-92
-26
-27
-48
-53
-72
-98
-89
-58
-46
-68
-82
-46
-32
-82
-25
174
322
521
824
695
29
-366
-212
-86
-161
-169
-126
-144
-161
-150
-145
-141
-131
-117
-98
-83
-65
-40
-22
2
50
97
136
191
262
328
376
399
394
368
313
227
131
57
24
-4
-54
-87
-85
-90
-98
-83
-77
-95
-90
-63
-60
-74
-77
-83
-92
-91
-99
-121
-124
-110
-109
-112
-105
-73
-5
80
164
253
356
456
502
451
339
232
217
394
590
428
-20
-279
-268
-260
-295
-281
-261
-268
-271
-273
-274
-271
-286
-307
-309
-309
-315
-311
-301
-288
-267
-250
-229
-183
-136
-99
-57
-30
-35
-29
-6
-4
-24
-44
-55
-56
-62
-73
-59
-28
-4
40
108
196
377
618
784
989
1354
1497
1055
363
-68
-209
-260
-291
-307
-320
-325
-317
-316
-333
-349
-349
-347
-346
-350
-369
-378
-348
-303
-277
-238
-158
-60
49
169
269
337
406
459
489
583
733
833
979
1252
1334
945
348
-61
-230
-280
-289
-298
-315
-319
-310
-317
-347
-375
-392
-423
-480
-527
-553
-582
-603
-582
-518
-422
-304
-196
-113
-42
18
57
77
76
57
41
44
58
65
58
58
68
66
49
48
58
53
37
30
31
29
22
18
24
37
45
44
52
61
41
8
-2
8
19
19
8
12
55
97
95
69
48
29
17
18
14
7
3
-12
-18
3
-13
-52
16
153
270
440
498
131
-354
-421
-228
-179
-221
-208
-197
-213
-223
-218
-190
-164
-175
-183
-135
-81
-81
-87
-43
13
47
88
147
196
237
279
301
296
288
275
230
154
84
38
6
-19
-27
-27
-31
-25
10
48
66
107
193
277
406
662
916
1058
1255
1431
1144
433
-121
-299
-341
-370
-351
-314
-302
-319
-361
-404
-429
-453
-483
-518
-564
-613
-643
-656
-662
-642
-571
-458
-324
-185
-54
65
159
203
192
156
118
79
54
53
56
59
69
60
32
45
82
67
37
56
68
39
28
41
28
1
2
16
19
18
19
19
26
30
16
-2
-4
0
-8
-19
-19
-19
-30
-35
-21
-8
-16
-29
-29
-24
-24
-27
-25
-20
-22
-36
-55
-64
-50
-27
-41
-76
-56
16
51
33
10
-8
-28
-48
-71
-69
-41
-42
-48
-36
-78
-87
77
264
399
587
534
18
-386
-283
-118
-162
-169
-101
-116
-163
-150
-128
-138
-140
-111
-93
-105
-97
-42
9
25
39
82
138
189
241
289
313
316
304
275
241
206
151
81
27
-12
-47
-67
-66
-66
-67
-60
-55
-35
22
69
94
160
272
417
623
819
968
1204
1405
1183
579
67
-148
-208
-234
-257
-304
-357
-375
-365
-372
-398
-422
-442
-457
-467
-498
-544
-568
-577
-573
-517
-423
-335
-240
-127
-24
56
106
107
71
29
-2
-8
-1
-4
-10
-10
-14
-21
-25
-27
-29
-27
-27
-29
-28
-22
-15
-15
-20
-18
-7
-6
-19
-24
-21
-25
-27
-18
-16
-25
-25
-15
-12
-16
-25
-40
-45
-36
-41
-59
-70
-76
-88
-97
-93
-86
-92
-101
-76
-28
-7
-3
8
-11
-49
-45
-17
-10
-7
3
20
37
14
-3
97
258
411
558
472
32
-309
-226
-53
-52
-70
-38
-32
-34
-21
-23
-22
-5
1
-9
-10
-1
6
7
18
46
84
119
157
207
257
290
312
327
322
295
265
235
186
125
80
55
38
24
13
8
2
-7
5
34
29
9
35
59
14
-32
-10
31
70
133
210
332
550
746
823
951
1194
1228
844
290
-116
-308
-369
-394
-418
-429
-438
-460
-475
-479
-492
-514
-544
-580
-606
-627
-665
-700
-707
-706
-700
-650
-547
-425
-302
-176
-56
37
88
101
92
73
44
13
1
10
14
5
5
19
34
42
37
30
45
58
39
24
38
29
-7
-13
13
26
19
7
-8
-19
-21
-20
-25
-41
-48
-29
-18
-41
-43
21
100
118
82
54
58
66
47
25
44
65
36
23
61
33
-2
144
352
500
715
750
260
-265
-248
-24
-25
-94
-78
-68
-75
-69
-80
-101
-93
-74
-75
-78
-59
-26
9
38
60
99
170
244
310
383
445
475
482
466
414
341
263
182
99
34
-8
-42
-81
-110
-112
-102
-103
-105
-107
-119
-119
-109
-121
-152
-168
-161
-155
-175
-192
-147
-63
-22
-38
-74
-107
-118
-105
-97
-110
-112
-102
-91
-74
-84
-104
-2
184
308
449
521
178
-333
-406
-179
-124
-174
-139
-111
-126
-108
-86
-96
-99
-77
-64
-59
-30
0
-25
-88
-111
-67
10
94
182
263
321
350
352
328
270
171
53
-44
-104
-135
-160
-205
-247
-238
-197
-183
-187
-167
-151
-166
-165
-132
-131
-169
-173
-142
-138
-153
-130
-67
-8
6
-24
-59
-77
-87
-83
-58
-24
-7
-17
-13
9
-17
-21
107
247
401
706
765
208
-347
-310
-101
-111
-134
-82
-82
-90
-57
-39
-40
-20
9
24
29
42
62
81
104
136
168
209
276
345
387
417
450
456
420
358
273
170
86
35
-3
-34
-60
-98
-120
-100
-86
-111
-130
-128
-135
-136
-113
-106
-125
-134
-126
-119
-115
-95
-47
-6
-15
-50
-73
-85
-94
-92
-79
-64
-67
-85
-75
-58
-99
-106
7
123
234
419
392
-31
-376
-299
-126
-116
-134
-105
-96
-106
-104
-94
-93
-89
-64
-45
-48
-40
-22
-24
-12
31
63
87
131
176
217
263
276
258
259
232
122
14
-38
-90
-139
-145
-149
-169
-166
-151
-140
-119
-100
-90
-71
-72
-101
-111
-101
-98
-85
-62
-56
-38
14
55
54
34
16
7
13
24
19
12
13
0
-14
-6
-24
-58
-4
106
203
363
434
135
-264
-295
-110
-58
-78
-49
-32
-37
-24
-12
-12
-4
17
29
14
1
21
59
78
87
121
168
197
220
263
310
339
352
341
296
224
136
53
-10
-58
-94
-112
-122
-127
-125
-130
-141
-132
-117
-123
-130
-123
-123
-140
-157
-152
-123
-103
-107
-92
-44
-22
-47
-75
-89
-97
-93
-87
-84
-65
-46
-53
-40
-17
-44
-25
107
217
332
526
458
-8
-322
-215
-84
-100
-91
-64
-80
-88
-87
-99
-94
-88
-101
-103
-82
-60
-45
-40
-39
-22
22
87
153
202
244
289
319
322
289
213
121
50
-10
-67
-103
-114
-119
-135
-153
-154
-139
-130
-129
-120
-101
-82
-71
-72
-85
-95
-82
-63
-61
-67
-48
-5
26
19
-18
-51
-52
-40
-61
-84
-47
-11
-38
-29
16
-27
-18
175
349
551
915
894
210
-305
-191
-30
-104
-126
-69
-75
-101
-99
-96
-96
-88
-78
-78
-88
-76
-43
-27
-23
5
49
92
148
216
276
330
367
362
311
225
124
43
-8
-56
-109
-137
-139
-138
-144
-149
-150
-152
-153
-144
-129
-130
-135
-130
-136
-153
-144
-115
-111
-126
-113
-67
-21
3
3
-20
-48
-51
-38
-43
-52
-35
-22
-27
-17
-39
-69
45
219
334
593
829
466
-226
-423
-208
-152
-222
-193
-151
-169
-182
-164
-149
-153
-159
-139
-104
-83
-73
-56
-32
0
51
107
143
182
254
325
353
353
346
306
218
121
51
0
-46
-82
-98
-110
-123
-120
-110
-112
-106
-86
-85
-104
-104
-82
-77
-97
-117
-110
-88
-74
-60
-31
7
42
61
52
24
4
-1
-2
-4
3
10
-1
8
42
9
-37
62
205
324
617
839
460
-158
-289
-122
-131
-182
-118
-92
-129
-140
-135
-137
-133
-117
-96
-89
-86
-65
-52
-56
-26
25
54
92
158
207
234
263
281
266
218
149
78
19
-37
-82
-96
-92
-94
-96
-85
-73
-70
-68
-56
-45
-48
-52
-45
-41
-54
-69
-75
-74
-68
-55
-48
-61
-59
-14
26
12
-29
-64
-93
-102
-88
-81
-87
-102
-114
-98
-85
-116
-99
14
125
256
378
198
-237
-412
-236
-112
-137
-130
-92
-87
-75
-60
-76
-82
-61
-58
-55
-22
-1
-8
12
63
99
125
168
219
263
303
334
341
328
297
239
160
84
20
-33
-71
-93
-105
-109
-108
-106
-104
-93
-76
-64
-54
-33
-13
-6
3
20
42
76
117
177
273
338
378
549
824
1026
1158
1048
365
-503
-804
-617
-455
-359
-252
-234
-276
-281
-282
-309
-333
-347
-357
-357
-352
-347
-346
-349
-342
-309
-263
-217
-159
-79
9
87
141
163
155
126
85
47
13
-18
-25
-11
-4
38
144
247
387
662
926
1082
1354
1660
1473
781
159
-155
-326
-399
-381
-383
-422
-435
-441
-474
-512
-544
-591
-647
-709
-787
-863
-904
-911
-891
-829
-711
-547
-360
-169
26
211
344
384
336
253
188
158
142
102
48
29
43
45
37
41
41
34
50
62
32
26
64
52
56
219
412
554
723
642
115
-297
-201
-20
-39
-58
-26
-37
-52
-48
-55
-51
-25
-8
0
17
50
85
114
147
202
270
331
395
455
485
490
492
459
372
274
190
105
29
-8
-12
-17
-41
-56
-38
-21
-35
-55
-54
-51
-67
-86
-91
-96
-110
-110
-79
-38
-8
5
-14
-63
-91
-74
-66
-85
-84
-72
-97
-112
-100
-132
-143
-39
78
228
501
514
6
-450
-405
-241
-260
-283
-244
-245
-267
-265
-258
-249
-236
-229
-224
-214
-206
-199
-185
-171
-154
-118
-72
-40
-19
-4
-2
