# session 22
11
14
16
28
45
47
52
89
137
175
221
268
292
303
307
276
210
140
71
1
-50
-74
-93
-123
-146
-150
-150
-134
-95
-69
-73
-61
-3
78
159
223
261
331
473
600
662
841
1243
1542
1328
677
46
-281
-375
-397
-412
-423
-426
-428
-445
-478
-513
-542
-572
-609
-651
-685
-700
-697
-682
-640
-556
-427
-275
-132
-23
43
70
69
60
45
18
-2
4
15
8
6
27
47
45
41
49
40
14
8
26
48
73
85
76
96
149
162
133
115
95
65
70
84
55
40
52
25
29
128
225
335
475
343
-97
-329
-188
-66
-87
-77
-45
-52
-47
-29
-30
-26
-13
-9
3
28
39
39
63
111
151
186
235
279
288
282
278
243
166
95
51
7
-37
-65
-84
-104
-115
-119
-116
-99
-77
-66
-63
-51
-22
-9
-50
-102
-110
-106
-113
-101
-92
-95
-78
-86
-118
-57
58
135
263
322
28
-363
-395
-228
-189
-209
-180
-163
-159
-145
-138
-131
-111
-91
-69
-47
-25
10
55
94
137
192
242
268
268
253
236
208
141
52
-15
-49
-78
-105
-113
-108
-109
-115
-115
-97
-63
-46
-42
1
88
177
258
337
432
585
753
869
1042
1363
1510
1109
381
-142
-326
-370
-383
-377
-383
-406
-423
-433
-449
-476
-509
-548
-590
-635
-677
-708
-722
-709
-654
-553
-421
-274
-124
10
102
148
155
131
108
104
96
79
65
57
71
99
81
41
55
67
19
-10
8
10
8
18
5
12
96
186
196
129
37
-15
3
32
10
1
38
8
-39
97
288
371
571
760
397
-242
-392
-178
-126
-180
-153
-132
-134
-113
-115
-136
-122
-92
-81
-71
-48
-22
10
53
104
167
238
287
302
297
273
217
137
53
-21
-75
-112
-141
-161
-166
-164
-166
-163
-140
-105
-77
-65
-50
-7
52
73
36
-9
-32
-54
-59
-43
-53
-52
-11
-30
-53
78
213
285
499
585
154
-302
-268
-116
-155
-164
-105
-110
-124
-114
-132
-129
-75
-45
-62
-65
-32
8
42
81
136
204
265
303
320
308
258
190
122
44
-36
-82
-93
-103
-113
-112
-106
-108
-117
-119
-102
-79
-74
-64
17
154
259
357
526
686
770
943
1254
1353
957
303
-182
-380
-431
-446
-446
-448
-472
-508
-523
-512
-520
-573
-624
-629
-626
-664
-711
-711
-663
-585
-475
-342
-213
-94
15
94
121
108
88
79
69
53
32
19
36
74
83
51
33
53
72
64
57
73
87
73
41
36
66
84
65
69
126
168
151
123
108
85
65
70
72
70
96
93
46
94
230
307
403
502
281
-153
-274
-89
0
-26
-12
4
-6
1
9
4
10
19
17
24
42
45
38
51
86
130
179
217
234
240
232
204
161
100
31
-24
-66
-105
-123
-119
-113
-105
-90
-84
-84
-64
-32
-20
-23
0
44
65
49
17
-16
-42
-47
-42
-58
-82
-74
-81
-134
-117
-13
62
138
184
-61
-476
-578
-388
-297
-321
-294
-258
-267
-271
-264
-261
-244
-212
-174
-124
-67
-15
30
72
126
196
263
309
336
351
353
334
284
197
102
48
38
18
-23
-34
-8
3
-15
-36
-43
-24
22
56
78
164
307
424
549
735
878
964
1199
1562
1612
1089
328
-190
-377
-416
-435
-462
-478
-465
-461
-499
-548
-586
-629
-668
-703
-757
-816
-846
-855
-832
-735
-600
-480
-330
-132
21
83
109
126
120
96
71
66
67
44
34
63
62
18
24
71
66
39
67
90
45
-5
-7
9
15
-3
-33
-28
33
100
121
98
65
36
17
27
41
31
41
64
33
52
217
366
502
738
684
113
-318
-201
-27
-82
-110
-60
-65
-87
-82
-83
-91
-87
-75
-61
-45
-26
1
36
82
145
218
273
304
333
354
329
257
179
111
42
-17
-51
-70
-82
-90
-99
-101
-86
-75
-74
-52
-22
-31
-53
-17
60
81
13
-60
-87
-102
-95
-73
-105
-136
-94
-107
-161
-31
156
250
553
881
539
-178
-381
-188
-167
-241
-212
-180
-183
-173
-168
-168
-165
-171
-161
-124
-95
-80
-55
-21
25
94
168
215
234
238
222
173
95
15
-47
-95
-135
-152
-143
-138
-142
-134
-119
-116
-111
-95
-68
-22
55
147
257
448
696
829
857
1026
1250
1106
571
57
-245
-407
-458
-450
-462
-480
-491
-529
-563
-573
-618
-681
-709
-735
-778
-797
-796
-790
-737
-613
-447
-271
-109
33
149
204
195
180
177
161
148
157
166
159
154
154
157
162
148
122
120
134
131
146
206
242
218
186
163
125
102
117
125
105
96
129
171
171
138
120
115
97
88
95
92
95
112
95
95
183
294
428
597
517
92
-212
-156
-48
-42
-28
-20
-50
-59
-55
-69
-75
-70
-71
-64
-47
-30
-9
13
28
59
105
137
163
195
199
164
125
86
21
-46
-85
-113
-148
-164
-159
-156
-158
-156
-152
-149
-149
-137
-103
-80
-85
-69
-13
18
-11
-57
-76
-75
-81
-86
-80
-69
-54
-58
-87
-33
105
203
375
630
477
-142
-477
-296
-138
-176
-178
-154
-184
-192
-166
-155
-151
-134
-118
-104
-85
-60
-33
6
66
127
166
219
300
329
283
236
193
97
-11
-69
-108
-136
-129
-122
-148
-167
-147
-123
-125
-115
-75
-53
-78
-99
-75
-17
43
62
25
-26
-68
-101
-88
-41
-46
-82
-71
-68
-75
41
199
297
521
700
335
-278
-410
-193
-123
-154
-139
-143
-137
-94
-89
-96
-70
-74
-99
-59
-3
-8
0
82
164
199
232
284
337
360
318
228
147
73
-12
-68
-80
-98
-130
-147
-155
-157
-130
-112
-137
-148
-98
-50
-61
-76
-27
43
73
66
41
10
-6
-2
8
2
-19
-3
19
-24
1
171
293
439
768
787
190
-300
-216
-51
-82
-80
-32
-40
-38
-4
13
24
39
54
68
78
97
135
168
202
265
329
376
425
452
431
379
297
180
70
-9
-64
-91
-109
-150
-195
-212
-205
-205
-242
-282
-272
-241
-249
-285
-308
-297
-252
-203
-204
-254
-297
-315
-322
-314
-311
-331
-318
-288
-321
-324
-215
-105
98
486
537
-28
-501
-413
-230
-255
-275
-232
-229
-229
-197
-166
-138
-102
-71
-37
8
50
82
108
127
150
204
279
332
350
353
350
333
290
232
176
134
114
112
100
87
95
100
92
105
113
72
34
57
98
106
98
101
117
129
114
78
41
12
8
28
22
-16
-14
23
-4
-54
5
110
233
518
720
396
-152
-300
-150
-113
-163
-156
-141
-150
-141
-120
-110
-105
-97
-88
-79
-65
-47
-27
0
38
76
112
149
180
188
173
142
92
25
-40
-88
-122
-145
-149
-147
-154
-159
-150
-138
-132
-136
-151
-155
-139
-127
-116
-96
-94
-101
-73
-32
-34
-70
-108
-148
-176
-171
-157
-159
-137
-91
-106
-118
-1
151
290
480
430
-56
-448
-349
-143
-134
-141
-83
-52
-50
-46
-39
-26
-14
-11
-2
15
32
46
61
89
147
235
317
364
388
401
377
310
237
167
92
32
-5
-27
-31
-25
-27
-28
-21
-21
-14
22
63
106
188
325
524
765
953
1126
1469
1825
1677
934
139
-290
-438
-491
-509
-531
-570
-588
-581
-585
-614
-659
-704
-753
-821
-883
-897
-882
-876
-836
-704
-518
-335
-158
-18
50
80
82
54
35
26
0
-8
7
1
-4
17
29
18
14
22
24
23
33
43
28
16
40
54
35
28
49
65
58
40
39
56
59
36
22
33
31
1
-4
56
125
139
109
82
70
58
55
57
34
22
50
46
54
194
357
496
733
761
245
-286
-272
-68
-72
-113
-79
-76
-93
-80
-64
-54
-41
-37
-35
-18
1
14
39
82
125
173
230
275
299
310
305
277
226
159
87
22
-30
-69
-92
-98
-99
-108
-114
-105
-87
-65
-47
-51
-65
-58
-35
-43
-91
-112
-58
6
5
-29
-44
-55
-68
-75
-93
-116
-102
-59
-77
-136
-87
45
187
464
673
338
-268
-437
-262
-228
-280
-238
-204
-228
-231
-203
-180
-169
-164
-147
-123
-109
-85
-30
19
41
87
174
237
242
241
254
232
154
58
-8
-44
-83
-125
-134
-113
-105
-110
-104
-84
-62
-51
-58
-60
-43
-25
-22
-30
-36
-12
47
89
73
29
0
-8
-10
-10
-13
-20
-15
-9
-31
-27
60
156
264
426
377
-28
-339
-266
-131
-118
-97
-75
-91
-68
-31
-32
-29
-9
3
20
37
49
76
112
136
165
214
259
286
301
299
271
221
161
97
34
-23
-59
-73
-79
-85
-76
-60
-59
-55
-28
-8
-20
-44
-43
-9
25
22
7
32
82
104
90
58
25
-4
-16
-6
-11
-44
-42
-26
-80
-100
14
118
216
386
302
-172
-480
-346
-188
-214
-232
-203
-202
-207
-201
-197
-188
-170
-142
-116
-108
-101
-62
-11
22
65
141
211
251
274
280
257
206
131
45
-28
-79
-111
-127
-137
-151
-153
-143
-134
-118
-86
-69
-89
-102
-86
-72
-64
-46
-34
-16
41
86
54
-3
-9
3
-13
-22
-19
-28
-5
22
-9
39
209
326
505
775
583
-100
-430
-231
-112
-168
-138
-91
-109
-112
-97
-93
-81
-69
-57
-38
-26
-4
58
122
146
190
295
390
436
449
416
333
236
131
32
-32
-109
-223
-283
-250
-219
-218
-189
-156
-161
-145
-81
-53
-87
-92
-46
-36
-78
-64
40
111
77
27
37
47
5
-18
13
12
8
54
-34
-270
-307
-102
134
415
508
56
-476
-485
-273
-244
-251
-211
-213
-206
-152
-118
-125
-135
-124
-104
-91
-60
-5
45
94
158
226
299
369
394
372
339
292
206
106
42
12
-22
-59
-75
-76
-77
-61
-24
22
84
167
251
384
638
917
1111
1367
1743
1844
1333
516
-70
-316
-415
-472
-492
-501
-521
-551
-579
-600
-627
-669
-716
-770
-831
-885
-916
-896
-806
-674
-523
-348
-171
-40
32
70
98
94
48
3
-21
-63
-114
-125
-116
-123
-138
-153
-164
-148
-116
-88
-52
-15
-16
-40
-43
-26
-27
-51
-77
-116
-168
-194
-191
-212
-237
-207
-146
-105
-83
-64
-15
73
131
179
385
741
962
806
311
-238
-524
-472
-263
-79
46
141
201
216
212
213
216
219
216
212
223
240
254
281
330
391
469
569
662
728
770
768
710
647
605
543
458
387
331
287
254
204
151
131
120
105
113
128
106
71
64
72
70
64
63
54
43
49
59
52
39
17
-38
-153
-343
-532
-599
-599
-673
-776
-797
-768
-761
-779
-800
-811
-815
-817
-786
-721
-648
-551
-462
-431
-351
-159
25
211
379
206
-272
-472
-279
-142
-161
-131
-86
-96
-81
-37
-34
-42
-18
6
13
36
68
74
82
130
194
240
279
322
353
348
311
270
227
166
102
61
33
10
-2
-6
-5
2
11
21
33
39
36
23
4
-2
11
19
4
-7
21
66
76
48
22
13
8
8
26
43
53
93
122
96
129
261
375
539
725
537
9
-224
-41
85
46
49
89
85
68
66
77
91
97
100
99
95
99
113
128
163
218
270
324
386
417
401
368
315
220
110
29
-22
-64
-97
-102
-86
-83
-112
-135
-124
-106
-112
-127
-149
-174
-174
-179
-238
-290
-265
-230
-248
-279
-302
-341
-372
-369
-359
-361
-361
-328
-288
-307
-290
-107
91
245
496
519
-27
-541
-472
-262
-273
-274
-197
-176
-178
-163
-144
-95
-49
-61
-80
-47
7
54
90
104
142
251
362
401
402
398
374
318
225
126
66
15
-55
-82
-54
-57
-96
-97
-61
-33
-20
-22
-37
-48
-56
-66
-72
-90
-117
-86
10
74
65
34
24
22
15
30
59
60
74
106
67
64
235
391
525
859
978
421
-182
-183
18
19
-21
-15
-7
33
50
7
0
41
54
39
20
-15
-42
-25
13
46
72
90
107
105
48
-34
-78
-104
-189
-333
-446
-451
-384
-344
-351
-345
-304
-266
-248
-225
-198
-191
-192
-172
-145
-147
-162
-130
-50
10
14
-13
-34
-45
-53
-41
-20
-29
-27
17
-2
-44
78
252
367
651
881
486
-168
-293
-80
-61
-127
-84
-53
-76
-72
-49
-50
-61
-54
-44
-46
-22
33
71
86
116
165
218
268
301
319
319
269
181
104
46
-9
-48
-64
-77
-87
-77
-57
-45
-40
-35
-35
-47
-64
-70
-69
-75
-79
-81
-104
-132
-122
-90
-96
-145
-192
-226
-244
-216
-141
-90
-76
-39
-14
-29
38
181
285
451
618
403
-63
-211
-53
19
0
34
68
74
90
103
113
138
142
123
143
195
207
189
200
217
203
192
214
231
222
199
156
99
43
-23
-99
-150
-172
-192
-201
-201
-218
-236
-232
-220
-182
-96
-24
45
236
475
611
765
933
760
247
-143
-272
-351
-421
-435
-446
-477
-496
-507
-517
-523
-544
-579
-605
-621
-646
-667
-654
-596
-492
-347
-179
-12
125
220
288
319
275
204
189
192
156
130
132
112
90
109
126
105
85
92
100
90
71
62
71
84
85
77
81
96
98
89
91
112
128
122
107
108
123
124
106
85
76
76
85
78
44
30
84
151
156
134
145
159
192
317
502
611
499
88
-431
-705
-659
-501
-357
-221
-113
-64
-61
-72
-84
-87
-77
-70
-70
-66
-60
-49
-20
7
23
58
139
236
309
372
423
437
424
389
294
173
98
42
-43
-115
-147
-172
-196
-198
-185
-190
-220
-222
-180
-170
-200
-186
-147
-163
-198
-196
-176
-148
-123
-140
-155
-105
