# session 115
-14
-29
-28
-12
1
-4
-9
8
37
65
87
101
122
166
203
226
275
355
409
421
429
437
412
363
310
235
148
94
78
72
56
35
39
80
115
115
109
125
156
168
144
103
74
63
52
36
18
12
22
12
-13
24
106
188
306
321
48
-252
-236
-87
-72
-96
-67
-69
-108
-116
-93
-82
-93
-105
-99
-78
-57
-38
-13
21
67
121
181
228
242
244
247
216
137
55
-8
-71
-123
-135
-128
-146
-177
-183
-164
-146
-147
-151
-123
-80
-80
-125
-156
-159
-162
-167
-168
-161
-144
-153
-196
-159
-25
49
133
353
330
-143
-481
-352
-197
-229
-229
-193
-207
-199
-167
-177
-198
-184
-148
-115
-91
-58
-22
-8
24
122
227
282
312
347
374
362
284
161
50
-22
-59
-72
-81
-109
-137
-128
-83
-55
-31
71
227
375
579
827
961
1092
1418
1607
1210
465
-88
-336
-441
-479
-493
-502
-487
-478
-515
-564
-590
-607
-634
-675
-721
-754
-783
-814
-802
-709
-564
-399
-223
-70
36
134
220
221
165
160
188
168
133
130
124
112
125
139
126
117
127
120
105
110
106
77
64
61
39
38
100
166
164
115
78
62
63
87
97
74
71
72
44
103
253
355
558
874
740
83
-299
-153
-34
-104
-115
-75
-77
-82
-82
-89
-71
-41
-36
-25
6
18
23
61
110
164
239
292
297
301
308
286
234
150
63
16
-29
-104
-138
-122
-142
-177
-141
-82
-78
-65
15
96
127
133
170
283
441
604
826
1106
1214
910
304
-224
-466
-524
-552
-569
-554
-538
-550
-560
-557
-571
-604
-627
-647
-678
-699
-694
-676
-645
-569
-450
-322
-193
-75
2
48
85
67
3
-24
-25
-49
-62
-47
-50
-56
-41
-36
-43
-37
-33
-37
-22
-7
-8
5
41
67
62
38
18
10
8
16
27
25
35
61
54
58
145
245
337
446
370
33
-185
-88
32
21
12
29
22
22
44
56
51
45
53
69
86
108
137
171
219
287
356
412
453
474
463
425
376
325
263
193
132
85
45
18
8
12
24
27
12
19
72
108
98
122
220
318
412
560
709
829
1020
1186
1004
464
-46
-296
-379
-413
-427
-442
-449
-439
-448
-488
-525
-543
-568
-608
-645
-683
-733
-765
-764
-745
-691
-571
-421
-291
-172
-54
23
41
25
-7
-43
-58
-59
-69
-77
-70
-65
-66
-62
-64
-71
-58
-41
-45
-31
19
47
27
-5
-34
-54
-34
9
7
-12
22
32
-13
58
209
262
396
628
449
-103
-320
-139
-60
-106
-74
-38
-57
-60
-48
-40
-16
9
11
0
-3
21
68
111
152
202
252
300
350
385
385
332
245
165
90
14
-35
-68
-105
-116
-100
-103
-111
-84
-34
17
67
125
190
245
318
455
612
760
968
1206
1258
961
414
-88
-338
-404
-444
-483
-489
-484
-491
-503
-508
-511
-534
-583
-621
-636
-650
-646
-608
-555
-482
-370
-247
-129
-7
81
115
120
103
73
63
53
10
-13
12
23
15
36
55
28
4
27
56
59
58
67
89
121
127
97
72
66
62
69
79
79
104
122
81
78
181
302
448
584
428
29
-150
-54
1
-5
27
15
-36
-37
-20
-23
-16
-1
5
23
46
51
61
102
143
151
166
214
248
252
252
227
155
84
40
-6
-56
-89
-112
-126
-117
-90
-67
-55
-33
13
64
87
94
134
231
351
453
553
716
903
888
536
44
-296
-435
-485
-507
-510
-510
-515
-515
-518
-536
-564
-593
-628
-671
-715
-747
-762
-770
-755
-692
-599
-478
-308
-141
-37
22
66
86
69
28
25
72
62
-12
-18
51
78
55
32
8
14
73
94
43
38
122
183
188
185
162
123
130
166
173
185
206
155
125
268
425
496
699
835
441
-131
-226
-35
-8
-56
-28
-9
-23
-24
-18
-16
-7
9
19
19
34
79
114
132
186
280
354
392
407
389
353
313
234
121
43
3
-55
-119
-136
-129
-139
-142
-110
-52
27
131
216
240
276
427
623
777
1016
1372
1546
1287
705
85
-330
-478
-500
-516
-515
-515
-549
-579
-585
-612
-658
-701
-752
-809
-846
-874
-891
-865
-799
-703
-556
-361
-184
-63
22
77
84
65
51
36
14
-1
-10
-15
-15
-15
-14
-14
-33
-63
-65
-38
-35
-62
-57
3
55
46
10
-4
-10
-14
-5
-13
-28
-4
0
-22
65
201
279
457
597
280
-212
-264
-57
-37
-87
-41
-16
-23
10
22
-3
13
56
64
74
101
78
32
51
100
112
139
222
301
330
320
293
269
227
141
66
47
38
8
6
54
99
98
84
116
177
182
122
74
58
37
20
14
-3
-1
12
-29
-47
38
131
251
416
324
-77
-309
-204
-107
-135
-140
-110
-100
-98
-95
-96
-96
-92
-81
-71
-63
-44
-15
16
56
98
137
177
206
208
183
138
74
2
-49
-74
-97
-116
-118
-123
-131
-120
-106
-115
-114
-81
-58
-81
-118
-132
-143
-162
-160
-153
-167
-168
-168
-184
-139
-50
28
214
390
164
-298
-434
-296
-264
-296
-249
-226
-248
-229
-196
-192
-183
-155
-136
-119
-93
-62
-29
10
52
101
169
230
255
263
268
246
188
122
80
59
34
7
1
15
30
32
15
10
67
141
143
93
72
59
26
28
59
56
61
83
37
32
185
329
399
472
331
-67
-255
-88
37
-14
-39
-15
-28
-53
-49
-47
-68
-78
-59
-44
-39
-3
51
88
141
222
255
235
242
275
262
199
119
35
-35
-82
-115
-125
-126
-153
-183
-177
-163
-163
-144
-92
-43
-42
-85
-123
-130
-114
-86
-68
-53
-21
-31
-60
25
148
232
466
667
347
-205
-331
-183
-181
-216
-167
-153
-166
-140
-125
-134
-127
-108
-100
-91
-68
-40
-16
19
70
122
170
212
226
218
201
161
88
10
-53
-93
-116
-150
-185
-190
-187
-198
-198
-168
-119
-67
-44
-51
-42
12
84
169
291
431
572
789
1106
1305
1104
539
-28
-335
-443
-490
-502
-499
-511
-523
-529
-554
-588
-611
-637
-670
-698
-720
-737
-732
-691
-604
-462
-280
-104
40
154
242
306
326
289
247
254
267
250
244
262
275
293
315
302
272
250
228
229
262
264
222
191
178
154
124
116
125
127
115
94
86
138
215
279
431
568
351
-86
-233
-104
-52
-75
-57
-60
-95
-103
-93
-83
-71
-58
-30
-6
-18
-29
4
45
79
122
160
185
206
206
186
155
94
15
-40
-82
-131
-166
-184
-193
-182
-154
-138
-136
-103
-10
74
111
191
326
422
559
789
830
500
54
-252
-425
-495
-481
-471
-488
-474
-439
-431
-435
-428
-432
-455
-484
-519
-553
-570
-562
-514
-415
-281
-145
-13
106
190
227
230
213
191
178
173
168
170
173
161
149
165
190
202
208
212
208
208
219
210
188
201
242
242
192
140
92
26
-26
-48
-80
-104
-89
-135
-219
-127
60
159
348
512
155
-431
-520
-296
-279
-352
-305
-251
-241
-220
-200
-188
-159
-125
-102
-77
-40
-2
50
115
175
243
327
379
392
415
423
356
265
202
126
38
-10
-41
-91
-109
-81
-75
-106
-110
-45
57
102
54
6
17
14
-21
-17
2
-4
15
27
9
91
255
347
437
454
128
-267
-258
-76
-85
-127
-78
-72
-108
-96
-73
-71
-63
-48
-41
-27
4
40
76
125
183
233
274
312
325
285
213
131
43
-32
-86
-132
-156
-156
-167
-191
-195
-178
-172
-182
-156
-71
-14
-50
-107
-125
-143
-161
-153
-159
-167
-135
-152
-204
-112
27
95
327
581
300
-269
-401
-215
-190
-242
-201
-179
-210
-209
-189
-183
-174
-158
-146
-128
-93
-57
-27
16
75
132
180
222
244
243
222
177
114
51
-8
-47
-54
-64
-89
-91
-70
-63
-65
-59
-28
45
112
99
50
31
6
-37
-55
-67
-71
-44
-64
-112
-39
67
145
399
616
296
-235
-329
-163
-151
-187
-147
-133
-145
-136
-133
-133
-114
-92
-81
-79
-69
-37
1
29
68
126
185
228
250
259
254
212
140
81
52
34
23
25
29
28
42
80
102
93
110
178
237
247
249
280
339
441
589
709
810
1031
1294
1243
784
248
-88
-229
-265
-267
-290
-330
-341
-330
-346
-392
-424
-444
-480
-515
-536
-562
-587
-577
-528
-455
-362
-264
-169
-78
-10
19
25
18
-12
-46
-61
-66
-73
-78
-78
-73
-71
-84
-99
-79
-34
-19
-39
-31
16
32
-8
-48
-57
-70
-91
-89
-81
-88
-86
-93
-118
-62
57
149
306
440
204
-245
-377
-224
-157
-185
-177
-167
-184
-194
-186
-165
-150
-143
-119
-81
-51
-26
15
77
149
222
295
349
373
387
379
321
242
165
78
9
-16
-40
-71
-72
-56
-47
-34
-24
-13
37
111
119
61
26
26
21
34
46
20
25
56
19
29
180
306
426
618
508
-8
-314
-176
-41
-74
-83
-52
-61
-80
-77
-59
-40
-30
-28
-22
-2
25
50
91
158
228
286
318
307
282
271
226
116
0
-74
-125
-155
-164
-182
-212
-212
-182
-163
-180
-202
-163
-74
-32
-72
-124
-152
-177
-183
-167
-174
-179
-151
-169
-195
-82
88
196
337
376
105
-146
-46
105
75
56
109
100
46
10
-24
-46
-41
-44
-53
-36
-8
9
41
92
139
183
236
272
268
233
178
101
4
-79
-124
-149
-169
-182
-212
-242
-216
-167
-166
-177
-135
-67
-15
-11
-59
-94
-88
-94
-111
-115
-122
-115
-115
-158
-120
17
84
190
438
384
-101
-389
-272
-196
-257
-241
-203
-223
-230
-217
-218
-215
-203
-189
-155
-113
-91
-65
-5
48
68
102
160
187
174
151
107
36
-9
-8
1
16
42
44
31
57
113
132
110
103
144
209
264
303
341
398
504
654
772
876
1112
1413
1426
1000
386
-91
-309
-334
-328
-371
-398
-379
-375
-394
-411
-441
-480
-502
-530
-575
-604
-594
-561
-519
-442
-322
-185
-24
169
386
650
889
1010
1196
1452
1247
452
-233
-398
-368
-381
-369
-343
-366
-401
-412
-400
-383
-400
-446
-443
-372
-306
-270
-221
-147
-78
-21
23
40
30
5
-21
-36
-46
-67
-83
-84
-92
-104
-98
-95
-105
-104
-100
-104
-85
-55
-63
-86
-77
-55
-47
-48
-54
-70
-81
-76
-64
-60
-58
-46
-27
-18
-7
21
46
47
42
43
39
30
26
21
-2
-21
-3
23
19
15
57
118
140
124
111
106
99
114
134
126
126
137
110
112
201
304
443
576
392
-69
-280
-138
-42
-81
-83
-69
-88
-83
-62
-59
-50
-29
-17
-5
23
62
106
160
222
281
329
370
408
427
420
391
340
277
216
149
73
23
-8
-51
-76
-68
-74
-76
-45
-38
-65
-49
4
11
-40
-95
-120
-134
-152
-159
-166
-173
-163
-177
-189
-86
60
152
290
303
-80
-474
-433
-254
-265
-320
-319
-322
-311
-283
-274
-259
-234
-210
-164
-108
-85
-63
4
82
151
236
319
352
353
345
277
150
40
-32
-95
-146
-174
-192
-205
-212
-205
-174
-162
-183
-163
-80
-26
-33
-51
-74
-119
-151
-136
-106
-114
-118
-73
-68
-97
-1
158
270
465
576
229
-226
-228
-30
-28
-66
-23
-25
-53
-33
-13
-12
8
33
45
53
63
91
146
202
245
293
350
390
398
369
310
236
157
70
-10
-65
-97
-111
-127
-165
-192
-167
-126
-120
-124
-103
-56
-14
-19
-64
-98
-113
-124
-115
-106
-117
-109
-104
-140
-112
-6
86
313
644
537
-43
-376
-269
-182
-216
-202
-185
-208
-207
-184
-165
-150
-132
-107
-88
-71
-36
0
34
114
219
273
289
327
358
336
282
231
179
123
79
55
43
34
23
17
27
61
102
149
275
508
729
923
1185
1307
957
319
-105
-220
-261
-313
-327
-316
-315
-325
-351
-390
-427
-453
-476
-509
-545
-564
-561
-535
-475
-380
-260
-124
-2
57
50
22
-2
-27
-61
-88
-99
-104
-117
-129
-129
-121
-115
-115
-121
-125
-116
-103
-107
-117
-105
-82
-85
-98
-89
-64
-51
-57
-67
-50
-9
12
-9
-39
-39
-23
-15
-11
-6
6
29
29
14
72
188
303
431
437
137
-208
-218
-43
8
-19
-6
11
9
12
14
17
32
50
67
95
127
151
181
234
292
332
365
412
451
453
428
393
339
268
200
143
95
62
48
40
24
27
58
91
137
232
368
579
859
1055
1181
1444
1661
1379
673
44
-296
-446
-496
-511
-541
-578
-603
-621
-633
-647
-685
-744
-797
-837
-876
-898
-893
-872
-793
-629
-450
-305
-170
-70
-48
-61
-64
-76
-104
-126
-129
-114
-105
-114
-117
-108
-96
-74
-42
9
100
199
300
452
605
698
873
1178
1268
870
259
-142
-293
-369
-427
-455
-476
-507
-540
-566
-586
-611
-658
-712
-749
-785
-844
-894
-891
-840
-754
-638
-506
-361
-202
-70
3
41
66
57
27
19
22
12
19
32
22
45
130
272
560
901
861
276
-396
-666
-510
-193
45
126
120
114
132
160
179
181
187
225
273
304
358
485
642
750
813
861
871
823
735
626
517
426
347
280
233
207
198
198
194
183
169
162
177
194
184
169
172
177
180
192
193
180
180
173
149
150
179
194
184
144
95
99
129
116
103
169
328
530
689
806
953
1025
886
685
564
375
38
-271
-427
-490
-533
-555
-538
-525
-566
-635
-692
-742
-790
-830
-874
-921
-943
-942
-949
-964
-951
-902
-836
-764
-689
-620
-560
-513
-474
-427
-394
-396
