# session 164
-598
-588
-586
-602
-632
-619
-510
-380
-305
-155
156
416
585
902
1172
923
356
21
-72
-182
-292
-310
-298
-327
-375
-402
-422
-464
-514
-530
-511
-496
-491
-436
-301
-138
9
145
292
464
635
754
810
822
788
730
696
653
571
578
774
1008
1120
1176
1285
1434
1591
1743
1865
1935
1879
1645
1367
1207
1134
1061
997
938
880
876
906
870
808
838
937
1068
1243
1320
1170
957
854
824
852
966
1096
1210
1378
1586
1762
1873
1859
1725
1614
1520
1260
817
348
-41
-329
-601
-892
-1070
-1136
-1196
-1144
-1105
-1496
-2090
-2263
-2128
-2131
-2215
-2210
-2197
-2213
-2209
-2194
-2181
-2164
-2137
-2096
-2050
-2012
-1976
-1923
-1843
-1759
-1683
-1573
-1457
-1392
-1254
-923
-589
-399
-173
116
212
135
114
114
47
59
187
226
114
13
-12
-39
-96
-159
-223
-261
-260
-264
-296
-314
-287
-241
-223
-254
-310
-344
-335
-300
-263
-222
-155
-75
-9
70
176
294
532
988
1355
1095
236
-526
-757
-719
-716
-706
-652
-634
-642
-618
-598
-620
-645
-643
-619
-555
-432
-305
-237
-184
-83
23
105
219
367
501
667
948
1296
1586
1773
1964
2279
2591
2656
2467
2124
1625
1093
770
694
784
998
1200
1270
1324
1498
1718
1921
2238
2691
2942
2695
2144
1664
1347
1125
966
829
673
519
382
239
85
-55
-178
-289
-380
-451
-522
-599
-673
-735
-778
-781
-745
-718
-741
-788
-816
-827
-825
-816
-836
-897
-958
-991
-1012
-1031
-1048
-1055
-1053
-1061
-1076
-1073
-1058
-1057
-1057
-1037
-1018
-1008
-995
-978
-962
-941
-921
-914
-906
-885
-849
-766
-582
-352
-190
-34
246
537
685
780
887
858
660
459
340
268
213
162
91
1
-71
-106
-119
-134
-167
-202
-205
-204
-229
-208
-125
-28
154
333
157
-297
-493
-352
-247
-262
-257
-234
-232
-232
-230
-224
-214
-210
-195
-161
-132
-122
-113
-85
-33
21
61
101
146
176
190
207
224
218
186
160
159
150
129
168
270
345
446
683
888
834
641
526
476
414
353
293
231
199
193
166
128
127
149
136
94
61
33
11
8
11
11
23
19
0
6
-3
-30
30
149
241
366
389
68
-310
-319
-149
-126
-160
-143
-142
-152
-147
-160
-170
-156
-154
-161
-144
-128
-130
-107
-46
21
79
150
233
297
331
355
358
311
216
114
29
-37
-78
-97
-115
-132
-132
-125
-124
-118
-98
-77
-65
-63
-74
-94
-100
-81
-71
-92
-91
-42
-7
-31
-70
-82
-85
-98
-112
-108
-95
-93
-82
-52
-75
-107
7
172
286
511
642
244
-296
-338
-131
-119
-162
-121
-117
-141
-123
-108
-119
-107
-78
-80
-93
-71
-36
-24
-1
54
111
167
239
307
330
309
289
282
226
104
8
-23
-64
-139
-178
-175
-175
-174
-152
-132
-115
-53
48
155
342
629
876
1095
1384
1445
961
255
-164
-285
-331
-377
-416
-447
-457
-453
-461
-490
-522
-542
-560
-597
-648
-682
-695
-705
-689
-601
-459
-309
-151
9
119
163
179
171
131
98
88
64
42
48
38
8
18
49
48
39
51
55
32
17
33
36
4
-3
29
27
1
1
-3
-13
6
29
29
33
37
33
47
66
61
55
50
30
16
6
-23
-32
-4
-14
-65
-63
2
55
69
60
43
33
24
20
44
56
36
46
59
-2
1
154
253
345
665
808
336
-190
-197
-53
-102
-129
-64
-61
-101
-103
-83
-72
-73
-77
-69
-57
-46
-22
7
31
68
120
165
199
231
262
284
290
270
226
167
112
70
26
-29
-74
-94
-103
-120
-140
-146
-139
-137
-138
-135
-134
-130
-109
-86
-53
31
138
252
440
658
809
956
1068
876
397
-5
-189
-282
-333
-345
-358
-368
-362
-369
-390
-405
-416
-431
-447
-466
-498
-532
-544
-536
-524
-484
-386
-251
-117
17
140
225
254
225
173
147
133
100
86
95
81
55
59
75
75
78
86
93
109
129
138
132
115
93
83
81
72
58
50
43
33
24
18
12
7
8
14
12
-3
-14
-3
10
6
6
42
80
79
50
22
13
20
17
4
10
12
-6
-4
-6
-41
-9
99
228
476
677
390
-181
-381
-239
-199
-257
-246
-236
-268
-279
-279
-288
-277
-265
-285
-286
-246
-228
-240
-223
-182
-144
-93
-36
5
49
88
86
57
36
0
-75
-152
-199
-230
-262
-280
-266
-232
-209
-182
-109
-7
124
373
706
978
1253
1535
1430
755
-17
-429
-524
-496
-451
-455
-493
-511
-521
-546
-553
-549
-584
-645
-679
-697
-707
-680
-625
-546
-417
-261
-121
24
174
262
276
268
253
235
222
204
207
280
400
537
672
751
841
1101
1439
1597
1471
1067
529
170
75
38
-9
-2
10
-21
-50
-62
-81
-106
-136
-178
-228
-285
-342
-378
-386
-381
-356
-272
-124
39
177
289
391
480
527
526
509
513
543
577
583
543
481
443
436
429
410
399
386
360
357
359
309
268
291
270
218
297
431
520
671
681
261
-173
-151
18
-7
-72
-75
-91
-108
-120
-146
-150
-155
-197
-224
-210
-212
-226
-206
-173
-150
-114
-65
-40
-44
-61
-98
-170
-272
-381
-486
-579
-648
-691
-743
-807
-839
-842
-865
-909
-938
-946
-953
-952
-918
-852
-747
-567
-359
-180
-2
69
-215
-788
-1278
-1530
-1664
-1761
-1808
-1813
-1824
-1866
-1910
-1942
-1984
-2033
-2074
-2126
-2181
-2220
-2263
-2317
-2298
-2108
-1779
-1441
-1153
-884
-625
-414
-271
-191
-155
-116
-12
148
301
440
601
760
914
1146
1449
1731
1992
2217
2281
2234
2322
2565
2759
2870
3003
3147
3236
3295
3344
3307
3182
3125
3219
3350
3427
3486
3534
3504
3397
3320
3375
3522
3641
3678
3556
3161
2620
2180
1803
1351
932
641
375
93
-124
-307
-519
-670
-714
-755
-722
-558
-646
-1182
-1640
-1672
-1610
-1666
-1708
-1726
-1778
-1810
-1819
-1854
-1876
-1860
-1852
-1860
-1849
-1819
-1783
-1747
-1701
-1634
-1560
-1506
-1453
-1397
-1373
-1365
-1341
-1345
-1399
-1437
-1446
-1463
-1479
-1480
-1483
-1488
-1475
-1438
-1387
-1342
-1280
-1175
-1061
-902
-609
-289
-56
165
242
-126
-747
-1140
-1276
-1393
-1453
-1387
-1415
-1505
-1159
-423
-89
-286
-387
-353
-548
-728
-508
-36
422
812
1179
1589
1951
1984
1678
1364
1185
1014
806
612
444
302
192
95
-3
-94
-183
-265
-324
-379
-444
-488
-500
-513
-501
-396
-233
-137
-153
-193
-165
-96
-51
-23
35
136
249
327
372
437
520
582
643
730
808
850
858
849
869
927
961
980
1061
1195
1293
1329
1340
1355
1377
1410
1456
1503
1530
1551
1589
1596
1571
1646
1813
1957
2177
2380
2114
1461
985
721
505
503
573
416
283
356
300
34
-159
-244
-352
-465
-541
-593
-625
-646
-663
-651
-619
-603
-596
-580
-582
-615
-658
-707
-775
-848
-910
-963
-1014
-1063
-1082
-1067
-1060
-1070
-1051
-1012
-1004
-988
-933
-905
-917
-887
-822
-804
-802
-711
-538
-392
-292
-143
44
170
322
635
886
711
169
-363
-668
-768
-760
-727
-696
-664
-650
-647
-629
-619
-639
-657
-657
-670
-699
-723
-738
-744
-731
-681
-583
-438
-268
-115
15
131
210
224
208
201
202
198
195
193
200
216
221
225
258
293
292
284
293
294
299
321
318
294
295
303
286
288
302
261
194
186
207
187
169
209
259
266
245
207
176
190
216
208
203
214
206
204
217
172
133
205
299
412
634
677
293
-77
-49
87
80
70
102
96
83
92
89
74
69
67
58
54
57
64
80
106
141
178
212
247
291
324
325
311
294
247
183
141
102
51
31
34
0
-27
15
56
65
119
202
271
437
688
844
948
1059
901
405
-24
-171
-208
-247
-277
-303
-328
-350
-375
-390
-398
-421
-453
-474
-494
-524
-553
-561
-540
-487
-411
-319
-220
-129
-59
-15
-10
-31
-49
-61
-77
-83
-82
-91
-96
-82
-74
-84
-85
-73
-70
-74
-69
-62
-66
-77
-78
-74
-81
-88
-78
-74
-87
-95
-101
-119
-130
-122
-119
-124
-127
-132
-142
-150
-147
-125
-100
-103
-130
-159
-168
-151
-150
-172
-136
-40
-3
-40
-54
-50
-75
-94
-78
-63
-74
-77
-42
-39
-78
-12
143
270
505
746
486
-119
-334
-166
-110
-156
-136
-132
-144
-115
-111
-133
-110
-69
-65
-55
-13
-3
0
95
199
174
136
228
355
413
429
424
403
380
325
237
166
105
31
-6
5
-10
-60
-64
-34
-41
-53
-21
3
3
12
14
16
65
110
115
185
344
497
652
820
909
1010
1284
1466
1143
464
-66
-270
-316
-333
-340
-342
-343
-344
-348
-361
-378
-386
-398
-429
-457
-469
-502
-552
-561
-528
-501
-457
-352
-218
-98
2
83
143
164
124
63
44
44
21
-11
-29
-26
-16
-28
-49
-55
-75
-114
-116
-91
-94
-109
-111
-116
-131
-140
-141
-143
-147
-147
-152
-166
-159
-128
-128
-156
-127
-35
23
17
-5
-21
-32
-35
-44
-58
-53
-53
-62
-35
-32
-68
-3
135
246
480
698
410
-163
-327
-153
-98
-137
-127
-124
-123
-91
-76
-81
-73
-67
-71
-61
-30
2
27
65
111
137
168
237
312
357
391
409
388
345
302
248
192
155
132
103
66
39
28
27
27
32
34
25
21
31
31
39
93
181
312
520
733
922
1172
1325
1065
498
34
-197
-301
-332
-330
-344
-358
-358
-368
-383
-389
-403
-427
-438
-459
-503
-536
-546
-556
-544
-485
-401
-305
-184
-57
35
83
103
94
57
16
-12
-42
-71
-75
-63
-60
-69
-82
-94
-96
-90
-81
-74
-76
-88
-92
-85
-81
-77
-64
-55
-66
-80
-79
-69
-60
-48
-31
-14
3
16
21
11
-9
-20
-17
-24
-38
-13
35
45
17
-13
-35
-44
-45
-46
-43
-38
-38
-24
-13
-31
4
111
192
307
474
365
-69
-320
-216
-114
-113
-73
-57
-112
-119
-70
-59
-78
-70
-54
-49
-33
-6
14
45
95
153
221
296
358
411
463
488
472
442
410
352
263
174
111
68
32
14
25
33
23
62
168
275
441
740
1020
1228
1505
1629
1174
344
-250
-426
-399
-355
-369
-424
-456
-469
-491
-514
-533
-557
-587
-624
-672
-720
-740
-716
-661
-578
-460
-323
-193
-78
15
85
104
48
-27
-46
-41
-57
-62
-45
-45
-60
-60
-60
-81
-100
-95
-81
-81
-85
-82
-74
-64
-54
-52
-57
-57
-48
-43
-46
-46
-36
-34
-50
-62
-54
-40
-39
-44
-37
-32
-41
-36
-17
-26
-51
-47
-33
-35
-44
-44
-9
62
97
61
23
31
41
10
-7
27
48
32
42
44
26
116
283
398
568
696
410
-71
-174
-8
20
-36
-26
-19
-38
-43
-46
-51
-53
-55
-46
-32
-23
-4
31
67
107
161
221
281
332
360
365
348
317
288
252
182
109
66
24
-28
-50
-43
-43
-60
-76
-74
-56
-50
-66
-83
-91
-95
-102
-108
-100
-89
-61
39
163
239
365
567
694
866
1304
1665
1445
775
111
-324
-499
-505
-512
-554
-569
-567
-573
-573
-579
-605
-636
-657
-663
-672
-697
-711
-704
-686
-631
-526
-412
-297
-165
-53
7
39
53
34
2
-18
-31
-43
-50
-62
-73
-61
-44
-42
-36
-24
-28
-17
27
36
1
4
41
46
30
36
60
81
71
42
46
81
85
63
74
126
165
159
138
118
89
73
93
114
122
133
129
118
112
85
92
182
284
431
626
546
108
-186
-113
-17
-44
-45
-21
-28
-22
-6
-14
-16
-5
-2
4
15
15
30
77
107
106
129
193
253
288
296
286
288
295
248
164
118
88
16
-57
-66
-44
-53
-84
-87
-33
37
90
208
427
617
756
940
968
580
7
-311
-335
-298
-316
-354
-386
-418
-438
-437
-434
-443
-458
-481
-514
-548
-572
-574
-546
-492
-411
-305
-189
-84
0
59
85
75
38
-1
-27
-47
-65
-69
-59
-56
-59
-50
-40
-44
-50
-46
-38
-30
-25
-25
-33
-40
-29
-13
-21
-38
-37
-26
-24
-33
-38
-16
8
-9
-34
-16
5
-9
-16
0
-1
-16
-14
-3
5
25
56
60
47
72
129
164
165
141
91
60
71
71
57
59
53
56
90
81
81
205
365
546
786
701
132
-277
-184
-54
-103
-108
-72
-88
-97
-97
-110
-91
-63
-66
-61
-32
-4
20
36
45
68
121
189
248
298
349
378
367
342
310
252
168
87
24
-42
-121
-175
-182
-181
-198
-202
-174
-155
-169
-174
-149
-134
-139
-136
-133
-138
-91
46
188
257
332
472
555
604
869
1214
1100
493
-61
-303
-387
-418
-413
-408
-400
-398
-409
-404
-407
-440
-445
-428
-464
-521
-549
-593
-636
-609
-565
-554
-486
-318
-142
-20
62
116
135
119
79
44
27
8
-15
-26
-37
-35
3
46
60
69
84
89
90
91
88
84
78
66
69
78
69
62
74
71
51
63
80
38
12
90
179
179
148
126
83
61
84
97
84
74
72
89
91
41
59
203
350
562
863
781
172
-271
-192
-52
-94
-120
-97
-106
-102
-74
-78
-86
-61
-39
-28
-7
-2
-26
-40
-27
0
43
105
167
223
276
309
299
251
198
143
67
-17
-78
-105
-118
-136
-163
-190
-206
-209
-204
-201
-201
-198
-190
-190
-192
-174
-160
-177
-166
-104
-74
-88
-75
-70
-115
-127
-93
-93
-94
-68
-90
-116
-80
-85
-105
13
171
301
472
425
-9
-336
-250
-127
-154
-136
-82
-81
-61
-22
-31
-51
-44
-36
-31
-13
6
13
28
76
144
198
243
300
358
393
401
381
330
249
153
72
22
-14
-45
-63
-65
-65
-64
-60
-53
-42
-36
-45
-49
-34
-33
-58
-68
-52
-51
-64
-49
-6
32
28
-27
-69
-60
-56
-81
-87
-76
-65
-41
