# session 106
54
165
371
517
287
-265
-706
-876
-945
-984
-981
-989
-1006
-982
-943
-926
-921
-914
-910
-903
-889
-879
-879
-868
-835
-794
-726
-605
-452
-307
-175
-55
30
61
42
5
-35
-78
-109
-107
-102
-116
-128
-122
-116
-117
-111
-98
-87
-81
-75
-72
-70
-68
-57
-37
-27
-33
-36
-30
-25
-21
-20
-24
-15
5
-2
-27
-37
-32
-29
-21
2
54
113
119
76
48
47
38
37
64
75
58
78
104
61
80
239
368
531
838
804
191
-279
-196
-60
-123
-143
-101
-109
-116
-98
-88
-72
-58
-58
-44
-15
0
19
56
85
104
147
218
300
380
444
491
523
528
507
474
424
347
250
162
105
67
29
-5
-22
-25
-28
-35
-47
-66
-81
-71
-61
-88
-104
-51
4
-19
-77
-112
-134
-151
-157
-166
-174
-175
-183
-179
-175
-217
-189
-10
143
240
364
218
-274
-518
-307
-145
-187
-178
-129
-135
-123
-84
-75
-70
-44
-20
-2
11
21
38
63
91
134
186
240
312
390
435
462
488
473
385
269
167
70
-17
-67
-92
-122
-148
-160
-164
-156
-144
-154
-176
-171
-146
-141
-158
-144
-79
-25
-18
-28
-53
-90
-88
-70
-94
-102
-69
-69
-73
-65
-114
-105
47
177
345
614
508
-81
-422
-280
-187
-258
-236
-189
-222
-230
-204
-211
-220
-214
-212
-197
-166
-146
-125
-89
-55
-13
50
119
183
251
314
362
389
380
331
266
201
136
77
28
-9
-25
-30
-54
-81
-75
-63
-85
-110
-98
-74
-81
-109
-104
-53
-7
-12
-51
-92
-118
-120
-112
-108
-98
-95
-109
-97
-83
-116
-92
53
183
267
311
116
-253
-368
-191
-86
-111
-99
-71
-87
-102
-94
-86
-86
-99
-107
-84
-56
-47
-27
9
36
65
117
181
257
343
406
422
414
401
357
269
176
105
43
-10
-33
-37
-51
-72
-71
-57
-56
-51
-36
-38
-41
-17
1
0
23
67
71
33
4
-10
-20
-22
-17
-19
-22
-23
-13
-9
-36
-25
72
171
287
453
386
-17
-296
-214
-104
-120
-109
-78
-94
-102
-94
-103
-107
-104
-106
-91
-61
-50
-43
-16
21
55
88
132
193
248
277
297
312
295
249
193
119
34
-31
-71
-98
-110
-116
-126
-120
-86
-51
-21
24
95
233
459
671
810
1008
1189
965
331
-179
-317
-336
-390
-408
-404
-425
-440
-436
-442
-459
-476
-497
-517
-537
-567
-599
-611
-596
-560
-514
-444
-324
-167
-29
62
122
164
169
131
73
23
-11
-36
-55
-65
-71
-81
-86
-81
-82
-92
-92
-82
-76
-67
-55
-49
-41
-30
-23
-5
22
28
26
53
84
85
86
102
94
52
19
26
45
26
-5
22
84
111
115
111
77
41
33
31
39
62
73
83
80
55
129
297
428
659
931
685
0
-287
-90
-13
-105
-99
-70
-93
-80
-50
-64
-75
-53
-38
-39
-33
-21
-11
9
44
77
110
161
237
308
339
356
384
381
338
300
255
171
94
50
2
-48
-68
-80
-102
-100
-68
-34
24
118
244
475
792
1027
1228
1529
1593
1034
203
-304
-456
-518
-558
-560
-562
-574
-582
-587
-593
-603
-621
-645
-676
-715
-750
-770
-785
-792
-768
-703
-595
-442
-271
-118
11
105
132
107
84
73
39
-17
-51
-51
-44
-45
-51
-61
-70
-62
-43
-39
-49
-46
-33
-42
-56
-46
-35
-36
-28
-26
-33
-13
4
-17
-26
-17
-39
-58
-30
-11
-37
-46
14
98
131
116
108
115
105
88
95
109
86
72
108
98
55
142
290
416
658
778
355
-211
-281
-85
-63
-108
-77
-59
-76
-79
-72
-64
-51
-44
-37
-15
7
14
32
69
98
125
175
228
269
326
384
397
389
395
382
327
267
213
160
123
80
14
-16
6
3
-32
-50
-58
-72
-65
-38
-23
-27
-19
37
130
198
223
303
475
575
579
737
1027
1024
605
112
-207
-363
-404
-400
-415
-427
-412
-408
-425
-432
-431
-447
-474
-487
-502
-539
-576
-592
-603
-614
-596
-543
-470
-372
-251
-136
-44
29
75
73
38
7
-12
-34
-55
-66
-71
-76
-81
-87
-95
-100
-94
-82
-80
-87
-75
-53
-61
-88
-93
-80
-64
-47
-35
-13
35
76
71
38
17
13
8
2
13
22
23
48
55
11
39
177
298
478
724
605
66
-236
-87
40
-8
-23
-12
-45
-54
-43
-61
-75
-68
-71
-69
-44
-29
-19
15
49
73
128
206
276
350
433
487
502
500
486
449
377
284
196
125
66
29
11
-16
-30
-1
23
29
102
228
347
567
914
1199
1441
1749
1783
1200
326
-275
-483
-512
-536
-573
-577
-561
-581
-617
-623
-626
-655
-685
-715
-765
-821
-857
-868
-860
-836
-777
-662
-507
-354
-213
-78
17
46
36
19
-7
-32
-43
-55
-59
-43
-37
-45
-32
-17
-28
-27
-8
-6
-7
12
22
14
17
24
16
10
17
24
28
28
12
5
24
19
-18
-8
64
114
110
87
65
46
26
0
7
41
41
30
42
19
36
189
325
437
666
662
154
-288
-230
-63
-81
-114
-90
-92
-116
-125
-109
-83
-71
-57
-30
-13
-5
13
37
59
87
130
191
252
301
347
384
386
361
342
310
236
154
99
40
-27
-54
-42
-42
-57
-64
-66
-68
-55
-28
-1
13
13
23
56
74
47
9
-7
-20
-41
-41
-25
-28
-37
-28
-44
-65
8
122
220
404
505
202
-234
-308
-163
-141
-185
-178
-164
-161
-163
-176
-175
-166
-171
-171
-155
-136
-111
-94
-90
-68
-24
10
38
88
145
174
173
161
142
97
27
-38
-88
-132
-152
-142
-134
-137
-134
-123
-115
-102
-75
-49
-41
-41
-19
19
33
12
-21
-50
-70
-78
-81
-77
-74
-83
-71
-50
-71
-56
66
192
293
382
238
-162
-375
-247
-126
-148
-154
-128
-135
-147
-146
-148
-144
-129
-120
-114
-91
-59
-32
0
40
69
98
162
245
305
349
389
406
391
355
285
190
110
56
15
-14
-21
-13
-1
6
5
3
6
14
18
7
-3
20
52
46
10
-33
-75
-94
-98
-109
-112
-109
-105
-70
-70
-114
-21
177
290
447
623
357
-198
-343
-130
-79
-151
-122
-91
-129
-142
-114
-103
-113
-108
-87
-80
-84
-59
-16
-3
-7
35
122
186
224
286
351
372
363
329
249
148
65
-4
-55
-83
-118
-156
-161
-152
-169
-187
-183
-170
-154
-143
-147
-131
-70
-18
-22
-61
-86
-87
-94
-119
-117
-95
-108
-105
-64
-80
-64
104
235
303
501
522
56
-361
-285
-108
-127
-152
-115
-106
-111
-110
-113
-103
-83
-74
-65
-56
-50
-32
-11
0
37
107
158
205
285
344
354
365
367
307
200
92
11
-42
-86
-124
-156
-187
-192
-167
-176
-223
-224
-181
-170
-186
-180
-148
-105
-69
-74
-116
-138
-131
-138
-144
-114
-88
-73
-46
-65
-85
56
237
342
602
839
479
-180
-352
-163
-130
-179
-137
-107
-111
-92
-83
-83
-64
-41
-21
-6
-8
1
41
74
97
148
208
249
301
379
434
442
432
407
339
250
188
142
92
53
31
15
10
2
-23
-54
-90
-120
-119
-107
-109
-92
-46
-21
-40
-81
-109
-102
-103
-143
-157
-140
-147
-153
-157
-190
-153
-38
57
256
509
348
-177
-413
-282
-222
-266
-241
-211
-223
-212
-185
-177
-170
-149
-122
-104
-96
-79
-49
-23
-2
30
75
117
156
204
255
282
282
274
247
186
116
69
34
-14
-52
-47
-25
-35
-65
-71
-70
-82
-83
-82
-95
-70
-2
18
-14
-30
-47
-80
-80
-74
-99
-105
-89
-91
-96
-120
-146
-68
60
160
322
378
58
-306
-286
-121
-107
-119
-75
-60
-71
-67
-59
-55
-58
-59
-35
-15
-31
-41
-9
28
51
83
126
179
245
303
343
369
367
344
312
249
163
97
48
13
14
15
-27
-65
-50
-31
-60
-85
-41
8
-22
-47
23
102
115
92
41
-2
12
33
21
19
24
33
43
-3
-41
62
220
383
646
707
234
-292
-326
-162
-163
-196
-180
-200
-211
-190
-192
-200
-186
-187
-202
-185
-140
-118
-118
-96
-56
-20
41
128
190
229
280
323
330
303
234
119
4
-66
-97
-125
-157
-170
-173
-189
-218
-242
-241
-208
-198
-233
-236
-177
-128
-108
-102
-144
-195
-180
-161
-204
-223
-187
-186
-187
-149
-164
-156
-3
154
333
633
607
21
-417
-304
-136
-164
-167
-129
-142
-142
-107
-93
-114
-133
-117
-80
-63
-54
-27
-2
8
38
98
169
249
335
403
448
469
446
381
296
198
109
54
19
-14
-37
-50
-62
-66
-61
-65
-68
-43
-10
-7
-4
43
97
107
80
49
31
34
42
36
33
39
45
62
61
46
121
254
352
532
716
508
18
-186
-60
23
1
-15
-25
-29
-19
-20
-27
-23
-27
-42
-41
-27
-25
-27
-11
14
36
63
94
128
169
198
194
172
147
107
42
-31
-92
-140
-172
-189
-205
-221
-225
-222
-228
-231
-223
-211
-196
-186
-186
-164
-115
-96
-124
-162
-188
-201
-206
-209
-193
-177
-184
-179
-166
-186
-130
33
164
334
531
338
-202
-430
-263
-174
-211
-185
-159
-185
-195
-190
-190
-181
-170
-159
-136
-118
-113
-89
-41
10
61
114
177
265
356
403
419
436
424
351
253
174
106
40
-7
-30
-33
-22
-15
-6
8
5
-5
19
51
33
-5
4
49
85
85
33
-42
-76
-70
-58
-33
-29
-70
-55
4
-21
-4
176
317
441
679
607
45
-314
-167
-26
-66
-56
-29
-63
-72
-52
-57
-55
-26
-8
-24
-38
-13
26
22
9
51
122
175
229
295
348
381
387
349
276
192
107
15
-70
-113
-119
-144
-193
-214
-199
-195
-229
-269
-249
-202
-217
-253
-207
-115
-73
-87
-125
-165
-177
-169
-164
-157
-155
-157
-122
-92
-127
-85
99
225
307
464
362
-121
-406
-256
-114
-140
-140
-124
-139
-113
-77
-98
-113
-87
-76
-81
-67
-56
-60
-40
7
57
112
167
231
309
360
378
400
370
250
142
75
-21
-102
-114
-145
-212
-199
-126
-134
-197
-186
-116
-95
-125
-135
-106
-56
5
44
26
-17
-23
-5
-12
-30
-21
-10
-11
-4
-24
-47
59
229
333
488
592
267
-241
-325
-124
-97
-159
-126
-101
-121
-111
-91
-96
-95
-77
-62
-48
-27
-2
23
51
86
119
159
224
296
353
402
424
393
343
289
195
91
42
23
-31
-91
-102
-87
-91
-101
-107
-126
-134
-88
-34
-39
-60
-25
47
90
78
31
-1
5
-5
-48
-55
-27
-25
-30
-56
-107
-50
88
180
431
797
640
-15
-341
-226
-192
-255
-212
-179
-207
-198
-175
-186
-187
-167
-155
-144
-122
-115
-123
-105
-59
-22
14
79
152
205
242
261
259
250
221
163
95
32
-15
-44
-71
-98
-106
-112
-137
-151
-146
-155
-173
-166
-148
-157
-169
-142
-91
-77
-109
-150
-169
-169
-179
-198
-188
-173
-193
-191
-162
-185
-173
-53
47
185
431
367
-165
-549
-469
-322
-301
-259
-195
-158
-111
-67
-50
-39
-23
-6
7
6
8
33
59
82
129
194
252
308
370
423
459
480
481
450
382
308
257
217
182
164
158
154
157
148
120
109
110
93
81
106
135
137
128
131
154
178
159
106
68
53
42
39
36
10
-11
1
-5
-33
14
104
173
361
557
340
-149
-327
-203
-165
-206
-184
-164
-182
-192
-198
-215
-227
-231
-225
-221
-226
-225
-216
-213
-203
-172
-132
-95
-55
-20
1
9
14
9
-14
-49
-86
-122
-148
-159
-167
-173
-160
-144
-154
-168
-159
-150
-162
-177
-167
-131
-112
-123
-105
-47
-28
-61
-88
-99
-96
-78
-70
-75
-69
-53
-26
-14
-40
-3
130
233
357
533
403
-65
-286
-125
-28
-81
-72
-38
-46
-36
-10
-5
8
37
52
61
74
77
73
88
119
146
167
198
245
303
358
393
405
396
357
284
194
115
56
15
-9
-17
-23
-26
-22
-22
-26
-27
-33
-53
-65
-44
-27
-43
-32
47
98
68
44
64
90
135
216
299
407
562
671
756
1038
1466
1540
996
239
-232
-365
-378
-404
-425
-419
-431
-471
-486
-484
-517
-564
-586
-602
-638
-682
-721
-747
-766
-783
-783
-745
-671
-567
-435
-289
-156
-45
41
89
94
83
73
57
43
45
49
39
31
36
34
24
32
47
32
-2
-8
15
19
-18
-35
19
94
115
92
60
35
28
27
10
2
12
21
31
13
-5
104
274
358
501
671
440
-77
-246
-67
-4
-70
-54
-6
-14
-24
0
20
10
-7
-2
4
0
18
62
90
95
115
159
212
270
325
366
379
358
324
279
202
114
53
2
-57
-93
-88
-74
-75
-81
-70
-57
-64
-64
-32
16
72
140
236
434
706
875
976
1212
1385
1100
486
-15
-273
-396
-443
-449
-454
-472
-499
-506
-486
-481
-501
-528
-560
-584
-585
-590
-615
-635
-638
-620
-559
-451
-335
-222
-99
8
62
84
92
64
10
-25
-40
-62
-82
-84
-78
-74
-70
-63
-56
-47
-34
-21
-8
4
12
23
35
44
49
49
47
49
45
28
26
51
57
43
66
124
146
117
83
70
70
70
67
72
70
56
66
85
66
90
219
364
494
549
314
-94
-227
-80
-3
-25
-6
6
-19
-11
19
19
12
23
39
54
63
66
75
94
114
140
178
219
269
330
385
421
439
434
403
344
266
183
102
32
-20
-65
-108
-140
-163
-184
-199
-219
-242
-243
-230
-232
-246
-249
-219
-168
-149
-192
-246
-260
-254
-256
-250
-234
-244
-276
-275
-251
-251
-230
-126
