# session 273
36
46
37
50
71
51
54
137
232
316
342
145
-162
-227
-83
-2
13
30
13
10
56
80
71
75
81
81
100
126
135
139
163
204
241
261
273
293
312
295
238
180
144
103
38
-28
-68
-88
-99
-108
-117
-122
-118
-120
-132
-120
-80
-64
-84
-74
-19
15
-4
-34
-49
-58
-72
-81
-60
-29
-43
-69
-47
-39
-79
-69
1
102
286
368
86
-283
-316
-174
-156
-191
-178
-168
-165
-148
-135
-124
-106
-91
-81
-74
-70
-61
-44
-24
8
49
78
100
125
138
127
108
86
54
14
-24
-49
-57
-61
-67
-67
-63
-66
-69
-64
-67
-86
-100
-91
-70
-65
-77
-61
-5
33
15
-19
-33
-41
-58
-70
-60
-44
-54
-57
-18
-14
-63
-17
130
255
366
349
22
-319
-286
-94
-63
-95
-73
-59
-61
-49
-29
0
24
27
35
61
78
96
134
168
191
230
277
312
341
361
351
313
257
186
118
56
-7
-59
-95
-124
-132
-106
-90
-101
-105
-102
-114
-122
-92
-61
-85
-120
-80
-2
26
13
-4
-33
-54
-52
-56
-55
-29
-24
-27
3
-16
-74
0
177
344
522
491
54
-340
-292
-130
-148
-183
-153
-142
-144
-135
-121
-94
-78
-81
-70
-49
-42
-19
29
65
90
138
189
211
226
247
238
195
151
102
39
-6
-30
-50
-65
-67
-67
-68
-72
-81
-73
-49
-52
-88
-102
-77
-73
-109
-110
-47
2
-9
-40
-60
-72
-83
-96
-93
-69
-69
-91
-76
-62
-74
-24
58
128
353
587
349
-169
-310
-137
-109
-172
-138
-109
-136
-136
-110
-102
-100
-93
-80
-60
-42
-29
5
61
106
147
209
259
271
277
284
273
246
199
133
71
22
-25
-56
-69
-79
-87
-88
-85
-85
-92
-101
-107
-120
-125
-102
-83
-96
-81
-11
35
13
-16
-20
-24
-33
-32
-17
-6
-13
-9
10
-14
-40
27
151
356
689
792
368
-124
-203
-101
-124
-170
-156
-143
-139
-135
-136
-123
-101
-95
-84
-53
-30
-24
-5
34
68
87
104
123
137
144
146
138
110
63
10
-33
-65
-82
-86
-88
-87
-73
-55
-55
-56
-42
-34
-48
-69
-80
-68
-38
-35
-54
-26
39
51
7
-17
-22
-42
-56
-45
-38
-53
-66
-54
-39
-63
-82
-34
63
236
452
410
17
-283
-236
-131
-147
-157
-134
-134
-135
-125
-123
-119
-111
-100
-76
-53
-38
-16
12
44
93
151
201
249
292
316
317
291
249
202
136
59
10
-14
-39
-61
-69
-76
-85
-91
-90
-82
-70
-74
-97
-110
-92
-72
-77
-72
-20
35
40
15
-4
-19
-25
-16
-14
-22
-29
-31
-5
19
-16
-24
73
197
400
665
571
52
-266
-163
-74
-129
-129
-100
-117
-113
-90
-99
-101
-73
-64
-66
-36
-4
-4
4
40
78
122
178
214
229
247
245
206
151
95
36
-22
-71
-105
-123
-135
-144
-139
-136
-142
-140
-137
-137
-138
-153
-165
-141
-122
-144
-136
-58
5
0
-30
-49
-59
-68
-78
-72
-47
-39
-42
-8
2
-48
-18
119
244
413
539
271
-206
-317
-137
-94
-148
-137
-126
-124
-101
-108
-127
-104
-80
-85
-78
-49
-29
-15
20
62
100
151
214
259
289
313
311
275
214
133
63
28
8
-16
-36
-43
-30
-6
-2
-10
0
20
27
15
-7
-14
2
5
-15
-6
46
82
64
24
-9
-25
-28
-33
-41
-34
-28
-29
-13
-19
-51
-12
89
234
515
693
371
-141
-263
-134
-130
-172
-153
-158
-171
-147
-150
-161
-131
-120
-151
-145
-99
-70
-57
-33
-6
27
71
110
133
148
159
154
125
78
32
-8
-44
-65
-71
-79
-91
-102
-110
-105
-94
-96
-104
-101
-94
-97
-104
-91
-65
-58
-58
-26
5
-11
-50
-77
-95
-99
-95
-101
-99
-88
-94
-83
-54
-77
-86
15
130
270
510
531
120
-242
-217
-123
-158
-165
-131
-133
-145
-149
-146
-122
-103
-108
-113
-105
-81
-50
-45
-41
14
75
94
117
162
186
188
192
177
136
96
61
27
7
8
30
58
77
90
105
119
133
150
194
258
299
402
676
946
1088
1362
1714
1575
872
190
-168
-318
-355
-339
-350
-381
-392
-388
-392
-410
-424
-436
-470
-503
-511
-530
-570
-567
-517
-467
-407
-309
-213
-140
-57
22
35
-1
-22
-37
-63
-72
-68
-87
-95
-63
-56
-91
-100
-75
-63
-66
-57
-50
-58
-65
-53
-34
-25
-22
-20
-26
-32
-28
-28
-34
-34
-40
-64
-74
-56
-44
-63
-77
-72
-74
-76
-35
26
51
46
36
14
3
10
0
-4
17
24
32
56
29
25
159
310
457
670
612
102
-284
-202
-62
-95
-103
-70
-98
-129
-109
-89
-93
-100
-79
-46
-49
-71
-48
5
30
40
77
143
206
236
232
237
260
248
188
128
74
6
-42
-65
-97
-119
-107
-97
-85
-41
10
61
138
228
404
734
1022
1181
1478
1809
1576
751
11
-283
-329
-354
-399
-428
-423
-413
-422
-449
-476
-485
-498
-531
-562
-583
-606
-626
-630
-594
-508
-408
-311
-187
-54
35
77
88
61
15
-7
-2
-2
-13
-13
-10
-20
-23
-6
4
-4
-22
-46
-54
-25
-13
-37
-27
-7
-50
-74
-36
-44
-89
-70
-45
-74
-76
-38
-37
-62
-67
-67
-70
-58
-45
-45
-46
-38
-12
42
107
138
108
58
43
46
41
56
65
41
61
112
86
80
190
299
462
712
621
97
-221
-115
-36
-105
-101
-63
-77
-76
-63
-79
-87
-69
-55
-50
-47
-44
-17
23
41
62
116
161
178
206
237
236
223
225
210
149
78
40
16
-22
-50
-67
-100
-109
-76
-82
-135
-136
-100
-113
-133
-112
-109
-136
-122
-65
-28
-32
-57
-81
-92
-91
-79
-59
-40
-26
-15
9
35
23
15
85
199
346
499
403
9
-242
-148
-37
-68
-88
-61
-50
-53
-56
-56
-46
-33
-29
-38
-41
-9
29
25
22
80
141
157
178
221
225
202
198
179
109
40
4
-29
-66
-95
-128
-146
-119
-80
-77
-97
-114
-121
-124
-135
-137
-114
-103
-116
-80
-11
-30
-79
-41
-61
-154
-57
19
-302
-540
-237
73
-7
-112
-47
14
66
264
518
454
35
-236
-158
-74
-108
-107
-80
-83
-75
-62
-68
-60
-34
-17
-9
-2
1
11
42
86
115
135
177
221
235
237
241
230
201
155
85
23
-5
-25
-57
-83
-91
-87
-90
-101
-107
-115
-126
-120
-113
-125
-117
-85
-91
-107
-55
4
-10
-44
-51
-74
-108
-109
-86
-65
-52
-46
-26
-3
-2
31
121
276
551
737
461
-37
-175
-18
21
-40
-31
-10
-40
-59
-37
-28
-52
-49
-8
2
-13
7
44
60
75
104
133
161
189
212
221
201
170
157
128
52
-16
-38
-64
-99
-102
-95
-97
-81
-67
-84
-90
-74
-91
-112
-84
-71
-107
-98
-29
16
27
29
-6
-50
-60
-83
-120
-94
-61
-89
-92
-73
-115
-107
24
190
442
663
432
-107
-294
-124
-68
-127
-101
-73
-106
-107
-80
-90
-99
-76
-62
-62
-41
-25
-22
18
84
110
114
155
201
198
187
198
174
110
65
17
-73
-141
-146
-144
-157
-149
-131
-139
-147
-128
-115
-134
-147
-136
-129
-127
-116
-102
-72
-24
-6
-46
-95
-106
-96
-101
-112
-106
-97
-89
-73
-78
-101
-63
34
146
288
311
27
-308
-320
-154
-110
-138
-118
-103
-115
-104
-69
-46
-32
-5
34
69
102
136
169
204
233
260
300
343
356
350
348
334
293
243
190
125
68
35
10
-8
-8
-3
-8
1
57
131
182
293
534
794
1024
1275
1337
958
374
-27
-218
-315
-341
-342
-362
-375
-370
-373
-381
-390
-407
-431
-457
-478
-489
-494
-502
-499
-456
-375
-291
-219
-140
-58
-12
-2
7
4
-29
-60
-65
-68
-80
-87
-87
-79
-62
-48
-50
-49
-37
-25
-15
-3
5
10
18
14
-2
-9
-4
-6
-13
-15
-16
-14
-9
-10
-11
-11
-23
-39
-50
-55
-52
-48
-43
-16
36
65
45
15
14
15
-13
-28
-8
1
3
34
27
0
90
229
336
537
637
285
-174
-219
-69
-66
-91
-57
-50
-56
-46
-47
-40
-16
-8
-13
1
31
55
66
78
107
149
192
224
250
277
291
286
267
231
179
131
87
29
-29
-66
-91
-105
-105
-109
-125
-126
-115
-123
-140
-130
-98
-98
-123
-94
-12
24
-5
-31
-33
-41
-62
-80
-56
-9
-11
-37
-34
-44
-36
58
180
351
558
443
-46
-322
-182
-73
-146
-166
-111
-90
-103
-123
-129
-105
-83
-88
-96
-86
-64
-36
-10
19
67
126
178
223
260
274
253
199
133
72
14
-38
-77
-111
-138
-137
-129
-138
-144
-126
-115
-128
-140
-126
-97
-86
-101
-99
-48
3
-6
-53
-75
-70
-74
-84
-68
-41
-33
-29
-22
-36
-35
16
97
267
486
418
-5
-295
-221
-108
-128
-148
-136
-134
-126
-125
-127
-95
-65
-83
-98
-67
-24
5
24
53
101
145
168
205
263
288
267
236
208
164
107
60
33
14
2
3
10
10
6
5
3
-4
-18
-33
-31
-13
-9
-28
-24
12
26
-10
-53
-74
-82
-90
-95
-89
-91
-101
-73
-42
-70
-60
34
150
410
755
659
89
-250
-151
-72
-122
-112
-82
-95
-89
-74
-77
-69
-51
-38
-24
-28
-41
-12
35
45
56
112
151
142
147
177
173
142
117
73
-2
-56
-66
-89
-120
-101
-102
-143
-97
-75
-177
-64
80
-426
-991
-591
85
107
-10
121
126
19
30
44
4
-9
-4
-3
2
20
21
-23
-9
128
260
379
485
293
-157
-329
-164
-83
-134
-115
-64
-62
-75
-69
-46
-26
-18
-16
-17
-7
17
29
48
107
160
178
214
274
307
316
311
266
182
98
27
-43
-110
-150
-151
-151
-179
-198
-188
-169
-161
-177
-187
-155
-136
-177
-179
-74
21
17
-35
-86
-122
-120
-91
-56
-21
-1
21
54
34
26
146
288
386
504
421
-2
-308
-214
-69
-93
-125
-103
-80
-70
-80
-91
-69
-39
-22
-5
3
9
30
54
73
102
148
202
253
274
262
244
221
178
124
75
26
-27
-67
-87
-92
-87
-86
-103
-112
-104
-111
-126
-108
-76
-67
-63
-25
31
52
28
0
-8
29
119
188
191
147
10
-137
-63
143
211
239
335
287
85
-29
-43
-67
-90
-107
-123
-114
-102
-109
-107
-97
-99
-108
-112
-112
-112
-110
-100
-96
-105
-98
-79
-81
-94
-74
-41
-44
-62
-58
-56
-59
-45
-43
-67
-67
-43
-38
-42
-41
-49
-60
-60
-57
-62
-59
-45
-49
-58
-20
40
58
46
23
-15
-22
9
23
11
-10
-15
23
41
7
40
167
314
472
467
123
-221
-204
-55
-42
-53
-19
-19
-36
-26
-16
-18
-22
-21
-15
-8
0
10
28
58
92
118
150
194
227
247
259
245
202
163
119
48
-22
-67
-95
-110
-114
-116
-108
-92
-100
-119
-109
-89
-84
-79
-68
-51
-9
27
11
-26
-48
-74
-101
-91
-64
-66
-76
-66
-79
-96
-49
10
92
345
558
327
-117
-247
-136
-110
-138
-116
-86
-67
-56
-64
-65
-54
-60
-68
-52
-31
-20
-6
20
57
97
131
164
196
213
206
184
156
113
58
10
-26
-59
-85
-97
-104
-110
-114
-112
-110
-124
-145
-133
-85
-26
36
110
268
553
799
907
1109
1386
1259
650
72
-214
-349
-400
-380
-383
-430
-451
-446
-456
-471
-469
-465
-476
-498
-529
-565
-587
-589
-574
-523
-416
-281
-154
-35
84
179
219
216
197
166
137
121
107
87
75
70
58
50
43
23
8
13
10
-13
-22
-7
4
3
-1
-5
-4
-3
-18
-32
-12
2
-28
-38
21
90
110
90
66
62
67
63
63
64
59
78
83
42
75
208
340
540
705
423
-140
-320
-134
-80
-157
-141
-105
-119
-111
-80
-72
-77
-77
-72
-55
-23
15
46
69
96
131
168
203
235
261
271
260
229
185
136
84
33
-1
-18
-38
-57
-65
-67
-59
-45
-51
-76
-83
-65
-64
-89
-93
-47
-1
-7
-47
-74
-90
-113
-118
-95
-96
-111
-79
-58
-102
-76
42
126
249
366
145
-263
-337
-168
-143
-194
-164
-134
-136
-129
-119
-104
-85
-76
-70
-65
-61
-23
41
72
80
127
205
266
299
302
276
249
225
180
110
40
-17
-61
-95
-116
-119
-121
-132
-141
-143
-152
-153
-131
-119
-133
-120
-63
-31
-44
-58
-70
-96
-109
-89
-66
-65
-60
-28
-22
-45
-15
56
198
507
697
383
-101
-214
-114
-136
-179
-139
-121
-137
-122
-110
-128
-136
-113
-87
-72
-60
-39
-8
29
74
122
163
199
226
233
222
198
163
126
89
44
1
-26
-41
-44
-39
-36
-34
-23
-15
-20
-28
-16
12
28
20
33
83
107
72
29
16
8
-9
-7
9
3
-8
8
1
-31
4
100
236
454
507
143
-251
-243
-92
-108
-149
-126
-128
-136
-118
-117
-125
-107
-86
-83
-73
-43
-10
4
23
73
127
160
187
216
233
237
232
212
179
128
64
9
-24
-40
-50
-55
-53
-56
-72
-91
-106
-116
-111
-104
-113
-116
-84
-43
-41
-77
-113
-133
-150
-158
-141
-130
-130
-100
-82
-110
-86
-3
113
390
641
403
-121
-299
-178
-154
-185
-148
-137
-155
-148
-152
-168
-151
-127
-126
-127
-118
-105
-80
-46
-21
13
82
155
196
209
203
180
153
117
53
-8
-33
-56
-91
-97
-81
-85
-90
-64
-44
-55
-53
-26
-12
-20
-3
58
118
127
100
77
63
53
64
91
96
90
113
120
93
143
282
418
575
662
418
-23
-185
45
