# session 234
364
386
409
471
525
526
556
629
669
723
703
474
396
499
191
32
566
-204
-3216
-5687
-6074
-5314
-3082
-21
1057
562
949
1120
-350
-1638
-1462
-423
845
1465
975
13
-405
316
334
-2291
-4153
-1933
658
413
-178
199
150
-124
-1
-31
-239
-234
-168
-150
-104
-53
104
314
352
443
614
467
428
627
230
224
1142
-162
-3268
-3008
-886
-1965
-3138
-734
1317
789
440
804
652
479
630
627
548
574
584
591
617
611
610
627
623
593
583
621
575
450
525
619
461
574
773
299
400
1294
-385
-4168
-4273
-402
1584
-102
-2249
-2479
-964
505
677
326
299
303
249
348
438
430
453
481
475
502
564
634
708
745
736
734
748
728
676
640
577
374
92
4
177
283
185
163
165
-24
108
351
-1087
-3686
-3639
-721
425
-1111
-1476
-160
254
-89
107
364
351
458
522
470
605
771
863
1209
1505
1059
293
156
435
378
227
410
377
82
307
409
-64
492
914
-1643
-3580
-1049
911
-800
-1352
-442
-2069
-3653
-1649
838
1016
501
547
657
534
446
576
476
207
685
857
-850
-1970
-171
1721
1552
1393
2209
2678
2280
1167
216
486
557
-811
-1513
-755
19
818
-1
-3783
-5108
-1752
-855
-3284
-2261
484
-403
-1787
-495
553
250
388
776
712
697
766
687
667
674
652
702
640
627
818
539
289
1063
305
-3661
-5692
-2403
1119
1190
598
919
948
782
755
612
719
561
-784
-1889
-1207
181
846
514
-60
577
1016
-1660
-4366
-2439
851
1159
536
648
341
226
841
1030
891
1094
1286
1530
1845
1436
607
458
678
592
554
597
434
509
638
264
483
1262
-81
-3083
-3876
-2281
-1000
-376
166
317
340
581
725
715
744
763
734
689
651
622
537
520
667
603
430
660
623
249
957
1128
-1763
-3911
-1372
1996
2490
1776
1024
516
1038
870
-1373
-3377
-3562
-2621
-918
271
-181
-220
541
-1551
-5442
-5027
-900
747
-251
33
1117
791
40
230
570
444
632
1062
673
461
1383
265
-3771
-4623
-650
1474
535
984
988
-1617
-1956
556
319
-1996
-2346
-2078
-2311
-1221
251
306
82
431
682
797
967
1012
1050
1166
1170
1116
1121
1084
999
985
1014
1008
1028
1061
982
911
1010
1102
1188
1488
1536
931
460
564
562
451
580
388
196
709
63
-2563
-3547
-1474
185
201
-12
-348
126
1116
-1113
-4866
-3647
581
1431
352
743
1110
639
593
729
546
476
515
465
476
533
541
532
488
442
453
460
503
611
511
323
493
472
-155
-115
599
-364
-2780
-3489
-2144
-1131
-1055
-1055
-873
-558
-366
-619
-866
-615
-220
-2
162
275
323
389
421
424
470
481
476
518
524
629
754
482
464
1043
-133
-3834
-5657
-2892
647
1423
880
935
1028
662
619
902
105
-2076
-3656
-2943
-793
759
1014
793
793
1002
1264
1476
1666
1970
2234
2121
1636
1035
527
251
193
195
153
95
91
93
9
-25
35
-96
-281
-207
-319
-571
-264
-238
-721
139
409
-3113
-5425
-2138
206
-1906
-2540
-1155
-1790
-1914
437
1328
65
-332
64
33
97
372
426
475
625
671
662
672
655
655
702
732
715
699
738
802
813
772
735
725
770
914
1085
1191
1342
1558
1511
1223
1170
1178
876
701
505
-495
-1406
-1285
-1600
-2882
-2921
-1167
170
170
-121
-187
-237
-246
-201
-216
-231
-183
-147
-127
-55
58
157
220
278
353
408
420
425
431
441
483
547
569
507
480
577
531
354
544
643
211
645
1192
-1869
-6340
-5422
-1173
-907
-2722
-1348
532
-92
-210
1252
1280
-135
-136
675
-593
-2552
-1675
595
923
278
450
591
286
252
346
223
119
127
157
228
331
456
626
769
815
815
835
853
820
738
700
718
668
626
686
577
444
659
239
-1421
-2154
-632
717
135
-734
-638
-491
-543
9
453
167
852
1709
-950
-4552
-3060
934
1504
252
375
622
228
205
345
204
150
214
175
118
114
100
30
-74
-119
-131
-191
-192
-138
-184
-144
10
-64
38
436
-323
-1973
-1809
-185
232
270
866
-513
-3138
-2752
-314
310
-119
323
743
698
879
1123
1252
1475
1600
1559
1501
1256
891
722
543
157
-70
-3
31
-45
-68
-54
-96
-176
-250
-299
-296
-287
-358
-401
-314
-299
-269
34
109
-66
390
435
-1383
-2666
-1205
406
92
-426
-206
-150
-251
-143
-87
-113
-57
-21
-29
-3
28
60
121
166
170
178
200
188
139
111
117
100
41
2
28
51
26
25
87
133
140
160
160
104
70
85
57
-5
-1
34
21
43
141
195
249
390
339
-26
-254
-122
27
30
39
62
41
37
62
61
59
99
158
218
272
280
305
369
189
-195
-38
616
402
-1203
-2969
-3456
-2153
-80
914
637
429
576
529
420
453
454
448
498
486
443
489
563
569
525
474
438
411
369
328
337
368
358
351
378
360
378
556
718
821
759
30
-482
416
213
-2864
-4286
-1721
117
-293
-201
-841
-3180
-3490
-1000
555
19
-383
406
380
-1941
-3515
-1592
826
868
368
654
684
431
465
478
368
380
407
356
337
346
349
371
366
328
358
437
452
423
408
375
332
323
312
277
265
274
253
254
334
399
442
584
633
325
-20
-13
126
137
137
174
151
120
145
165
146
125
116
116
122
127
130
150
194
240
268
292
314
311
276
218
145
73
18
-21
-50
-70
-80
-83
-92
-107
-104
-95
-110
-109
-51
12
52
67
-11
-61
46
4
-148
56
60
-380
21
447
-1392
-3564
-3049
-1434
-648
-48
199
-197
-196
143
29
-65
107
-84
-224
161
-191
-1473
-1612
-504
-140
-381
-59
273
157
158
292
270
249
290
278
237
182
111
71
55
35
44
66
48
21
34
69
96
102
114
203
328
398
540
824
1016
1146
1490
1743
1389
686
176
-103
-258
-281
-270
-316
-350
-330
-309
-304
-293
-280
-283
-301
-330
-362
-376
-351
-283
-181
-66
56
195
319
378
376
347
298
248
232
228
190
139
126
140
137
129
141
146
135
154
190
183
159
165
172
168
192
231
260
304
321
282
277
323
317
269
269
287
264
231
200
136
101
179
328
499
644
541
122
-155
-2
110
-16
77
135
-210
-36
419
-1010
-4049
-5964
-5815
-4002
-1130
831
789
331
666
999
422
-987
-2463
-2850
-1465
574
1376
1008
849
974
845
730
787
716
578
581
607
576
579
569
518
596
685
548
505
603
378
383
825
200
-785
119
176
-3628
-6276
-3293
732
1480
1064
1082
708
490
751
562
487
889
-191
-2525
-2641
-299
1081
758
599
819
730
627
716
721
675
706
733
741
767
753
674
584
512
452
392
324
278
257
228
241
254
145
141
289
106
-39
389
33
-1555
-1818
-97
971
821
1033
1422
1203
813
501
126
-67
-80
-220
-377
-353
-304
-363
-420
-399
-426
-521
-495
-491
-807
-1078
-891
-658
-725
-786
-706
-640
-566
-449
-356
-275
-192
-133
-70
-24
-54
-90
-60
-27
8
157
391
598
794
920
839
710
680
604
534
284
-811
-2037
-1572
16
227
-924
-1191
-329
97
-82
-73
29
17
86
87
46
207
139
-41
407
321
-1290
-2005
-466
698
297
72
355
307
219
334
301
221
271
272
223
250
281
274
277
265
258
292
284
279
349
318
274
428
338
97
548
535
-1444
-2912
-1287
1010
1318
915
1094
1138
805
600
478
227
4
-41
-7
-22
-75
-106
-136
-195
-253
-301
-377
-457
-501
-536
-554
-508
-453
-411
-268
-77
9
78
191
259
359
430
339
435
554
180
335
947
-1098
-5131
-5543
-2256
-672
-1040
-169
1132
1236
1204
1549
1597
1594
1877
1860
1304
822
607
302
230
550
-134
-2123
-2825
-1113
504
530
277
416
376
222
225
168
47
82
212
338
473
568
655
796
797
648
661
598
278
451
648
-960
-3266
-2984
-579
723
439
222
422
381
201
400
446
7
397
826
-1805
-5282
-4103
-102
1162
362
455
774
522
491
651
602
561
588
582
584
565
574
608
381
50
183
529
467
305
408
457
473
599
268
-783
-2058
-2881
-2413
-794
574
1063
623
-372
-179
377
-1662
-3539
-1687
-449
-2179
-1880
782
1360
531
716
942
683
711
771
654
701
742
631
625
703
726
767
801
768
789
824
711
618
619
433
314
590
247
-1530
-3191
-2811
-985
271
307
39
95
218
217
234
290
314
311
266
189
147
157
175
176
142
117
177
231
184
217
391
514
654
840
653
115
-102
112
226
109
84
201
169
75
213
160
-221
-265
-959
-3522
-5154
-3263
-1106
-1780
-2603
-1042
906
1268
930
897
880
702
626
644
615
582
570
546
529
509
461
459
530
566
564
675
905
1069
1134
1267
1502
1764
1975
1896
1478
918
199
-135
414
-294
-3914
-6506
-4230
-379
757
242
30
-370
-1361
-2150
-1807
-529
215
-74
-310
-96
70
188
386
490
515
573
599
582
584
565
522
543
596
587
580
618
632
679
737
661
629
702
573
528
716
430
361
1200
19
-4119
-5786
-2858
-744
-1932
-2948
-2057
-632
673
1525
993
322
1445
1310
-2628
-4463
-1000
585
-1975
-2000
942
1801
1071
1215
1408
1154
1146
1170
1040
1064
1122
1037
985
1020
1022
987
1020
1117
1122
1104
1236
1256
1144
1344
1336
788
1048
1475
-690
-3877
-3989
-2068
-1783
-2870
-2650
-786
613
567
198
400
1034
1281
945
1633
2424
-564
-4776
-3587
616
1372
103
263
594
239
239
352
170
145
200
65
-11
21
-38
-150
-243
-299
-267
-237
-218
-74
91
276
576
514
263
771
899
-759
-1791
-242
1444
1545
1266
1167
942
296
-565
-161
321
-2738
-6229
-4115
-413
-1356
-2848
-766
982
417
174
567
460
345
452
401
404
558
629
668
747
773
767
761
692
617
621
607
555
555
515
449
525
503
344
490
519
156
471
698
-1069
-2646
-1609
-713
-1485
-1251
9
126
-201
96
245
115
193
262
199
212
250
233
232
245
241
234
224
211
193
160
122
96
76
49
36
89
184
227
210
204
214
213
202
175
183
244
216
131
217
369
409
542
662
304
-226
-274
-43
-9
-65
-28
-14
-79
-112
-86
-84
-49
54
-5
-157
-79
-476
-2595
-5582
-6332
-3491
106
1309
826
710
898
771
667
700
613
503
472
421
355
324
299
270
262
268
265
272
314
348
330
293
268
231
186
174
182
163
150
175
168
131
157
221
366
699
872
495
7
-30
147
171
137
142
127
107
100
74
34
-2
-23
-18
-6
-18
-23
16
61
68
85
164
212
125
27
52
79
-2
-99
-162
-185
-111
-73
-194
-247
-165
-141
-69
-30
-254
-113
301
-777
-2831
-2740
-634
372
-66
-227
6
91
117
87
43
157
273
308
349
192
-169
-294
-136
-56
-89
-86
-87
-111
-91
-56
-54
-51
-17
25
43
37
44
101
185
238
261
299
351
373
351
310
276
236
165
91
61
68
74
51
3
-15
17
22
-13
1
66
110
117
102
77
78
79
50
49
65
58
130
199
88
115
405
429
380
720
501
-328
-5
469
-1296
-2851
-1281
596
309
-150
200
246
128
269
256
174
298
377
341
388
475
510
526
517
476
466
494
480
404
306
220
211
250
175
86
153
145
91
280
251
-2
517
950
-882
-4448
-6753
-5236
-695
1680
-571
-2535
-1376
-589
-988
-194
810
530
252
491
471
327
333
322
281
223
235
253
39
161
709
25
-1670
-1470
582
1507
1070
977
1155
1046
956
955
926
968
1022
1018
996
940
919
929
859
865
895
658
638
1033
341
-2480
-5634
-5747
-2094
934
-166
-1804
-303
1523
1430
1203
1059
342
381
1204
1345
1100
1194
1223
1138
1205
1347
1651
1862
1390
666
476
591
602
522
385
429
591
373
341
828
23
-2192
-2626
-600
1117
1092
-1128
-5090
-6540
-3163
-171
-1163
-2432
-2025
-1671
-365
1620
179
-3820
-5407
-4942
-4467
-2037
1559
1709
-780
-932
1097
1835
1355
1367
1556
1384
1308
1446
1526
1572
1672
1742
1780
2013
2444
2527
1935
1143
668
458
331
282
268
211
145
94
24
-44
-108
-218
-299
-349
-517
-626
-525
-592
-676
-302
-352
-1322
-1528
-396
263
-28
-108
83
67
52
110
63
9
25
25
-7
-62
-112
-90
-38
-51
-105
-115
-63
-10
-12
-50
-85
-112
-135
-170
-179
-81
19
-24
-80
-72
-59
148
421
410
615
672
-1076
-2848
-1312
441
-1755
-3778
-1659
564
107
-343
96
69
-91
88
103
22
124
206
221
295
346
366
472
499
369
452
567
205
183
711
-445
-3146
-3400
-735
850
458
413
803
540
216
298
427
863
988
-692
-2546
-1616
612
1096
599
738
925
760
794
952
968
1158
1506
1407
844
510
596
680
625
603
640
665
665
691
765
784
719
720
793
802
803
892
974
989
1014
1063
1081
1054
1008
994
944
785
685
672
590
437
-524
-2635
-3222
-1081
-639
-3208
-3207
178
1642
845
931
1474
1486
1720
1999
1760
1322
846
355
120
88
23
-68
-126
-155
-180
-236
-254
-266
-409
-470
-429
-717
-819
-378
-1326
-4050
-4952
-2984
-1195
-53
624
-2033
-6194
-5640
-1991
-1387
-2538
-1627
-108
163
90
131
19
-35
4
-33
-73
-65
-66
-82
-127
-192
-213
-207
-245
-280
-221
-137
-148
-194
-185
-181
-226
-247
-235
-236
-209
-157
-175
-170
8
169
235
494
688
308
-169
-259
-236
31
147
-1337
-3360
-2883
-522
541
145
107
494
483
403
791
914
619
1277
1849
-90
-1919
-68
2478
2401
1846
2311
2421
2193
2367
2477
2448
2645
2783
2872
3183
3231
3160
3774
3533
575
-2183
-1181
881
370
