# session 97
26
166
302
503
458
-6
-348
-260
-136
-163
-157
-124
-144
-151
-137
-149
-153
-131
-126
-128
-106
-76
-49
-12
33
91
158
205
229
253
255
210
133
47
-26
-73
-119
-174
-206
-215
-229
-222
-175
-147
-155
-121
-27
58
117
180
263
399
588
753
913
1145
1256
942
329
-153
-353
-428
-470
-458
-433
-449
-476
-474
-473
-501
-538
-573
-616
-666
-707
-733
-750
-741
-665
-514
-341
-174
-9
114
170
194
193
155
115
86
68
81
87
51
45
82
83
52
46
49
56
79
65
30
94
233
338
477
688
807
848
965
1024
882
673
448
192
45
4
-82
-156
-141
-143
-181
-180
-171
-205
-241
-258
-290
-334
-359
-373
-392
-398
-387
-365
-307
-205
-110
-53
-6
38
68
92
101
79
60
72
81
72
73
84
89
93
98
93
65
23
16
44
35
5
43
115
122
81
61
49
9
-13
10
2
-50
-56
-43
-54
10
128
272
579
765
341
-280
-387
-207
-203
-256
-234
-233
-234
-212
-215
-213
-187
-175
-176
-172
-162
-126
-61
1
45
96
172
241
258
234
192
120
21
-71
-136
-183
-216
-235
-247
-238
-198
-165
-165
-157
-115
-70
-42
-45
-95
-143
-138
-120
-126
-139
-136
-111
-103
-121
-72
42
144
328
481
210
-290
-409
-226
-172
-198
-164
-153
-159
-132
-119
-111
-78
-52
-32
10
58
104
160
221
288
367
443
492
506
485
429
330
218
155
142
128
99
86
103
149
190
197
197
225
260
323
442
535
581
689
824
877
965
1154
1170
847
427
161
50
20
19
16
6
-2
-6
-12
-26
-46
-80
-125
-145
-156
-242
-368
-392
-361
-481
-765
-1051
-1228
-1257
-1159
-1038
-960
-898
-842
-800
-748
-680
-604
-517
-426
-358
-313
-267
-217
-176
-149
-132
-127
-120
-93
-69
-95
-128
-83
-4
21
21
28
8
4
69
126
142
175
179
172
288
441
570
876
1102
686
5
-150
49
81
25
35
29
11
-13
-100
-161
-119
-82
-105
-114
-102
-139
-207
-204
-91
70
214
305
343
350
328
269
192
101
10
-26
-11
-8
-21
-29
-25
8
50
81
170
343
494
613
795
971
1095
1346
1657
1539
883
199
-175
-340
-409
-422
-436
-444
-443
-493
-551
-550
-559
-629
-699
-736
-770
-806
-821
-801
-723
-572
-400
-261
-120
34
107
88
68
68
39
7
17
43
43
36
59
86
77
60
72
82
72
66
63
53
46
39
28
45
98
140
148
146
138
103
77
104
125
103
125
160
114
130
271
364
565
950
889
210
-221
-77
43
-40
-41
11
-16
-41
-13
14
20
19
27
48
70
94
137
184
208
239
304
364
374
355
319
270
241
199
82
-22
-25
-50
-150
-174
-204
-470
-785
-841
-788
-796
-732
-604
-570
-568
-506
-458
-436
-377
-317
-285
-247
-223
-191
-89
15
126
340
403
64
-281
-247
-97
-86
-90
-61
-61
-49
-18
-25
-47
-43
-30
-17
14
53
89
136
198
255
301
338
349
329
297
240
139
34
-33
-65
-81
-93
-113
-129
-137
-129
-96
-70
-79
-65
-4
29
10
5
16
1
-13
13
34
27
43
58
34
72
186
270
413
587
410
-60
-237
-75
7
-30
-19
2
-2
7
13
14
30
39
42
62
85
99
127
171
222
284
348
383
391
383
342
258
160
82
29
-11
-37
-56
-76
-87
-79
-61
-43
-38
-31
17
87
97
48
24
25
-1
-15
-4
-21
-33
-10
-45
-85
4
127
227
334
170
-358
-713
-625
-487
-488
-450
-371
-346
-340
-320
-292
-258
-237
-225
-179
-118
-84
-44
31
106
162
222
276
296
288
229
112
12
-35
-103
-201
-229
-180
-158
-194
-204
-157
-121
-133
-139
-91
-10
43
20
-24
-31
-41
-40
35
115
161
239
300
354
575
876
1018
1027
861
364
-161
-308
-238
-238
-260
-242
-239
-237
-228
-245
-270
-285
-313
-357
-392
-414
-442
-474
-472
-417
-332
-236
-138
-48
37
102
110
71
41
40
44
39
34
31
49
131
257
367
524
795
1079
1341
1680
1987
1941
1418
647
9
-273
-305
-307
-351
-391
-405
-418
-451
-483
-509
-570
-653
-702
-736
-783
-790
-713
-580
-429
-270
-116
-9
-20
-148
-262
-260
-205
-180
-165
-132
-109
-107
-83
-39
-18
-16
-1
10
1
3
24
37
30
15
7
8
9
13
19
6
-5
39
112
134
115
110
93
48
34
52
35
23
57
46
18
96
187
299
629
827
406
-161
-230
-83
-99
-123
-87
-102
-107
-70
-78
-100
-68
-29
-14
13
50
83
123
169
218
285
344
357
348
340
303
228
145
67
-2
-51
-84
-109
-119
-123
-126
-106
-71
-70
-77
-14
99
170
194
268
411
542
665
859
1016
905
507
40
-288
-427
-465
-481
-477
-473
-497
-511
-505
-529
-565
-573
-600
-654
-671
-655
-644
-606
-508
-382
-252
-117
4
79
107
104
74
36
9
-10
-27
-28
-21
-24
-31
-26
-10
8
19
7
-14
-7
22
32
22
26
61
107
122
92
60
58
59
58
64
57
56
83
74
46
118
228
340
585
715
327
-195
-249
-58
-39
-76
-34
-16
-30
-16
-6
-12
-1
21
36
57
86
109
130
175
251
325
372
409
432
416
372
310
218
119
52
-10
-69
-88
-91
-119
-137
-117
-104
-107
-75
7
102
184
258
350
500
694
876
1078
1333
1439
1119
463
-128
-422
-514
-542
-551
-568
-594
-610
-623
-639
-658
-701
-766
-820
-859
-898
-935
-944
-901
-796
-643
-468
-294
-140
-34
10
18
12
-13
-33
-26
-21
-35
-41
-26
-7
1
3
8
10
0
2
35
40
-17
-38
49
142
146
106
81
60
44
43
37
23
52
94
51
23
160
320
429
622
644
191
-259
-217
-23
-37
-94
-67
-39
-35
-45
-53
-21
14
-3
-11
32
76
116
184
251
310
389
460
480
463
430
364
267
170
85
10
-44
-64
-77
-105
-112
-84
-63
-62
-46
4
102
224
278
282
381
587
758
922
1212
1496
1462
1028
429
-65
-344
-447
-468
-477
-485
-494
-524
-567
-586
-594
-628
-679
-720
-761
-810
-833
-801
-729
-635
-507
-359
-228
-120
-34
1
-13
-29
-34
-51
-73
-73
-55
-36
-25
-26
-21
-5
-5
-29
-44
-37
-18
7
9
-11
11
75
92
57
38
34
8
-5
10
5
-6
16
29
32
84
160
319
627
724
289
-220
-275
-107
-85
-131
-108
-64
-51
-54
-43
-22
-12
3
34
58
78
116
155
190
249
323
360
361
369
367
316
239
177
118
43
-23
-42
-34
-45
-77
-91
-68
-22
1
8
74
186
265
356
495
599
705
888
908
561
94
-203
-346
-404
-406
-423
-455
-452
-442
-461
-486
-503
-521
-547
-575
-594
-606
-609
-577
-496
-385
-256
-118
4
79
104
100
81
43
-6
-24
-10
-15
-44
-55
-42
-29
-17
-1
12
16
14
3
-17
-21
0
18
7
3
47
103
112
85
56
30
13
18
18
7
33
62
25
39
189
330
499
782
743
161
-290
-197
-21
-44
-67
-34
-31
-43
-39
-22
-5
-4
2
36
68
78
93
147
230
300
346
383
404
409
398
335
224
134
74
-6
-90
-131
-138
-138
-139
-139
-123
-94
-73
-12
140
306
419
565
769
941
1110
1320
1345
973
365
-162
-454
-542
-558
-587
-606
-601
-611
-641
-667
-693
-736
-780
-805
-841
-907
-946
-918
-860
-768
-601
-404
-252
-136
-29
28
21
-4
-11
-19
-39
-45
-26
-17
-17
6
24
10
10
43
55
27
4
12
38
37
-1
-7
67
156
175
141
109
84
67
72
68
43
62
100
69
75
204
311
462
770
767
204
-239
-154
-9
-54
-68
-27
-29
-32
-15
-6
-7
-8
18
61
59
50
108
181
219
270
334
377
410
419
371
298
225
125
14
-56
-95
-139
-162
-148
-137
-137
-112
-71
-40
13
119
220
286
391
559
707
864
1108
1263
1067
572
73
-243
-385
-437
-453
-461
-478
-484
-468
-475
-524
-574
-603
-622
-644
-668
-691
-693
-637
-511
-359
-220
-83
42
107
111
93
65
35
17
-7
-37
-35
-13
-15
-20
-10
-9
-8
8
11
-3
-13
-19
-3
41
59
50
77
118
115
90
80
79
74
51
4
-19
12
33
7
39
149
224
294
370
220
-124
-247
-97
-4
-21
-10
6
-5
-3
2
-4
-1
7
9
21
43
62
89
127
164
210
264
295
296
287
257
189
98
8
-76
-150
-203
-236
-263
-285
-290
-266
-233
-223
-215
-167
-96
-62
-84
-118
-126
-121
-115
-97
-83
-79
-68
-81
-96
-9
134
251
391
380
6
-358
-310
-134
-131
-144
-89
-67
-64
-34
-15
-6
14
22
25
59
103
130
173
237
292
352
421
450
432
388
295
168
70
6
-46
-73
-87
-109
-119
-104
-87
-81
-92
-99
-51
44
85
39
-8
-10
-9
-22
-28
-44
-46
-2
-5
-58
25
203
314
469
568
226
-293
-368
-155
-121
-194
-179
-159
-176
-163
-139
-153
-157
-118
-105
-117
-68
7
33
82
183
241
264
307
301
218
129
44
-66
-156
-199
-221
-231
-229
-244
-267
-249
-200
-180
-189
-167
-97
-33
-26
-68
-108
-120
-122
-118
-109
-111
-92
-52
-72
-68
80
214
310
554
628
171
-288
-251
-98
-132
-147
-101
-111
-122
-99
-96
-99
-80
-58
-41
-22
2
38
89
134
184
273
358
360
313
282
222
104
9
-34
-68
-99
-119
-140
-146
-131
-118
-106
-86
-73
-48
10
56
51
18
-2
20
72
121
189
292
368
425
544
685
805
1004
1138
825
179
-260
-354
-361
-369
-351
-349
-358
-354
-378
-412
-408
-412
-461
-506
-533
-568
-584
-561
-532
-494
-404
-275
-160
-68
15
69
72
68
85
87
75
101
149
210
357
585
789
993
1241
1311
997
485
84
-129
-225
-262
-286
-314
-336
-341
-344
-363
-385
-400
-422
-441
-436
-406
-337
-230
-125
-41
36
102
134
122
83
49
32
26
22
8
-3
10
27
26
22
25
21
13
9
4
2
7
12
15
18
20
17
10
6
0
-15
-38
-45
-32
-25
-39
-35
14
56
40
-2
-24
-35
-41
-36
-50
-69
-52
-52
-83
-32
82
185
344
398
52
-389
-420
-225
-185
-212
-174
-148
-146
-120
-100
-96
-74
-39
-16
-1
25
67
116
169
237
312
366
393
403
382
326
262
198
117
25
-43
-70
-80
-86
-82
-72
-56
-22
13
39
101
226
358
460
589
765
923
1100
1388
1580
1288
557
-99
-373
-422
-443
-458
-465
-484
-500
-506
-527
-572
-625
-673
-707
-736
-781
-823
-820
-780
-708
-562
-361
-190
-73
15
73
96
86
51
15
-8
-15
-5
5
-2
-18
-19
3
16
-4
-28
-32
-35
-40
-35
-49
-73
-41
47
110
108
68
35
30
39
39
17
9
47
37
-15
78
251
331
539
842
636
-10
-291
-129
-60
-124
-114
-90
-101
-85
-64
-66
-55
-31
-22
-2
45
76
96
153
217
267
343
408
384
327
302
249
136
33
-31
-82
-120
-150
-187
-202
-177
-152
-153
-151
-117
-61
-24
-29
-55
-84
-126
-154
-147
-146
-151
-109
-80
-114
-70
64
132
257
470
332
-162
-385
-237
-150
-186
-188
-180
-171
-134
-121
-133
-129
-105
-54
4
23
34
91
159
209
264
316
337
332
304
250
170
72
-16
-65
-83
-93
-96
-90
-91
-93
-67
-25
-13
-10
44
121
166
188
219
293
434
566
649
825
1111
1192
859
321
-97
-288
-331
-329
-331
-347
-362
-367
-380
-410
-434
-440
-456
-484
-503
-524
-550
-531
-449
-358
-275
-172
-65
12
65
88
71
39
17
-1
-9
-14
-26
-31
-25
-27
-25
-15
-29
-66
-79
-58
-45
-56
-60
-29
9
9
-25
-47
-51
-66
-71
-46
-35
-36
-18
-24
-19
81
179
246
390
387
18
-319
-275
-130
-115
-106
-74
-82
-84
-68
-78
-83
-51
-25
-17
10
49
72
105
165
224
281
348
390
391
371
314
203
79
-9
-61
-104
-144
-165
-174
-183
-175
-147
-136
-122
-51
53
139
205
284
421
609
780
957
1223
1441
1291
711
47
-343
-439
-451
-486
-500
-474
-460
-486
-513
-521
-543
-588
-627
-664
-720
-760
-754
-733
-692
-565
-367
-189
-53
58
114
128
155
200
297
462
563
656
1027
1516
1658
1483
1192
687
98
-235
-336
-380
-384
-378
-379
-340
-295
-316
-395
-494
-596
-683
-735
-746
-716
-637
-504
-331
-138
38
156
202
204
187
162
138
120
112
121
132
122
114
125
120
107
122
130
113
110
109
96
106
115
79
52
61
54
31
33
34
17
24
46
28
0
9
16
-2
-24
-41
-47
-27
-12
-21
-7
53
100
101
87
72
46
38
54
37
20
51
48
29
126
253
373
625
698
226
-282
-269
-92
-120
-157
-115
-123
-145
-122
-107
-107
-98
-84
-67
-50
-36
-11
24
73
145
202
218
232
245
205
131
69
2
-88
-154
-186
-232
-282
-289
-281
-297
-283
-219
-198
-230
-207
-119
-67
-76
-105
-131
-144
-141
-136
-133
-117
-91
-97
-123
-72
38
131
268
357
115
-282
-373
-235
-180
-168
-127
-121
-114
-90
-99
-91
-40
-32
-54
-28
21
47
80
146
221
280
326
356
359
337
286
195
92
30
2
-40
-75
-69
-60
-72
-57
-8
19
21
40
89
126
123
112
116
104
80
98
135
143
157
168
149
198
319
409
588
821
696
274
-7
