# session 215
-442
-9299
-12365
-4879
1754
-4276
-10572
-4557
2961
2317
225
1213
1831
1195
1297
1843
1261
960
2534
731
-7433
-11260
-4164
2659
2511
2345
2715
-2075
-10038
-14752
-10998
-1149
2479
-1721
-2223
-1341
-6157
-6550
1767
5869
2594
799
2089
2984
3276
3576
3759
3837
3681
3610
3791
3552
3471
4006
3341
2807
4833
2956
-5772
-8175
-969
-1249
-9239
-5275
6530
4054
-7072
-5219
3748
1339
-7682
-10741
-9338
-6843
-3559
-1765
-59
1419
-2769
-6952
-1088
5727
2558
-918
3223
6629
5310
4650
5424
5166
4721
5042
5131
4559
4651
5476
2908
-4358
-8058
-2580
4182
4152
112
-2759
-1747
3577
6205
-878
-9710
-8141
-26
4589
5744
4338
-2270
-8055
-5743
-1144
-485
-327
-534
-5565
-10611
-7136
-279
-1092
-5198
-876
7150
5408
-3615
-5692
1718
7218
4424
-1602
-6019
-6701
-653
6150
1796
-7756
-5882
3949
7103
4613
4267
4943
4452
4346
4423
4022
3990
3923
3523
3596
3250
2507
3398
3666
680
-1556
-2330
-5877
-7442
-1492
4086
3470
2465
3218
2623
781
-3785
-10565
-9784
-695
1860
-3391
-2344
3460
3459
2020
3573
916
-5760
-8577
-8226
-6940
-1970
3371
3859
3010
3315
2510
2866
3802
-1702
-8928
-6320
-132
-2228
-5883
-1850
3405
3426
2235
2690
2887
2617
2832
2989
2621
2176
2060
2224
2305
2181
2148
2179
2063
2076
2145
1898
1997
2308
1590
1630
3084
-268
-8748
-10277
-2242
2823
2258
3213
1409
-7239
-11067
-5007
-1032
-3767
-5921
-5045
-2904
-1291
-2887
-4325
-750
3344
3986
3281
1366
751
3696
2298
-3929
-2537
3061
-151
-5709
-5304
-5464
-5041
1491
3750
-3342
-5492
1749
6163
4866
4572
5197
4521
4549
4784
3958
4850
5686
649
-6323
-7459
-4954
-3012
-1229
-1466
-4673
-5614
-1503
3320
5016
4491
3969
4382
5014
3141
-3018
-8445
-5026
3800
4500
-2969
-4094
2731
6611
6713
5340
-1077
-6308
-1623
3339
-1090
-6920
-7518
-4545
1483
4580
-2348
-9517
-4620
3064
438
-4694
-789
6122
7083
5324
5519
5906
5083
4780
5425
3959
-2143
-8512
-7454
-682
1607
-2889
-6055
-3493
1831
6406
6880
1773
-3805
-5005
-4541
-4411
-1211
4851
7620
3381
-4075
-7518
-5692
-4317
-5626
-6498
-6547
-6762
-5724
-4590
-5023
-3290
637
-202
-4140
-1834
4954
7403
6091
5957
6383
5965
5765
5671
5096
4780
4836
4728
4658
4537
4206
4292
4258
3604
4255
4658
-549
-6968
-3471
5172
3206
-6593
-7625
-1630
-3906
-10621
-5740
4528
2061
-6746
-4808
2249
3541
4209
4261
-3555
-9663
-3316
3565
-56
-5666
-5197
-1939
-719
-3029
-6478
-6265
-1321
4186
5957
4422
4275
6023
3749
-1539
-905
4329
5348
3863
4456
4043
3275
4799
3007
-1946
-1362
1073
-3453
-9830
-10820
-7134
-1260
2019
-520
-3951
-3592
-760
2558
4359
2975
1907
4101
3576
-2033
-3389
340
-623
-3013
1275
5524
4201
3495
4965
4280
3144
4192
2528
-4430
-8100
-3040
2534
3177
3256
1730
-4813
-9826
-9128
-8255
-7793
-3182
2838
4407
2111
-227
-2914
-7328
-8622
-4241
-1968
-3585
-419
5062
3010
-1663
332
4440
3819
2212
3996
4177
-1352
-5047
-675
4526
4193
2915
3727
3655
2865
3572
3348
-819
-6130
-7220
-2819
2850
4464
2548
2634
4065
114
-7112
-9244
-7994
-8554
-7079
-2149
-310
-2322
-3855
-5071
-5049
-746
4150
4847
3948
4207
4363
4328
4351
3437
2672
3473
4470
4441
4138
4493
4944
3899
2778
4094
3799
-1260
-3537
941
4366
3596
2972
2999
3226
3796
735
-6103
-9788
-8506
-7347
-8287
-8445
-5829
-2567
-2090
-3345
-1160
4418
5352
401
-588
2194
-1496
-6557
-1778
5206
4655
3211
5132
3946
4
281
3694
4968
4072
3397
4333
4666
-309
-5717
-1527
5432
1932
-6034
-8207
-7912
-5604
2025
5561
-1439
-7614
-6822
-6625
-7068
-3020
-58
-2599
-4304
-3248
-3673
-2994
2057
6089
5487
4592
5435
4748
3204
4392
5351
2627
868
1616
-29
-1455
2356
6220
5041
1043
-3664
-6105
-2489
3352
5344
5021
3968
-664
-6464
-7569
-6217
-7268
-6448
787
6576
3011
-3887
-6936
-7271
-4616
474
1050
-2605
-1401
4738
6888
2239
-2538
-906
3847
4234
2410
3935
3749
-2241
-4681
1127
4153
-1455
-6366
-3787
1653
4284
4074
2917
2045
2967
4489
1937
-4298
-7914
-7626
-7014
-6939
-7320
-7610
-5306
-1742
-463
-201
-519
-3590
-5255
-814
4508
5179
4062
4142
4257
3990
3982
3963
3785
3674
3634
3577
3346
3205
3394
3129
2659
3289
3124
-526
-5387
-7565
-5980
-1428
3031
4053
2819
2637
3351
2885
2244
3315
2907
-2041
-7590
-10281
-9681
-3551
2987
-141
-6188
-2581
3310
2542
2551
4218
-566
-5032
-1234
-362
-7862
-9976
-2223
3692
3603
3053
3322
2963
2885
2971
2591
2796
2869
2037
2797
3528
-640
-4733
-1302
3657
3043
1829
3199
2542
427
1086
2411
2443
3204
2208
-2814
-6745
-7695
-7901
-4075
2567
2068
-4774
-7113
-5089
-5614
-6197
-1994
3014
3956
3094
3398
3733
3534
3988
4288
3742
4261
5072
2122
-3857
-7348
-5822
-1229
3020
4245
3016
2663
3864
2329
-3925
-8595
-5421
1949
5026
1516
-1823
1188
4174
-1405
-6806
-2090
1395
-4247
-5768
-169
-307
-5216
-7103
-7241
-4433
-133
-2181
-3996
1700
1703
-5769
-3659
4133
3194
487
1794
-1245
-5571
-1786
4503
5574
4592
4668
4624
4473
4424
4260
4736
4256
-374
-6680
-7703
-2296
3297
5269
5194
3208
-1561
-5616
-4796
245
5323
5634
20
-6203
-7513
-5700
-5821
-6605
-2439
4429
5867
2938
2553
4175
5062
5238
1922
-4009
-4674
554
4416
4271
888
-3902
-4396
1100
5318
2738
-3512
-7001
-4035
3159
6511
1372
-4249
-738
5992
4100
-3836
-6347
-1361
4011
5442
4267
3327
3880
2700
-3220
-6605
-344
5024
-422
-4503
1464
3406
-4936
-9107
-3528
2674
5289
4051
-1237
-4145
-257
4659
5223
1665
-2511
-1463
3879
3936
-3124
-7483
-3916
2045
4680
4490
3739
3172
3024
2721
2294
3005
2558
-2295
-7803
-9193
-8303
-7843
-8208
-8825
-7004
-2813
-907
-1821
-2340
-3072
-5390
-6066
-1337
4824
3382
-3673
-3916
2905
5012
1265
-59
2665
5452
4450
-1411
-5608
-2013
3581
4153
2865
3590
4144
2406
-886
-3774
-3760
-503
2575
2931
2224
2335
2594
2449
2458
2657
2720
2770
2917
3045
3340
3828
3628
2592
2088
1992
1276
1500
2285
-970
-6637
-6454
-484
2924
1371
66
2091
2728
-3321
-9368
-5477
1885
1164
-3193
-3538
-3948
-6541
-5373
-178
2955
2606
1934
2606
3144
840
-4316
-8711
-8701
-3759
2266
4589
3679
3218
3734
3662
3163
3319
3577
2667
1741
1405
-1903
-7807
-8908
-4497
-2339
-4057
-5511
-5588
-3541
869
4225
4911
3578
133
-1820
1131
4482
4516
4163
4481
4442
5043
4043
-1295
-4626
451
6129
1962
-5432
-3199
3256
129
-8005
-7628
-246
4924
5360
2718
1273
3718
3673
-2841
-8055
-7507
-5310
-3255
-2168
-3202
-2243
2457
5120
3855
3149
4090
3857
2902
4130
4958
593
-4221
-1828
4262
5957
1380
-4873
-4697
1996
3435
-3547
-8039
-6587
-5705
-6576
-6327
-5601
-5951
-6476
-5084
-1702
99
-2373
-4832
-1588
2534
-20
-2724
2436
7292
5452
4841
6796
3103
-2537
-351
5476
6275
4374
4291
4447
4416
5514
4027
-2123
-5151
91
5512
4853
4019
5706
3282
-3622
-7751
-7598
-6189
-5317
-6564
-7038
-2799
277
-2076
-2068
1600
49
-4628
-3096
2723
5438
4388
3603
5125
5431
1974
134
2260
2385
697
2699
5592
4703
3191
4380
5014
1490
-3452
-5840
-6295
-4395
1138
5114
4407
4428
5129
291
-6897
-8970
-7394
-6878
-7771
-7880
-5439
-1945
-889
-2941
-5404
-4319
746
3998
2793
2099
3995
5462
4358
-816
-7287
-6703
1379
6024
1441
-5490
-5691
682
5196
4787
4969
5238
973
-1855
1933
5002
4275
4142
1493
-5196
-6059
1277
5844
4548
4855
6723
3311
-4575
-9722
-8244
-1878
3253
1991
-2196
-1742
3043
4572
-272
-5195
-3170
3112
4220
-2109
-7373
-7276
-7589
-8328
-3616
602
-2896
-4848
1275
5969
4630
3717
4809
4496
3532
4138
4397
605
-6268
-9692
-6416
-2218
-2577
-4683
-5383
-5099
-1493
4542
3819
-4019
-6105
551
5248
4358
3436
4131
4317
3921
3826
4080
4342
4287
4167
4460
4798
4642
4169
3331
2295
2414
3268
1781
-3208
-9014
-10059
-3243
3204
590
-2874
-85
-968
-6627
-3979
3632
2395
-2921
-1018
3409
2899
2037
4027
2494
-3106
-3752
1717
4780
3194
2560
4256
3198
-1936
-5544
-5931
-6270
-3955
2229
3290
-3398
-8085
-7304
-6058
-6153
-7073
-7261
-4284
-868
-735
-2045
-3350
-3938
-810
3934
5065
4176
4416
4716
4648
4367
3921
4825
4275
-1853
-6705
-2383
4289
5169
3846
4038
4168
4111
3988
3476
4164
4189
-365
-6181
-7941
-6846
-6097
-7034
-7690
-3341
3091
2582
-1815
818
7087
4199
-5235
-6026
1295
2004
-2560
-32
5125
2474
-2965
-2725
1385
3659
2996
3306
4450
499
-4704
-1045
4826
1141
-3675
700
5673
4155
3100
5017
2975
-3364
-5231
753
6043
2136
-5812
-6551
-251
4592
4816
1441
-4264
-8179
-6764
-2777
-2227
-5212
-4078
2180
2435
-5337
-7934
-1687
3274
3609
3204
2977
3698
4423
899
-3408
-1223
3421
3831
2483
2462
2969
2999
802
-3320
-5995
-6164
-4053
356
3861
3934
3033
3377
3976
3018
-360
-3991
-5016
-5747
-8504
-7987
-2126
707
-1339
-725
287
-3791
-5640
-1226
1314
76
509
2907
4027
1279
-3234
-2266
2741
2668
-125
1721
4390
3752
3245
3615
3244
3410
3244
-90
-5116
-7226
-3931
1573
3704
3401
3952
1432
-5202
-8166
-6746
-7106
-6616
-1141
4133
4927
2703
-1489
-5512
-5426
-1338
2566
3559
2670
2263
2786
3147
3090
3090
3150
3091
3012
3026
3099
3134
3121
3111
3053
2983
3007
2885
2599
2649
2720
2353
2387
2546
1817
2086
3141
67
-5437
-5367
-648
1697
559
-3239
-8610
-9189
-3449
-770
-3812
-3790
-712
-2807
-6086
-2195
2862
2352
1894
2583
-2076
-7597
-5213
977
4471
4962
867
-4220
-957
5106
1637
-3904
-823
2305
-1642
-5826
-5710
-2056
2913
4147
2409
2972
2074
-4174
-8308
-6383
-5153
-6558
-4077
2779
5864
2883
504
1181
846
-1969
-4732
-4340
-511
3054
4717
4766
254
-5863
-3892
3396
5190
3495
3318
455
-3524
-976
4449
5053
3514
3965
4198
3405
3740
4090
3011
3261
4403
1050
-5226
-7922
-7883
-7488
-5009
-2411
-1574
404
844
-4865
-9416
-5261
-120
-1508
-2337
2143
4504
2338
1275
1768
2540
3638
623
-5216
-4743
-390
-497
-613
3366
5218
3804
3691
4208
3707
3455
3510
3282
3027
2843
2931
2829
2205
2683
3218
-397
-6381
-8935
-8501
-7095
-2073
4664
4685
-1997
-5076
-1982
-447
-1558
71
2784
2419
1226
1479
1630
1292
1323
1489
1615
1822
1874
1743
1605
1482
1416
1356
1216
1132
1089
1016
1126
1224
1127
1428
1720
1221
1602
2580
-511
-6836
-9369
-8207
-8117
-7490
-5482
-5377
-3850
1327
1364
-4279
-3386
2298
168
-6021
-4727
1223
3307
2134
2296
3218
1649
-736
253
2991
3443
2731
3030
3234
2865
2876
2930
2683
2703
2713
2464
2612
2552
1908
2511
2928
-1201
-7145
-8433
-6857
-7134
-7806
-7299
-7283
-6587
-2926
543
-849
-4604
-3926
840
2837
1667
2478
3028
-672
-2114
2582
4104
-668
-1738
2760
4647
3286
3238
3844
3512
3338
3440
3215
3065
3054
2873
2757
2700
2432
2337
2497
2244
2005
2289
1901
1446
2595
1763
-3735
-7968
-7941
-8221
-7654
-3337
-1698
-5153
-5465
-741
2516
2370
1349
1666
2971
447
-5753
-6127
786
4678
3041
2236
3034
2788
2396
2634
2540
2281
2363
2252
1934
2115
2208
1586
1832
2447
-902
-7111
-9069
-7385
-8229
-8351
-3004
547
-2299
-3292
-78
-965
-5290
-4247
807
2568
1952
2265
2109
2109
3337
1520
-2917
-2435
2185
3477
2068
2193
2705
2300
2219
2387
2163
2020
2109
2093
1978
1906
1862
1794
1790
1825
1661
1609
1901
1762
1641
2373
912
-4388
-8036
-7506
-7581
-7961
-4570
-1954
-4896
-6751
-2303
1774
1257
1529
2521
-1421
-5388
-2603
772
190
912
3200
2955
2060
2584
2698
2280
2337
2300
2064
2074
1989
1770
1769
1740
1564
1489
1385
1390
1615
1210
740
1660
1639
-1512
-4427
-5202
-5992
-5428
-1721
1360
1259
384
943
2032
-54
-5973
-8493
-3381
2259
2828
2044
2594
2491
1629
1530
1822
1775
1709
1786
1720
1587
1670
1678
1445
1550
1642
1020
899
1401
942
1308
2484
-1630
-8422
-6682
97
539
-982
1340
-60
-5591
-4988
565
1923
270
1208
1366
-4272
-9317
-5456
396
-1870
-5496
-1494
3472
2905
1883
3477
4636
4587
4388
3902
2951
1949
2098
2479
-1006
-6971
-8572
-7219
-8336
-7251
-1196
848
-2110
-641
2601
-878
-5408
-3245
834
1530
1141
1664
2158
2378
2580
2639
2676
2730
2650
2550
2508
2448
2392
2298
2202
2265
2254
2083
2172
2162
1759
2064
2416
585
-1258
370
2487
1860
1577
2372
1392
1614
3753
-179
-7234
-4517
2342
-365
-5764
-4191
-2893
-6123
-6858
-3201
152
1351
1109
549
1298
1461
-3182
-8535
-5968
347
404
-1979
511
3284
2398
1902
2548
2191
2260
2565
1346
1212
2606
738
-2622
-701
3253
419
-7395
-10023
-4302
1861
2262
467
-568
-3293
-5368
-2470
1304
1508
896
1316
1608
1851
1356
-226
-267
1505
2070
1437
1474
1619
1364
1439
1437
1218
1514
1357
752
1813
1732
-3589
-7876
-4033
1692
2114
948
1583
1594
998
1455
1352
527
1233
1679
-400
-2146
-2793
-4538
-4418
-726
1152
201
536
-13
-4267
-6729
-3415
877
1855
1324
1408
1598
1511
1517
1572
1553
1579
1660
1735
1787
1801
1826
1833
1749
1687
1668
1601
1596
1484
1167
1275
1417
800
1115
1917
-1774
-8200
-8243
-2391
117
-2144
-4446
-5258
-3951
-308
2322
1607
721
2469
2489
-2696
-5296
315
4083
-388
-2927
1349
3939
2243
1501
2082
1805
1514
1666
1562
1472
1554
1485
1421
1399
1229
1107
1037
885
941
941
492
589
1185
-414
-5067
-8942
-7506
-1728
1239
-2193
-5431
-2658
1637
1810
157
961
2170
-180
-2860
-1634
-140
-810
-942
-1588
-3038
-992
2660
2780
1616
2090
2342
1909
1951
1934
1572
1470
1516
1463
1500
1614
1618
1535
1520
1544
1478
1574
1868
1831
1866
2183
325
-4640
-8605
-8811
-7281
-5426
-3764
-4441
-5787
-2679
1966
384
-4046
-2710
1586
2181
1099
1505
1802
1429
1479
1621
1530
1550
1531
1374
1312
1262
1106
967
855
717
620
562
476
414
410
367
254
186
209
229
176
133
160
126
-4
-17
22
-142
-198
-15
-180
-334
99
-318
-1933
-2037
-273
496
40
109
234
-316
-641
-440
-334
-377
-369
-364
-352
-320
-322
-309
-292
-313
-289
-281
-324
-178
-62
-250
-56
360
-459
-1820
-1518
68
834
195
-180
912
571
-3032
-4573
-1422
822
602
856
-460
-3307
-2404
905
1389
514
855
1045
832
970
986
1054
1083
639
1100
1696
-779
-3642
-1809
1666
1889
956
1370
1649
1319
1473
1826
1651
1251
1145
1217
1231
1297
1297
1165
1350
1462
1018
1314
1960
198
-2219
-1030
1657
1808
1046
1432
1655
1329
1367
1517
1414
1366
1410
1371
1268
1162
1073
986
872
759
672
615
576
483
389
388
278
113
238
194
-179
230
429
-2583
-7397
-9121
-7921
-7977
-8715
-6135
-1342
984
489
48
233
239
224
358
492
489
44
-629
-861
-786
-938
