# session 165
-21
-14
4
14
15
25
41
55
71
81
79
76
80
88
100
114
133
168
214
252
287
328
363
378
370
335
275
203
149
116
78
45
38
32
19
21
24
27
53
95
168
260
332
482
729
863
923
1105
1130
719
233
11
-62
-93
-94
-148
-243
-285
-292
-320
-358
-389
-411
-426
-447
-476
-502
-513
-500
-457
-390
-301
-189
-72
27
99
143
151
128
93
59
38
35
30
15
19
33
19
-3
-2
-1
-5
-3
-15
-41
-51
-64
-83
-70
-55
-80
-105
-99
-99
-113
-112
-106
-118
-110
-61
-32
-64
-99
-89
-70
-71
-77
-74
-72
-64
-44
-35
-52
-73
-83
-96
-117
-121
-101
-95
-108
-92
-31
16
10
-19
-36
-46
-67
-81
-69
-66
-96
-95
-65
-90
-97
23
152
302
590
641
135
-363
-337
-156
-162
-189
-162
-164
-166
-151
-145
-111
-70
-80
-101
-84
-59
-25
29
62
72
123
211
281
331
379
412
420
403
361
306
242
171
118
92
69
42
31
40
42
37
42
53
56
68
125
206
268
395
666
912
1060
1327
1584
1323
596
8
-219
-295
-343
-372
-393
-405
-412
-422
-423
-441
-487
-509
-515
-561
-615
-637
-655
-673
-646
-569
-444
-281
-130
-3
104
152
146
139
114
42
-15
-18
-16
-32
-40
-39
-38
-36
-42
-56
-67
-79
-97
-95
-75
-76
-102
-111
-96
-88
-91
-84
-75
-75
-77
-71
-62
-57
-45
-29
-35
-52
-37
-18
-44
-72
-58
-52
-81
-93
-73
-72
-101
-101
-41
40
77
46
-10
-20
10
21
24
38
19
7
57
54
9
133
338
439
579
647
281
-198
-242
-72
-63
-95
-77
-98
-107
-64
-71
-117
-93
-23
1
-15
-15
0
12
35
79
137
199
257
310
359
391
391
367
331
283
216
144
83
36
6
-7
-22
-44
-59
-67
-69
-55
-39
-40
-30
7
46
89
158
266
453
701
932
1227
1636
1791
1354
598
-5
-335
-468
-492
-514
-550
-553
-547
-556
-553
-560
-605
-637
-627
-634
-691
-747
-761
-755
-732
-672
-567
-417
-242
-95
4
74
104
77
30
6
-4
-16
-30
-33
-27
-20
-14
-11
-18
-25
-22
-22
-34
-45
-49
-54
-59
-65
-68
-60
-49
-48
-50
-42
-28
-14
-7
-14
-23
-16
-4
8
13
0
-20
-16
6
11
1
20
80
124
119
87
60
48
47
41
35
47
59
62
61
40
44
144
261
390
650
754
333
-197
-259
-80
-63
-113
-95
-80
-87
-81
-71
-56
-40
-35
-28
-7
15
30
46
75
117
150
180
228
277
306
337
367
362
326
296
258
185
108
73
53
16
-7
-3
-23
-55
-56
-56
-81
-82
-60
-74
-109
-112
-90
-55
11
70
126
302
569
717
845
1157
1325
955
327
-111
-323
-412
-423
-428
-449
-450
-441
-445
-447
-445
-446
-449
-457
-473
-495
-519
-543
-556
-549
-518
-461
-373
-262
-142
-34
44
80
78
52
21
-7
-39
-64
-64
-55
-72
-88
-61
-27
-30
-46
-53
-66
-65
-37
-33
-65
-70
-49
-45
-50
-54
-57
-42
-23
-30
-39
-38
-41
-31
-10
-20
-48
-36
15
52
73
118
189
238
235
196
152
127
119
97
74
78
74
49
65
88
65
110
245
378
591
771
488
-87
-283
-117
-70
-131
-115
-97
-111
-101
-102
-115
-93
-76
-88
-75
-40
-32
-22
18
48
69
128
196
237
289
358
383
361
331
291
220
132
46
-26
-88
-149
-183
-169
-148
-134
-74
25
124
306
612
918
1242
1693
1925
1434
457
-281
-525
-522
-478
-460
-498
-548
-569
-593
-634
-664
-690
-728
-772
-817
-873
-925
-941
-909
-844
-750
-611
-440
-269
-130
-39
13
44
43
25
34
43
-6
-55
0
93
81
55
207
421
497
613
948
1217
1107
670
142
-218
-275
-169
-114
-134
-162
-183
-204
-218
-230
-243
-263
-289
-312
-324
-340
-361
-352
-307
-241
-143
-12
113
223
325
391
392
356
327
292
267
373
604
761
866
1154
1512
1662
1621
1360
751
93
-235
-329
-373
-361
-358
-432
-484
-468
-470
-520
-567
-602
-659
-725
-766
-780
-785
-775
-721
-613
-484
-357
-237
-129
-38
19
32
27
29
21
1
-5
3
5
6
15
19
16
24
39
34
26
33
28
17
26
22
-8
-11
13
20
23
41
69
104
144
204
278
313
387
605
838
1014
1163
961
250
-374
-490
-406
-337
-205
-124
-170
-191
-155
-162
-192
-196
-206
-233
-245
-250
-257
-238
-194
-166
-140
-63
42
126
191
236
246
240
237
231
216
194
169
150
139
128
114
102
94
81
61
42
34
26
11
5
-2
-23
-40
-38
-43
-63
-76
-69
-59
-62
-72
-76
-70
-60
-53
-52
-55
-55
-62
-74
-63
-44
-61
-101
-119
-120
-130
-137
-118
-86
-54
-31
-30
-43
-61
-96
-130
-122
-93
-103
-147
-151
-102
-81
-96
-47
66
195
360
394
74
-327
-384
-232
-188
-205
-175
-150
-145
-131
-122
-124
-122
-119
-117
-110
-98
-83
-64
-35
1
42
93
157
214
251
279
297
297
278
245
206
167
114
51
29
44
19
-27
-19
15
22
25
40
45
44
43
39
23
-2
-4
24
46
91
203
322
431
595
741
820
1016
1282
1202
709
199
-98
-243
-297
-305
-330
-361
-370
-371
-380
-385
-384
-390
-413
-444
-472
-501
-529
-545
-547
-541
-511
-431
-314
-188
-57
54
111
140
146
114
98
109
69
8
12
18
-24
-32
-7
-20
-39
-27
-25
-32
-30
-28
4
55
109
323
668
844
969
1179
993
597
669
371
-886
-1370
-443
53
-341
-428
-209
-224
-251
-191
-236
-304
-306
-310
-335
-363
-388
-397
-413
-441
-442
-422
-398
-344
-261
-177
-87
-6
37
68
104
110
100
115
141
164
195
263
414
610
736
784
799
694
495
460
535
326
-95
-277
-224
-216
-238
-208
-208
-243
-236
-207
-204
-210
-221
-248
-236
-160
-89
-58
-25
23
62
90
116
133
133
109
74
44
17
-4
-6
5
4
-3
19
80
125
105
57
40
46
36
9
-5
13
28
7
-15
-16
-20
-3
15
-22
-14
86
166
366
736
718
137
-280
-226
-161
-210
-183
-153
-181
-183
-178
-180
-153
-146
-175
-165
-131
-138
-148
-110
-58
-17
37
117
195
234
227
194
144
82
15
-56
-122
-162
-176
-179
-173
-164
-168
-151
-90
-47
-28
29
110
239
492
723
824
1048
1356
1204
545
-31
-261
-344
-392
-404
-401
-393
-389
-408
-426
-428
-430
-445
-463
-481
-504
-507
-470
-419
-368
-272
-134
-1
120
213
236
219
215
193
131
86
89
107
126
142
134
115
111
112
94
72
72
79
78
71
58
35
17
16
17
9
-2
-10
-16
-21
-30
-43
-51
-47
-40
-40
-45
-49
-44
-36
-42
-61
-64
-43
-34
-47
-40
5
41
36
8
-16
-24
-18
-22
-40
-46
-47
-55
-41
-28
-60
-54
32
116
278
524
446
-46
-370
-292
-199
-224
-193
-138
-151
-176
-176
-174
-167
-151
-137
-122
-100
-80
-59
-25
11
43
82
132
174
205
239
260
258
252
234
172
108
76
26
-41
-58
-61
-100
-107
-61
-36
-24
34
104
172
349
650
889
1037
1266
1406
1076
441
-8
-191
-285
-332
-344
-361
-373
-378
-392
-408
-427
-456
-494
-544
-581
-585
-587
-592
-560
-480
-368
-233
-107
-9
88
171
187
143
88
39
19
29
25
6
22
49
54
68
88
88
92
114
127
135
206
393
637
819
960
1117
1143
937
694
549
390
170
-27
-167
-241
-252
-252
-276
-311
-340
-370
-410
-454
-494
-535
-569
-589
-622
-665
-665
-599
-522
-500
-510
-453
-321
-201
-112
-21
48
69
71
72
60
42
46
68
72
61
56
54
51
53
55
57
46
10
-10
11
15
-21
-27
7
17
10
23
30
20
21
19
8
27
40
3
-17
12
18
-4
-2
19
31
22
-6
-21
3
35
46
32
6
10
41
39
11
17
39
33
12
-16
-45
-25
21
7
-25
15
77
92
82
59
35
46
61
45
42
55
62
74
55
24
97
242
396
610
631
172
-328
-335
-123
-91
-119
-82
-69
-81
-71
-64
-59
-38
-21
-15
2
23
45
79
116
142
181
244
301
337
372
410
416
388
366
344
278
188
125
76
17
-11
3
2
-42
-70
-56
-46
-54
-32
2
-18
-82
-103
-57
-20
-31
-28
24
63
48
17
-4
-29
-46
-46
-52
-58
-46
-44
-45
-29
-38
-48
26
128
239
426
445
73
-290
-277
-158
-175
-189
-160
-174
-187
-170
-174
-186
-179
-181
-190
-174
-148
-134
-119
-82
-26
25
75
135
187
207
209
209
175
90
-7
-82
-144
-194
-228
-260
-291
-299
-296
-309
-326
-312
-281
-268
-272
-293
-325
-337
-343
-380
-406
-379
-364
-407
-454
-478
-502
-522
-532
-547
-554
-548
-561
-569
-547
-563
-593
-523
-421
-314
-75
54
-266
-658
-607
-334
-218
-203
-179
-162
-132
-106
-153
-226
-237
-196
-140
-66
2
65
170
297
399
514
656
785
902
981
992
1042
1217
1417
1552
1656
1756
1856
1975
2097
2222
2327
2284
2043
1754
1521
1378
1391
1467
1500
1631
1757
1424
672
39
-295
-472
-537
-555
-629
-727
-800
-863
-915
-947
-991
-1058
-1119
-1163
-1208
-1247
-1260
-1249
-1201
-1096
-962
-828
-690
-569
-497
-451
-428
-456
-497
-496
-479
-483
-494
-503
-509
-488
-450
-443
-455
-439
-411
-404
-389
-352
-324
-311
-296
-290
-289
-261
-203
-159
-151
-162
-174
-164
-119
-77
-78
-91
-79
-65
-69
-61
-37
-36
-55
-60
-55
-57
-53
-51
-64
-59
-19
0
-15
8
93
162
163
136
131
142
131
107
123
158
133
104
157
177
125
197
379
544
839
1087
745
80
-131
33
69
18
39
42
17
17
20
25
35
35
79
170
213
188
171
182
200
232
283
328
350
368
397
410
387
347
294
219
146
91
36
-5
-21
-41
-71
-81
-75
-78
-83
-84
-86
-90
-92
-97
-103
-101
-98
-114
-134
-113
-62
-39
-61
-97
-125
-140
-142
-140
-145
-149
-146
-130
-110
-131
-191
-163
-28
77
180
293
135
-275
-432
-249
-144
-205
-202
-145
-153
-183
-175
-163
-169
-174
-167
-161
-165
-162
-136
-117
-120
-105
-44
18
54
88
118
119
97
49
-38
-151
-247
-302
-334
-370
-400
-403
-401
-410
-413
-417
-418
-376
-309
-280
-268
-232
-189
-128
-42
45
195
430
614
795
1129
1317
976
368
-54
-245
-280
-157
10
118
219
350
466
562
663
762
841
887
894
912
989
1076
1123
1202
1350
1466
1546
1696
1865
1930
1876
1698
1390
1061
796
566
361
202
62
-74
-191
-293
-389
-475
-544
-596
-642
-687
-711
-703
-692
-709
-747
-791
-837
-883
-927
-967
-1012
-1067
-1131
-1196
-1257
-1308
-1350
-1390
-1428
-1464
-1502
-1536
-1567
-1601
-1615
-1597
-1600
-1627
-1597
-1520
-1486
-1506
-1521
-1506
-1458
-1405
-1381
-1352
-1296
-1256
-1211
-1098
-979
-872
-643
-284
106
531
786
600
288
338
555
561
453
417
429
463
529
574
571
562
596
666
722
747
787
862
940
996
1053
1117
1147
1123
1094
1121
1198
1257
1260
1236
1209
1156
1066
975
905
849
805
769
751
779
824
852
914
1014
1059
1078
1165
1296
1525
1919
2306
2653
3124
3437
3153
2518
2079
1927
1886
1836
1722
1577
1469
1410
1342
1120
692
238
-91
-363
-630
-853
-1046
-1227
-1358
-1428
-1462
-1457
-1412
-1359
-1312
-1274
-1266
-1310
-1390
-1472
-1533
-1574
-1609
-1637
-1655
-1670
-1682
-1685
-1684
-1686
-1684
-1679
-1678
-1669
-1656
-1655
-1653
-1628
-1602
-1598
-1586
-1536
-1496
-1514
-1532
-1479
-1400
-1358
-1329
-1293
-1279
-1274
-1239
-1173
-1098
-986
-801
-611
-493
-316
55
429
566
567
613
632
511
328
189
68
-66
-171
-235
-304
-368
-403
-450
-500
-508
-552
-622
-546
-397
-301
-103
28
-336
-867
-938
-741
-665
-581
-370
-110
240
674
1054
1354
1630
1887
2119
2319
2462
2524
2464
2301
2166
2138
2150
2160
2206
2276
2324
2342
2326
2276
2205
2108
1986
1860
1742
1629
1508
1417
1485
1756
2075
2309
2464
2546
2535
2411
2159
1881
1723
1738
1939
2153
2051
1757
1612
1276
342
-636
-1035
-1117
-1253
-1370
-1420
-1502
-1595
-1656
-1719
-1797
-1872
-1938
-1996
-2058
-2136
-2214
-2277
-2325
-2355
-2363
-2341
-2286
-2201
-2102
-2009
-1927
-1843
-1785
-1777
-1780
-1772
-1792
-1815
-1792
-1781
-1826
-1864
-1868
-1874
-1878
-1879
-1895
-1901
-1898
-1921
-1869
-1629
-1278
-874
-395
3
197
410
747
928
839
699
593
444
289
188
104
27
-4
2
21
62
102
91
60
73
84
23
-29
42
193
324
417
469
452
385
302
217
163
147
131
133
177
235
325
450
604
925
1293
1210
731
527
728
902
960
1062
1178
1239
1252
1212
1146
1071
970
917
1026
1200
1259
1228
1246
1311
1328
1306
1309
1339
1393
1492
1561
1500
1397
1385
1402
1317
1140
963
865
879
953
997
1006
1026
1047
1056
1064
1059
1018
960
933
950
962
1004
1156
1334
1470
1697
1926
1732
1006
104
-680
-1297
-1773
-2153
-2468
-2735
-2982
-3212
-3397
-3533
-3635
-3715
-3777
-3806
-3777
-3685
-3513
-3226
-2823
-2356
-1890
-1478
-1164
-964
-837
-718
-604
-509
-416
-311
-217
-154
-136
-129
-70
25
84
105
124
147
184
225
207
132
94
132
165
155
160
217
294
361
384
369
401
497
549
542
574
631
640
630
645
651
626
585
549
539
552
585
639
663
608
538
548
598
602
566
540
536
521
479
450
443
393
296
236
198
132
140
255
384
615
902
767
176
-179
-67
59
31
27
48
44
46
40
21
22
20
-2
-16
-37
-98
