# session 13
115
81
118
141
108
76
62
57
64
55
28
35
58
46
32
56
89
113
123
96
48
9
-36
-65
-59
-77
-98
-63
-66
-92
30
190
304
593
780
326
-317
-395
-181
-171
-232
-209
-197
-208
-206
-206
-202
-194
-191
-180
-169
-168
-158
-137
-117
-96
-63
-17
40
91
122
143
152
136
91
35
-26
-94
-157
-191
-200
-214
-236
-239
-227
-219
-209
-195
-192
-190
-171
-143
-131
-147
-159
-116
-48
-33
-74
-102
-104
-115
-117
-99
-106
-108
-69
-84
-112
8
163
256
448
521
119
-332
-313
-128
-122
-140
-106
-106
-98
-65
-63
-66
-42
-16
12
43
62
89
137
174
190
206
228
257
290
307
305
299
290
255
184
102
48
28
7
-19
-24
-20
-26
-20
2
11
11
11
-1
-13
4
27
28
25
51
101
129
104
63
63
80
66
44
40
36
47
73
57
52
136
243
380
562
490
60
-248
-170
-38
-54
-80
-73
-81
-82
-73
-77
-81
-80
-90
-100
-90
-72
-67
-60
-31
8
44
79
117
158
197
218
217
206
178
127
69
11
-38
-55
-54
-56
-53
-59
-82
-83
-64
-73
-97
-103
-99
-78
-48
-53
-68
-30
18
13
-22
-63
-100
-105
-82
-78
-93
-87
-75
-101
-113
-44
55
149
227
95
-294
-548
-456
-318
-327
-357
-356
-371
-386
-389
-396
-394
-372
-353
-348
-347
-333
-316
-296
-264
-223
-190
-149
-85
-15
45
112
196
247
237
222
235
224
183
155
117
49
3
-2
-12
-28
-5
46
91
135
192
264
350
429
490
565
628
593
477
373
299
229
188
182
162
133
137
116
69
135
280
396
587
695
317
-245
-338
-127
-85
-132
-111
-114
-132
-111
-105
-124
-133
-141
-141
-127
-117
-99
-70
-65
-65
-27
31
83
143
193
213
223
221
182
121
53
-24
-86
-112
-133
-172
-197
-192
-185
-191
-192
-185
-190
-208
-202
-162
-137
-151
-159
-115
-33
29
29
-17
-48
-47
-37
-23
-11
-2
22
13
-39
22
194
304
469
710
540
-78
-413
-255
-121
-159
-149
-127
-176
-191
-141
-122
-143
-147
-132
-121
-111
-95
-79
-62
-30
13
51
91
154
228
268
269
260
230
157
74
7
-54
-96
-114
-133
-148
-141
-138
-144
-127
-107
-115
-120
-87
-56
-70
-107
-107
-49
17
34
6
-29
-59
-87
-97
-77
-70
-91
-76
-70
-111
-35
152
270
464
705
449
-193
-417
-203
-130
-197
-166
-128
-141
-131
-121
-127
-111
-83
-76
-77
-65
-39
-14
4
29
74
127
178
228
273
306
319
303
259
198
133
66
6
-33
-54
-80
-110
-121
-109
-97
-88
-74
-55
-47
-49
-40
-13
-3
-21
-15
41
90
81
48
33
18
-9
-17
-4
-6
-2
29
12
-12
85
209
324
625
843
462
-150
-291
-125
-98
-138
-122
-119
-125
-113
-116
-120
-100
-85
-80
-67
-47
-33
-15
12
39
69
105
135
160
193
225
240
236
200
132
69
26
-20
-70
-103
-116
-129
-144
-140
-119
-114
-122
-106
-80
-81
-99
-107
-107
-101
-91
-83
-63
-22
-1
-20
-48
-67
-84
-91
-77
-72
-82
-65
-41
-64
-52
62
176
299
452
334
-108
-352
-218
-105
-139
-137
-109
-118
-114
-101
-106
-104
-93
-85
-63
-44
-43
-33
-4
19
38
74
116
153
186
218
245
252
229
191
160
119
55
-8
-38
-44
-55
-70
-66
-55
-54
-54
-50
-44
-38
-32
-36
-44
-46
-34
-11
-5
-19
-4
38
45
6
-30
-52
-65
-58
-44
-61
-71
-37
-33
-63
-10
104
196
326
360
51
-326
-344
-167
-123
-152
-134
-124
-138
-131
-110
-103
-99
-83
-70
-71
-67
-44
-20
-5
16
54
91
127
175
228
260
275
280
263
212
139
67
12
-31
-66
-90
-105
-114
-116
-114
-120
-127
-122
-102
-81
-72
-67
-42
-7
17
34
55
98
162
196
184
173
164
129
110
123
106
87
130
139
97
176
329
419
618
809
482
-138
-317
-134
-95
-165
-159
-153
-177
-176
-165
-164
-164
-157
-144
-134
-131
-123
-107
-86
-58
-22
27
90
153
205
242
260
262
240
166
56
-34
-89
-137
-180
-196
-193
-196
-193
-173
-162
-171
-170
-154
-151
-159
-163
-155
-140
-147
-185
-190
-124
-56
-51
-90
-125
-141
-158
-175
-178
-179
-162
-131
-158
-169
-27
124
207
392
441
13
-424
-373
-188
-196
-216
-190
-220
-241
-215
-196
-173
-130
-100
-80
-55
-33
-8
26
52
70
101
150
205
262
306
329
346
346
300
231
180
135
79
47
52
60
61
60
63
100
162
196
189
189
206
209
178
141
136
154
145
112
136
263
436
583
715
810
771
624
509
463
524
708
724
341
-81
-165
-100
-132
-184
-181
-173
-181
-195
-208
-226
-253
-269
-275
-299
-339
-374
-399
-408
-401
-393
-388
-389
-391
-386
-388
-404
-410
-401
-411
-442
-452
-431
-401
-357
-287
-224
-202
-193
-169
-144
-121
-88
-65
-58
-43
-24
-32
-44
-25
-4
-9
-12
-3
-3
-17
-38
-43
-3
56
65
48
90
155
143
83
66
74
59
48
48
33
48
98
81
56
162
304
430
631
627
162
-266
-215
-36
-47
-78
-51
-56
-53
-18
-19
-33
-5
18
11
13
18
25
68
111
95
74
121
204
258
274
280
296
309
290
235
161
90
33
-11
-50
-72
-67
-63
-72
-58
-12
25
39
48
52
48
42
31
17
10
16
31
62
113
154
146
113
92
69
37
20
11
-3
-5
-4
-17
-13
-2
-30
-18
95
208
310
390
202
-208
-355
-162
-35
-66
-74
-54
-54
-43
-34
-42
-43
-39
-48
-51
-53
-72
-85
-65
-40
-40
-40
-4
50
77
74
64
55
37
-17
-110
-203
-267
-326
-391
-431
-437
-433
-420
-395
-381
-377
-347
-288
-241
-216
-188
-168
-176
-179
-146
-87
-18
47
80
90
104
105
97
109
115
90
88
113
117
142
177
153
183
331
443
579
762
552
-53
-339
-165
-63
-138
-153
-131
-142
-142
-139
-150
-142
-126
-126
-128
-117
-100
-82
-63
-40
-11
27
78
136
189
238
279
288
265
226
164
70
-23
-73
-90
-105
-124
-128
-123
-129
-130
-105
-69
-49
-32
-9
11
29
46
62
96
161
224
256
256
223
179
167
173
154
142
178
209
204
225
238
203
272
446
526
610
764
581
75
-108
102
198
130
127
155
145
126
80
6
-66
-155
-270
-370
-477
-662
-882
-1042
-1142
-1175
-1054
-803
-563
-380
-218
-85
4
58
79
68
44
33
38
51
64
76
88
111
143
175
204
236
266
288
304
318
327
325
330
343
338
335
396
484
501
465
445
425
382
342
310
277
251
218
168
110
-17
-209
-301
-303
-331
-101
433
503
-135
-588
-478
-405
-587
-725
-777
-860
-948
-990
-968
-888
-787
-685
-583
-491
-407
-320
-236
-167
-99
-15
68
115
148
210
282
307
288
261
229
179
123
83
55
30
15
22
34
29
30
51
63
51
49
65
73
63
56
57
62
73
96
126
148
145
121
86
48
32
37
31
18
18
12
12
25
12
27
129
229
347
517
428
-17
-301
-192
-71
-95
-99
-83
-97
-86
-60
-61
-59
-37
-22
-16
-12
-4
17
43
59
80
121
160
189
230
279
308
314
302
265
210
150
96
60
34
10
0
13
24
20
23
40
50
55
76
99
93
88
120
153
157
181
242
287
289
267
233
199
185
178
168
168
161
143
152
163
134
159
266
350
451
552
355
-87
-269
-125
-31
-52
-38
-20
-42
-54
-54
-55
-45
-41
-57
-75
-128
-261
-426
-593
-790
-946
-971
-932
-905
-850
-735
-568
-372
-218
-144
-97
-58
-42
-16
35
68
89
138
190
209
222
251
280
299
313
321
328
354
391
402
402
448
465
285
-37
-253
-290
-296
-362
-452
-512
-563
-646
-730
-796
-866
-889
-850
-812
-690
-493
-541
-828
-868
-594
-390
-331
-250
-160
-110
-59
9
64
98
130
174
214
235
260
302
338
364
399
443
489
545
604
649
677
686
664
615
542
455
384
347
315
267
232
230
235
217
188
182
197
192
156
138
151
150
140
177
233
244
221
184
123
69
45
12
-29
-31
-24
-42
-37
-42
-104
-61
131
259
400
652
536
-89
-466
-304
-168
-236
-225
-154
-158
-167
-147
-150
-164
-153
-133
-131
-132
-107
-71
-67
-69
-18
58
110
163
220
246
258
278
266
194
102
30
-21
-68
-108
-134
-147
-165
-196
-216
-208
-187
-173
-170
-174
-170
-151
-145
-145
-97
-28
-3
-7
-11
-39
-77
-86
-94
-124
-133
-123
-126
-109
-95
-134
-86
89
225
444
788
677
-4
-424
-296
-184
-247
-239
-204
-231
-234
-208
-206
-201
-181
-168
-155
-134
-115
-91
-65
-52
-26
26
75
117
168
209
235
248
212
132
73
32
-22
-55
-57
-77
-108
-99
-80
-88
-95
-86
-78
-72
-76
-96
-87
-46
-43
-76
-65
-3
43
46
24
-7
-30
-37
-36
-41
-36
-13
-15
-37
35
171
230
308
452
335
-86
-309
-185
-75
-88
-76
-49
-56
-57
-49
-48
-31
-3
12
17
24
31
42
71
105
126
146
186
240
286
310
314
307
289
246
182
114
49
0
-24
-40
-57
-65
-66
-73
-74
-65
-59
-60
-64
-70
-57
-27
-16
-20
5
42
35
-2
-26
-40
-55
-63
-73
-79
-59
-52
-87
-60
61
149
215
279
122
-230
-361
-201
-86
-103
-101
-58
-48
-46
3
6
-73
-19
73
-194
-515
-297
105
134
53
131
182
182
242
296
300
310
313
273
207
133
61
1
-50
-85
-95
-100
-116
-120
-108
-104
-113
-118
-114
-98
-77
-71
-80
-71
-28
23
41
14
-28
-58
-76
-77
-73
-81
-63
-35
-73
-68
79
190
306
619
686
137
-361
-291
-129
-193
-223
-168
-168
-179
-159
-157
-158
-133
-106
-93
-81
-61
-49
-51
-38
14
60
75
121
217
280
282
283
276
209
105
17
-46
-86
-114
-140
-161
-164
-137
-103
-99
-100
-77
-67
-76
-53
-22
-40
-50
15
99
110
76
52
3
-61
-42
11
-18
-46
-30
-58
-15
169
293
409
619
495
-76
-404
-232
-64
-112
-158
-125
-84
-75
-104
-129
-110
-73
-50
-53
-74
-86
-56
4
35
28
56
147
229
256
267
276
264
223
150
44
-54
-81
-65
-102
-180
-195
-158
-155
-169
-149
-124
-126
-137
-122
-84
-78
-123
-130
-56
18
39
23
-7
-35
-54
-66
-66
-45
-15
-34
-80
-1
182
308
490
724
540
-62
-368
-208
-80
-125
-140
-119
-121
-111
-90
-87
-95
-93
-73
-61
-59
-39
-12
-4
27
96
140
157
209
280
305
298
292
262
187
96
18
-37
-56
-60
-84
-114
-119
-119
-122
-103
-71
-72
-94
-85
-41
-18
-41
-71
-53
20
87
95
54
-1
-38
-36
-24
-39
-24
20
-16
-49
94
246
349
697
984
557
-152
-307
-132
-140
-200
-165
-161
-180
-164
-153
-150
-134
-123
-116
-97
-84
-75
-50
-19
2
31
79
129
176
222
250
254
235
186
119
55
-15
-87
-129
-149
-172
-183
-172
-158
-151
-172
-221
-241
-227
-236
-281
-309
-297
-258
-224
-210
-182
-116
-60
-54
-65
-58
-63
-77
-58
-37
-38
-11
16
10
75
210
324
507
641
358
-126
-232
-51
-4
-58
-51
-44
-67
-66
-40
-19
-21
-37
-27
9
29
30
46
71
88
108
144
179
204
236
270
277
250
204
151
86
20
-23
-46
-82
-111
-102
-88
-102
-105
-77
-58
-53
-45
-47
-63
-64
-48
-41
-30
-5
3
-3
26
67
49
-1
-17
-16
-27
-29
-26
-25
-5
-4
-34
13
132
224
345
425
180
-233
-330
-148
-63
-95
-85
-50
-45
-52
-50
-33
-14
-8
-4
17
43
51
55
69
91
122
161
197
227
251
263
271
273
245
182
109
44
-15
-66
-98
-108
-114
-125
-136
-155
-172
-165
-148
-155
-184
-198
-180
-166
-175
-168
-140
-120
-86
-33
-25
-70
-105
-117
-117
-102
-95
-94
-54
-35
-75
-5
183
304
498
800
646
-25
-389
-209
-71
-134
-131
-82
-108
-139
-127
-116
-114
-100
-95
-106
-102
-81
-65
-44
-15
12
61
142
211
242
268
301
307
263
182
79
-17
-76
-111
-149
-172
-169
-175
-197
-194
-168
-162
-159
-145
-162
-184
-149
-110
-130
-144
-98
-32
14
23
-22
-81
-91
-59
-43
-64
-70
-42
-56
-70
80
280
373
555
713
355
-230
-315
-78
-47
-116
-81
-47
-45
-29
-27
-31
-18
-13
-10
10
24
33
48
67
101
150
196
246
309
359
377
370
334
268
190
114
42
-17
-47
-54
-68
-95
-102
-90
-91
-89
-68
-60
-74
-70
-48
-37
-48
-62
-38
27
65
46
14
-19
-67
-85
-53
-50
-72
-40
-30
-79
-5
161
244
488
896
766
50
-349
-217
-131
-191
-168
-137
-174
-182
-156
-158
-172
-164
-136
-116
-110
-109
-101
-85
-52
-4
31
48
76
120
149
157
154
123
57
-20
-85
-128
-156
-181
-199
-196
-183
-184
-184
-172
-162
-168
-179
-180
-156
-115
-87
-87
-81
-33
35
67
54
24
3
-9
-11
0
1
0
29
29
-14
48
201
316
490
626
333
-190
-320
-129
-75
-128
-106
-85
-109
-117
-116
-116
-99
-88
-92
-89
-77
-67
-46
-17
-1
11
55
124
173
189
202
224
240
220
163
101
53
15
-14
-36
-46
-34
-29
-54
-66
-43
-22
-14
-4
-8
-17
-6
3
11
43
