# session 126
-103
-32
16
99
235
415
685
960
1070
1201
1588
1794
1297
441
-133
-358
-453
-483
-483
-505
-526
-532
-544
-554
-569
-607
-643
-671
-710
-739
-755
-772
-749
-656
-531
-383
-217
-51
100
190
199
197
206
185
150
116
75
78
119
106
66
83
108
101
108
130
131
126
117
93
98
138
138
94
112
203
242
192
149
139
121
120
140
113
88
131
144
131
225
351
491
778
867
376
-179
-229
-87
-111
-152
-127
-133
-138
-108
-105
-127
-107
-70
-76
-88
-59
-16
21
65
111
155
219
290
329
330
304
258
197
122
43
-22
-67
-101
-131
-160
-179
-163
-130
-123
-110
-49
-1
-19
-56
-76
-104
-129
-128
-139
-163
-131
-93
-137
-137
-27
63
222
474
374
-131
-408
-294
-216
-253
-237
-207
-207
-208
-217
-215
-207
-224
-210
-158
-151
-156
-97
-28
9
61
139
211
263
292
285
242
181
117
68
46
33
13
0
4
19
50
76
67
51
76
129
155
130
84
50
22
10
24
15
-1
23
7
-48
7
115
210
423
541
198
-263
-325
-177
-138
-139
-136
-163
-153
-113
-118
-130
-104
-82
-77
-65
-44
-2
57
96
122
168
215
242
266
283
265
219
174
136
104
77
48
23
6
-15
-25
-7
-3
-31
-33
8
24
-23
-84
-119
-151
-186
-185
-171
-183
-176
-149
-173
-176
-84
18
162
340
229
-183
-388
-261
-168
-194
-186
-164
-173
-178
-179
-188
-185
-175
-168
-158
-139
-110
-75
-37
11
66
131
196
231
231
230
226
174
88
19
-28
-74
-102
-105
-114
-133
-128
-106
-102
-97
-52
15
42
17
-23
-64
-99
-87
-38
-42
-83
-74
-63
-67
38
197
306
436
430
79
-243
-174
-24
-40
-38
28
35
7
-5
0
37
69
56
44
73
104
119
142
187
239
295
354
408
434
421
376
307
233
161
85
14
-27
-44
-55
-60
-58
-59
-64
-66
-51
3
59
46
-10
-33
-44
-75
-82
-78
-89
-69
-61
-107
-63
86
194
333
459
215
-263
-402
-226
-156
-201
-194
-176
-181
-168
-153
-151
-144
-136
-142
-143
-119
-88
-65
-27
25
56
80
129
172
163
121
73
15
-57
-121
-153
-162
-179
-213
-232
-220
-194
-180
-176
-153
-102
-52
-37
-63
-103
-128
-147
-165
-170
-166
-144
-120
-144
-120
60
240
383
642
710
239
-285
-340
-200
-176
-177
-172
-191
-170
-133
-132
-129
-108
-87
-60
-49
-57
-38
10
45
76
119
155
183
219
241
232
217
200
172
153
141
120
104
86
57
53
78
74
37
35
86
143
181
198
227
340
533
698
867
1163
1427
1327
842
261
-160
-361
-430
-458
-470
-465
-460
-471
-491
-493
-483
-494
-520
-543
-579
-611
-600
-574
-538
-429
-282
-166
-32
130
285
512
749
857
1073
1449
1324
505
-188
-311
-267
-302
-320
-312
-308
-313
-362
-422
-427
-407
-431
-478
-477
-409
-329
-268
-202
-116
-37
18
50
63
59
50
40
29
14
-1
-15
-24
-33
-45
-58
-66
-58
-35
-31
-58
-67
-44
-34
-39
-33
-20
-9
2
9
17
26
20
13
22
31
32
38
44
44
51
60
57
55
64
76
87
96
91
70
50
48
56
52
45
77
134
148
109
73
61
61
75
83
80
94
92
67
139
292
444
680
813
434
-164
-319
-143
-92
-131
-119
-115
-120
-106
-104
-96
-72
-70
-71
-49
-38
-39
-17
20
68
138
187
185
180
207
228
215
174
114
54
-5
-80
-144
-167
-183
-218
-238
-218
-188
-175
-160
-107
-33
4
-12
-46
-77
-106
-117
-114
-133
-166
-157
-148
-179
-133
19
123
195
269
84
-328
-474
-288
-179
-212
-200
-161
-155
-145
-128
-119
-103
-76
-51
-32
-11
13
45
94
158
228
310
391
437
432
398
342
247
129
36
-18
-50
-58
-64
-103
-145
-125
-85
-98
-109
-51
13
29
27
14
-8
-15
-12
-14
-38
-56
0
57
9
11
154
252
347
526
431
-25
-293
-195
-100
-114
-109
-101
-103
-94
-109
-121
-91
-85
-94
-54
-25
-47
-25
40
68
99
174
230
251
271
266
231
185
115
32
-15
-36
-65
-91
-110
-140
-162
-152
-130
-119
-108
-79
-46
-46
-82
-124
-159
-172
-152
-153
-177
-134
-72
-70
9
190
326
497
641
360
-204
-436
-352
-365
-436
-406
-376
-391
-394
-413
-435
-405
-369
-383
-386
-358
-347
-316
-210
-102
-56
-12
68
139
184
229
271
294
304
308
314
330
349
368
392
413
440
493
556
588
589
580
558
524
538
631
708
743
886
1106
1071
653
124
-240
-406
-451
-455
-474
-505
-506
-484
-503
-553
-559
-542
-568
-599
-591
-583
-583
-548
-483
-408
-297
-163
-60
21
110
164
150
122
111
91
60
45
52
73
91
97
97
98
100
98
81
47
18
21
41
33
7
22
70
80
45
14
10
3
-15
-21
-18
-18
-5
-11
-40
5
105
192
399
605
360
-179
-355
-185
-127
-178
-159
-132
-134
-122
-120
-128
-110
-88
-77
-61
-44
-26
4
34
65
115
181
236
272
290
292
272
218
134
60
5
-55
-114
-150
-179
-212
-223
-203
-182
-174
-132
-23
91
193
364
563
692
886
1185
1199
688
1
-449
-635
-693
-707
-712
-716
-717
-730
-751
-763
-783
-825
-866
-904
-950
-990
-1004
-1006
-992
-927
-798
-645
-479
-293
-127
8
143
258
322
363
421
523
657
733
738
786
917
1058
1156
1170
1073
920
777
672
601
521
408
339
363
398
361
269
186
148
142
134
111
81
86
117
57
-28
75
237
304
529
751
373
-288
-431
-235
-227
-289
-250
-232
-245
-236
-230
-222
-210
-217
-211
-174
-157
-162
-134
-64
0
42
81
112
132
164
185
140
63
29
2
-72
-135
-141
-150
-191
-208
-189
-172
-177
-192
-166
-91
-75
-145
-169
-136
-159
-193
-172
-182
-210
-156
-133
-205
-186
-81
33
366
731
482
-195
-482
-354
-287
-300
-287
-302
-300
-250
-237
-239
-197
-168
-166
-132
-87
-72
-48
23
104
150
160
176
216
229
173
106
73
18
-72
-129
-139
-144
-147
-148
-163
-156
-117
-122
-155
-100
13
32
-31
-46
-17
-29
-63
-46
-14
-25
-30
-2
9
50
142
183
262
472
451
34
-259
-164
-58
-96
-85
-37
-56
-75
-45
-20
-13
7
46
81
102
121
151
192
244
303
359
409
451
467
450
423
394
348
290
244
218
204
183
157
140
141
150
149
133
127
155
182
160
115
111
144
193
271
317
300
375
626
863
932
838
531
52
-324
-438
-413
-402
-435
-470
-472
-465
-482
-513
-532
-547
-584
-631
-664
-683
-700
-706
-691
-657
-608
-533
-424
-310
-223
-151
-88
-66
-75
-77
-79
-96
-106
-97
-81
-69
-70
-73
-66
-61
-67
-69
-56
-22
23
31
-7
-40
-45
-53
-60
-46
-45
-50
-25
-30
-58
31
191
316
541
709
370
-210
-349
-141
-77
-137
-119
-79
-75
-68
-56
-52
-34
1
29
46
68
106
150
194
257
344
416
457
500
542
532
456
349
250
183
142
109
77
46
23
22
46
68
62
31
31
109
200
207
176
208
294
416
588
715
800
1046
1328
1163
539
-14
-258
-353
-383
-357
-352
-383
-395
-402
-435
-470
-492
-526
-575
-609
-633
-684
-747
-751
-683
-603
-523
-403
-263
-144
-25
88
133
108
70
46
30
21
17
13
8
9
26
39
23
-8
-8
26
20
-46
-70
-9
42
43
39
13
-43
-59
-25
-5
-31
-50
-5
29
-14
23
194
314
446
659
546
29
-265
-145
-53
-99
-100
-79
-89
-94
-97
-98
-96
-119
-139
-117
-101
-116
-108
-51
7
47
94
155
209
240
245
228
178
104
47
2
-60
-109
-123
-138
-149
-128
-112
-121
-120
-83
-5
67
52
-20
-51
-52
-84
-112
-96
-90
-91
-65
-82
-92
35
174
307
639
815
356
-217
-261
-105
-134
-174
-151
-166
-171
-138
-132
-145
-143
-127
-92
-52
-28
7
71
127
161
213
280
323
336
321
281
238
189
120
59
28
15
13
19
12
-1
1
4
-1
11
52
99
131
121
72
49
60
49
30
27
8
10
38
7
-18
51
146
364
710
683
142
-254
-205
-114
-153
-166
-156
-169
-162
-147
-156
-167
-178
-202
-210
-190
-180
-183
-155
-102
-59
-22
20
67
106
105
68
36
9
-37
-80
-103
-120
-144
-169
-180
-166
-141
-135
-146
-150
-131
-105
-105
-146
-196
-226
-248
-257
-230
-215
-248
-252
-213
-222
-225
-127
-15
53
84
-60
-346
-446
-312
-216
-197
-130
-57
-34
-15
11
27
47
68
76
88
111
137
173
216
264
320
373
415
450
468
463
447
405
328
262
233
216
195
178
162
140
127
141
152
129
104
125
169
182
149
105
94
97
85
78
76
74
105
123
82
126
281
376
499
684
514
-25
-298
-168
-83
-143
-175
-192
-229
-252
-292
-365
-431
-519
-643
-687
-585
-446
-355
-271
-169
-70
26
112
162
188
203
180
113
39
-21
-69
-108
-130
-136
-144
-156
-141
-112
-118
-137
-126
-93
-38
36
68
58
89
179
295
459
615
692
857
1226
1433
1088
412
-102
-310
-365
-393
-411
-408
-410
-437
-458
-459
-482
-539
-581
-595
-629
-680
-718
-748
-756
-698
-604
-504
-363
-191
-52
46
118
150
133
86
49
53
53
24
21
39
18
-10
7
26
20
29
58
56
26
41
124
205
222
185
147
146
151
143
144
141
140
174
168
125
203
352
451
647
800
465
-94
-221
-41
-10
-59
-27
-10
-33
-27
-6
3
5
5
17
49
71
73
91
144
202
244
286
337
374
369
323
273
242
189
80
-28
-71
-70
-88
-126
-146
-142
-118
-70
-31
-4
89
245
385
549
750
908
1124
1479
1649
1304
617
-24
-425
-588
-614
-626
-675
-722
-736
-753
-788
-805
-809
-840
-877
-892
-906
-923
-902
-821
-684
-514
-345
-182
-20
101
149
156
144
106
69
54
39
24
24
19
9
10
0
-26
-27
-23
-37
-36
-19
-33
-70
-78
-41
1
7
9
63
114
87
42
41
39
25
47
68
43
42
56
19
36
153
242
385
621
522
6
-306
-208
-127
-177
-168
-137
-148
-140
-132
-161
-161
-118
-92
-77
-46
-22
-5
25
60
104
168
206
202
215
258
268
234
194
158
119
98
94
76
64
79
84
74
103
146
140
119
154
213
224
206
220
255
279
343
483
606
681
858
1094
1038
580
76
-189
-279
-318
-317
-303
-311
-319
-303
-285
-301
-346
-378
-391
-412
-434
-440
-452
-464
-433
-361
-275
-184
-95
-14
50
78
64
34
-2
-48
-95
-128
-146
-160
-167
-161
-150
-148
-152
-156
-154
-129
-94
-82
-79
-44
9
23
-8
-35
-37
-45
-60
-51
-43
-65
-75
-80
-109
-70
43
134
323
570
409
-153
-439
-294
-181
-209
-197
-182
-214
-209
-174
-169
-168
-144
-121
-102
-76
-52
-20
36
103
162
225
300
366
403
405
370
310
237
159
84
27
2
1
-9
-37
-47
-19
21
49
88
203
381
540
707
926
1088
1212
1492
1756
1528
800
95
-266
-390
-444
-467
-474
-485
-496
-500
-502
-515
-554
-604
-635
-653
-678
-703
-708
-692
-641
-526
-366
-217
-78
72
162
120
14
-51
-80
-122
-145
-116
-74
-60
-37
8
15
-4
33
86
73
55
87
88
40
38
73
49
-3
19
94
137
130
79
20
10
17
-16
-50
-46
-13
14
-15
-25
89
208
347
661
763
264
-259
-238
-71
-116
-151
-110
-134
-172
-157
-145
-151
-143
-128
-121
-112
-90
-58
-23
22
83
154
217
257
278
296
289
241
181
126
58
-9
-42
-58
-85
-108
-102
-90
-95
-98
-76
-43
-8
35
38
-22
-65
-64
-95
-133
-105
-95
-147
-148
-127
-160
-111
24
118
285
439
184
-274
-350
-154
-100
-151
-166
-173
-169
-147
-143
-152
-151
-135
-101
-80
-73
-48
-4
41
98
165
220
269
313
317
279
231
176
107
37
-12
-26
-21
-36
-59
-67
-69
-56
-23
-17
-32
-7
40
50
32
10
-13
-30
-32
-12
2
-4
6
11
-26
2
111
182
328
556
443
-31
-272
-156
-81
-117
-112
-104
-119
-104
-88
-87
-66
-40
-25
-1
15
9
24
69
104
128
168
223
272
296
285
251
216
178
128
80
51
35
30
38
46
62
103
151
163
148
166
223
245
203
153
124
81
23
2
8
-10
-25
-18
-55
-92
-11
117
220
363
359
3
-332
-287
-143
-154
-171
-140
-158
-188
-188
-203
-236
-259
-276
-309
-352
-361
-316
-263
-244
-225
-156
-59
17
71
96
32
-130
-325
-539
-753
-865
-871
-883
-855
-690
-508
-429
-359
-248
-186
-172
-110
-11
41
31
13
15
35
67
104
113
105
132
147
99
139
305
443
640
877
667
42
-237
-49
49
-19
-6
33
25
38
48
22
33
84
99
88
105
137
164
217
293
330
354
436
515
499
434
390
343
259
165
104
88
83
64
50
49
42
38
54
61
51
89
212
341
415
523
707
850
949
1181
1483
1488
1035
376
-148
-403
-473
-497
-530
-549
-550
-559
-576
-589
-606
-641
-684
-718
-752
-798
-837
-842
-805
-725
-597
-436
-277
-138
-23
54
90
93
77
62
48
20
-2
10
27
10
-9
6
19
9
5
17
15
-6
-20
-5
12
1
6
68
123
131
136
130
88
68
87
82
48
34
44
55
55
43
