# session 261
79
-252
426
369
-3127
-6768
-4900
-875
-1002
-2502
-1136
382
21
-192
148
78
0
132
96
83
222
239
172
206
234
180
175
229
233
224
199
102
126
263
266
444
774
412
-110
150
-349
-2169
-2701
-1647
-1234
-972
86
475
13
42
283
147
122
305
396
462
502
492
575
628
591
722
770
531
636
783
244
378
944
-1542
-5375
-4451
-645
-426
-2370
-1998
-380
378
715
817
569
556
756
601
443
742
592
-383
-599
418
981
697
705
994
1095
1342
1625
1382
818
383
271
536
478
48
589
608
-2772
-5932
-4006
-963
-1220
-1340
575
1340
703
691
887
694
667
722
678
800
945
922
935
955
834
762
754
627
607
658
444
502
832
398
359
1368
-438
-4854
-4777
-448
619
-1119
-761
515
824
1103
974
258
176
443
284
144
186
124
99
162
134
72
40
-37
-126
-186
-239
-257
-265
-258
-122
28
86
314
494
262
406
823
-401
-2454
-2041
203
971
337
253
620
412
4
460
843
-636
-2377
-1468
954
1358
-1012
-2967
-1790
368
945
1218
512
-3241
-5668
-2566
1244
988
-825
-1241
-568
361
877
729
591
803
923
868
1066
1417
1241
576
269
478
586
490
476
437
308
308
318
225
275
265
104
436
444
-1446
-3263
-2029
424
950
427
525
701
590
596
551
352
329
423
412
382
401
392
348
338
373
366
337
416
446
361
455
441
149
530
891
-909
-3025
-1879
729
1276
684
614
417
-28
-127
-153
-259
-167
-39
-93
-169
-187
-218
-221
-182
-275
-481
-470
-381
-573
-586
-310
-469
-356
483
-403
-3015
-2992
-161
1006
181
50
378
169
56
192
126
44
160
284
296
267
260
258
249
276
289
231
286
439
366
265
386
223
9
436
197
-1549
-2546
-1836
-1196
-729
267
690
375
464
602
155
-153
12
111
66
104
157
191
253
257
207
207
217
197
221
247
219
282
385
279
235
480
435
273
744
601
-1100
-1864
-399
644
158
-98
151
34
-147
-64
-41
-85
-31
67
179
296
341
322
291
240
176
147
157
176
206
259
268
193
168
309
457
464
542
590
-284
-2071
-2833
-1574
-70
181
-72
18
136
-68
-251
-93
-71
-269
109
306
-1002
-1968
-698
731
623
385
659
689
591
604
502
400
343
187
127
134
24
57
85
-149
79
415
-733
-2114
-1239
446
536
17
110
163
2
51
145
172
346
628
841
1069
1504
1981
1978
1270
349
-129
-122
-70
-152
-209
-191
-168
-182
-250
-272
-231
-363
-530
-429
-808
-2325
-3465
-2610
-961
-380
-532
-436
-204
-87
36
131
137
148
166
149
146
154
116
69
93
187
252
218
161
199
274
311
366
364
255
269
299
109
169
358
-56
-10
797
-288
-2507
-1874
-140
-799
-1212
290
770
122
326
588
230
167
316
180
66
107
125
144
176
210
312
423
430
382
395
467
527
560
600
631
642
655
613
488
394
283
92
127
239
-309
-1057
-780
52
218
-7
31
108
86
125
133
72
92
160
177
164
163
193
212
157
143
250
323
463
826
846
245
-160
-119
-134
5
74
-372
-27
496
-2118
-5534
-4166
-867
-1022
-1739
-22
1047
453
402
713
525
489
635
519
444
545
561
513
482
431
383
334
315
341
283
249
358
283
212
488
316
-17
808
602
-2542
-4136
-1616
-132
-1837
-2415
-686
506
475
343
432
561
629
686
708
439
27
-58
100
142
128
190
252
285
300
274
247
263
292
313
292
238
285
329
220
329
566
325
379
1022
-81
-2922
-3663
-1899
-740
-330
441
693
340
332
446
336
244
123
-12
60
192
206
208
231
228
243
300
352
359
340
357
384
359
398
568
658
664
767
713
299
42
220
289
114
188
9
-1369
-2772
-2162
-328
440
117
-34
59
51
78
168
216
265
324
358
378
397
425
434
401
348
250
136
148
226
206
198
232
119
96
286
182
124
592
480
264
1545
1272
-2493
-3955
-1203
-316
-1561
-542
905
344
-14
381
153
-143
-10
-37
-162
-117
-89
-102
-90
-137
-229
-254
-224
-228
-160
45
121
177
506
486
188
780
595
-2692
-5357
-3098
524
1063
336
437
535
563
501
-650
-1900
-1373
93
684
533
444
395
284
264
333
407
454
444
401
375
373
365
330
324
386
424
413
439
460
479
611
759
938
1309
1289
470
2
331
138
-157
582
53
-2656
-3291
-726
630
-388
-1149
-942
-269
562
759
452
493
649
530
494
626
666
630
617
604
579
536
444
360
323
235
165
235
140
-63
311
376
-1903
-5306
-5793
-2709
266
901
558
559
565
450
538
534
344
478
582
-166
-1180
-1267
-484
234
346
124
102
263
284
224
233
219
154
125
144
173
192
216
266
317
375
430
418
413
508
585
634
725
674
545
592
458
164
309
208
-331
265
465
-2395
-4347
-1853
-92
-1822
-2027
185
845
219
335
451
174
181
247
188
301
413
362
348
355
339
415
512
618
821
760
230
-134
42
233
163
166
267
202
123
188
129
58
269
-3
-1287
-2181
-1529
-420
-66
-92
55
198
225
284
346
319
249
166
84
53
56
57
79
98
60
23
64
110
78
53
105
153
170
133
26
42
96
-98
-19
352
-399
-1831
-1567
-68
343
-82
7
485
654
225
-177
38
-107
-931
-842
170
459
166
217
284
154
187
298
272
189
163
214
208
145
280
399
-96
-1061
-1653
-1328
-411
169
30
-211
-125
-10
-58
-95
-28
60
104
121
142
191
293
438
606
804
974
1095
1395
1799
1605
706
51
-129
-403
-353
55
-757
-2372
-2133
-392
202
-278
-394
-331
-401
-358
-399
-527
-405
-205
-135
-4
163
203
245
357
417
399
325
251
249
220
153
158
40
-94
166
99
-898
-1353
-423
301
91
-6
208
203
124
178
218
202
215
307
400
369
307
297
252
260
266
111
211
372
-101
-7
847
-609
-3516
-3116
-921
-1117
-1487
41
746
140
169
442
231
180
327
306
317
435
475
451
418
387
435
532
532
464
496
643
733
691
677
718
628
556
601
342
82
421
144
-1441
-2043
-670
354
151
95
301
181
106
241
234
153
185
193
129
175
336
354
200
153
233
193
121
249
410
545
823
593
-511
-700
322
-1095
-4929
-5171
-1442
-390
-2496
-2356
-79
685
261
323
475
410
518
672
786
996
1074
1000
1038
1036
957
990
829
616
765
514
156
934
622
-2294
-3717
-2526
-2658
-3136
-1269
-82
-980
-829
459
722
425
486
510
444
486
455
375
375
375
442
599
624
694
1042
1076
489
100
234
308
262
275
114
-70
49
184
131
104
87
19
70
198
227
213
237
282
363
437
394
285
240
216
125
51
68
107
152
222
216
120
91
125
105
77
75
59
98
206
251
222
182
120
95
104
-4
-77
119
64
-977
-2540
-3115
-1965
-179
739
702
419
102
-149
-101
82
129
85
68
141
233
180
134
280
300
136
234
325
161
380
487
-25
554
1185
-1470
-4006
-2114
-477
-1765
-1506
-272
-739
-175
462
-2247
-3922
-1179
1122
702
500
957
934
941
1173
1253
1355
1521
1697
2025
2203
1814
1099
578
402
331
255
267
197
101
384
343
-798
-1542
-676
212
-1
-295
-234
-307
-430
-400
-315
-182
-26
118
336
591
716
663
567
572
609
536
435
358
271
363
453
126
129
579
-1144
-5092
-5857
-2108
-133
-1807
-1867
525
1363
594
460
628
486
500
544
469
579
710
728
788
657
538
846
703
223
1020
1111
-1927
-3177
595
1926
-2677
-4821
-1470
320
-1210
-1495
-121
549
538
558
555
560
560
474
426
431
395
392
480
566
596
614
647
668
675
668
562
406
414
449
255
149
224
39
-23
259
-104
-359
643
26
-3227
-4221
-2139
-1467
-1652
-136
856
166
-110
144
28
4
146
184
375
628
833
1175
1189
566
125
302
498
447
402
397
373
363
336
294
290
328
421
498
468
474
544
493
561
780
292
-859
-1169
-338
304
250
62
-36
-114
-135
-154
-206
-211
-205
-222
-197
-179
-219
-190
-94
-58
-27
28
-19
-95
-36
49
5
-69
-14
62
-19
-78
11
42
216
640
593
214
135
-797
-2681
-2679
-509
619
98
-168
-37
-174
-280
-201
-133
-53
24
68
156
243
304
407
486
518
608
642
547
557
569
366
385
542
154
164
949
-451
-4374
-5457
-1920
1060
889
514
1206
917
-731
-1531
-381
1358
2104
1774
1156
732
465
239
110
132
185
147
67
33
31
7
-26
-45
-80
-123
-121
-146
-207
-148
-51
-38
113
252
159
409
698
171
271
1042
-1217
-5092
-4328
-794
-584
-1484
106
1366
788
476
542
222
116
272
236
196
276
323
334
359
424
522
579
557
523
581
574
378
438
672
312
212
991
-117
-3736
-4935
-1811
1300
1763
942
217
-178
-732
-1517
-1503
-587
108
314
392
372
330
348
342
337
360
359
374
427
468
541
674
757
748
730
739
741
705
614
520
467
354
205
228
254
73
85
204
-80
-19
476
-370
-1902
-1746
-1129
-1535
-1078
304
425
-174
-146
-103
-272
-177
-91
-124
20
218
469
894
947
375
-45
56
175
156
193
198
168
228
268
234
261
304
260
248
298
252
195
306
299
-167
-787
-971
-560
11
210
68
-39
-71
-152
-194
-148
-118
-137
-139
-94
-63
-102
-137
-80
2
12
27
135
167
3
-51
82
6
-47
172
-100
-330
546
-28
-3268
-3952
-462
884
-1451
-2444
-1577
-1381
-1016
112
494
176
185
318
267
267
330
355
396
446
467
471
481
538
652
715
670
643
705
721
653
632
601
467
408
406
303
356
459
193
226
658
-69
-1380
-967
32
-674
-1657
-1075
13
398
345
298
319
313
285
351
403
326
337
489
567
626
683
460
123
110
258
264
252
292
312
341
315
262
336
321
208
345
325
97
508
553
-752
-935
369
-273
-1772
-662
726
-8
-358
351
220
-264
-150
-119
-259
-178
-158
-260
-206
-89
-49
-1
74
167
284
321
269
276
292
261
363
395
124
226
684
-225
-2977
-5277
-4729
-1579
1101
1166
533
882
484
-927
-1478
-1345
-875
337
815
482
997
202
-2999
-3621
-443
1343
769
627
745
796
1174
308
-1303
-720
1077
1247
647
757
832
567
540
628
536
439
479
465
366
466
486
180
481
956
-470
-2266
-1106
868
-82
-2128
-2199
-899
279
807
609
350
472
608
819
1193
1039
350
58
255
334
277
307
337
326
330
322
331
393
409
369
386
420
416
490
583
580
650
750
702
786
825
450
600
865
-1528
-5253
-5134
-1993
-1170
-2181
-1271
457
417
-223
-16
38
-175
428
495
-1291
-2208
-562
754
307
41
369
339
261
385
376
398
545
639
816
902
517
135
262
442
356
322
385
393
406
384
381
522
468
302
598
409
-1446
-3188
-2473
-345
806
682
342
284
362
430
456
411
339
329
365
352
297
293
339
320
252
283
369
354
377
573
689
661
815
1043
1086
1296
1633
1661
1965
2253
399
-3125
-5198
-5215
-4116
-2019
-568
-1044
-1297
-198
285
-228
-349
-219
-285
-169
-270
-883
-1004
-393
-22
-32
86
328
497
464
260
261
550
667
504
446
547
536
505
582
473
362
579
412
69
724
384
-2829
-4649
-2095
31
-1317
-2476
-1370
84
786
974
800
571
444
247
81
187
393
427
435
597
732
791
1097
1559
1489
815
346
379
419
350
418
453
369
453
481
253
408
670
222
336
1055
-870
-4421
-4212
-1050
-63
-952
-798
109
684
962
960
759
570
404
282
215
148
122
142
125
125
205
246
217
283
461
605
746
970
1155
1287
1596
1941
1776
1041
314
-13
-115
-243
-292
-222
-335
-444
-203
-486
-1791
-2413
-1351
-255
-215
-333
-146
-121
-281
-320
-240
-139
-21
99
193
265
313
329
323
273
187
189
253
215
199
271
184
188
416
201
64
719
-113
-3131
-4316
-3115
-3327
-3743
-1403
936
1044
611
-278
-1684
-1438
174
772
511
516
490
327
355
374
354
494
620
756
1022
925
330
23
234
361
271
261
283
257
286
312
284
327
343
251
352
470
239
322
670
235
273
1354
-76
-3519
-3247
-552
-780
-1579
124
1118
309
211
569
199
-137
-96
-72
42
214
254
359
599
776
929
1153
1315
1438
1717
1929
1622
923
362
75
-74
-78
-48
-121
-105
-61
-252
-269
-76
-367
-459
55
-940
-3238
-3308
-1556
-1207
-1449
-542
163
-6
-25
102
15
-31
-15
2
65
41
37
135
39
47
597
896
382
-12
191
316
202
240
364
376
411
543
569
493
575
636
445
483
639
60
-573
-149
359
288
460
181
-1410
-2350
-1203
341
875
1051
1202
595
-579
-977
-402
-3
-76
-30
119
80
7
58
141
169
168
187
206
208
251
297
301
393
510
469
513
675
533
453
708
392
116
938
-89
-4115
-5222
-1619
-124
-2284
-2407
29
990
249
174
898
248
-2107
-2874
-818
725
319
36
358
331
254
427
425
341
485
659
767
983
1051
651
212
222
397
366
253
226
265
284
250
266
282
133
119
309
158
53
484
170
-1044
-1367
-1410
-2342
-1972
272
1312
676
475
668
463
367
478
368
204
180
155
124
141
133
103
122
176
227
249
214
179
187
149
70
124
258
261
211
229
193
220
427
486
576
1006
546
-1484
-2992
-2517
-1334
-504
-19
-62
-378
-379
-211
-180
-168
-110
-88
