# session 64
174
164
170
185
220
274
312
335
379
442
503
551
558
528
489
427
328
231
163
112
72
45
28
10
-4
15
51
66
94
158
217
349
603
808
959
1202
1261
822
210
-147
-287
-355
-374
-385
-403
-400
-393
-411
-441
-468
-495
-532
-577
-622
-668
-703
-704
-682
-639
-537
-380
-231
-108
-3
60
63
32
-5
-39
-73
-105
-115
-110
-123
-143
-131
-108
-118
-135
-133
-132
-130
-115
-126
-149
-120
-75
-79
-85
-57
-40
-40
-26
-7
-3
-10
-14
-7
-2
-17
-26
-7
18
25
33
67
118
152
147
122
110
104
93
94
97
77
77
90
47
34
148
284
448
686
618
67
-354
-266
-87
-96
-120
-103
-112
-117
-101
-84
-62
-48
-53
-45
-23
-11
6
47
99
150
201
256
314
365
401
419
410
368
303
225
139
61
3
-44
-84
-115
-139
-152
-160
-169
-165
-155
-162
-161
-135
-126
-133
-117
-95
-78
-47
-38
-81
-131
-151
-153
-133
-112
-140
-173
-134
-118
-166
-84
114
212
342
531
292
-297
-478
-236
-156
-231
-187
-124
-138
-142
-130
-139
-127
-82
-50
-49
-47
-20
19
55
110
186
260
325
400
463
462
405
334
234
88
-39
-105
-141
-168
-198
-235
-237
-189
-138
-75
27
126
276
587
910
1114
1403
1791
1798
1177
339
-221
-430
-481
-507
-523
-532
-549
-564
-565
-575
-604
-635
-670
-719
-768
-806
-839
-842
-784
-671
-512
-318
-137
3
115
191
198
159
127
113
101
90
85
84
86
88
95
103
101
92
90
93
87
74
74
88
89
71
66
82
82
57
46
62
70
48
31
48
60
37
10
6
4
-8
-9
18
63
101
96
58
46
56
41
33
49
40
36
52
17
10
138
268
415
704
736
208
-278
-236
-69
-100
-136
-105
-101
-106
-97
-101
-102
-89
-75
-60
-48
-42
-15
24
45
67
119
183
236
268
274
273
256
209
153
91
-2
-89
-128
-169
-229
-243
-215
-206
-211
-204
-207
-212
-195
-180
-172
-148
-135
-132
-85
-20
-24
-64
-70
-63
-76
-86
-71
-61
-80
-77
-40
-52
-78
19
171
302
477
471
53
-340
-285
-99
-99
-130
-98
-88
-90
-78
-81
-82
-65
-53
-56
-47
-16
16
40
79
136
200
275
345
377
377
373
352
287
192
101
26
-30
-70
-98
-118
-130
-130
-127
-127
-129
-130
-130
-128
-118
-99
-88
-84
-57
-7
13
-9
-35
-45
-51
-65
-64
-43
-38
-43
-31
-49
-66
14
115
195
377
450
99
-324
-341
-173
-146
-171
-157
-159
-163
-149
-138
-131
-122
-118
-111
-94
-69
-41
-20
6
61
126
185
261
349
396
397
381
335
241
137
57
3
-31
-57
-75
-79
-80
-91
-89
-76
-56
16
133
252
460
774
1002
1232
1677
1904
1331
347
-266
-448
-526
-567
-554
-561
-592
-592
-577
-589
-614
-634
-669
-723
-760
-777
-806
-826
-785
-680
-540
-376
-196
-29
98
179
218
220
186
133
98
101
113
115
115
109
90
85
103
98
59
41
49
46
44
48
27
12
44
69
52
41
48
54
68
78
67
56
47
34
48
57
16
11
104
175
133
75
82
92
55
37
62
58
44
62
39
32
178
343
485
767
824
255
-333
-317
-96
-102
-156
-135
-134
-145
-131
-112
-102
-104
-109
-97
-79
-68
-52
-23
1
28
99
190
237
255
292
311
276
223
162
76
-14
-78
-124
-162
-186
-202
-214
-215
-207
-198
-185
-177
-174
-152
-118
-113
-138
-132
-71
-23
-37
-75
-96
-108
-118
-124
-127
-125
-122
-105
-92
-126
-123
3
137
275
480
422
-74
-448
-349
-184
-204
-212
-165
-171
-188
-151
-103
-91
-88
-56
-20
-11
-3
24
64
122
182
228
298
390
436
428
414
376
282
179
102
26
-37
-60
-71
-98
-127
-126
-85
-49
-32
19
98
191
408
703
868
1028
1335
1364
812
154
-166
-283
-358
-365
-352
-372
-387
-389
-415
-446
-453
-466
-512
-564
-596
-618
-636
-635
-592
-495
-359
-204
-48
84
175
226
243
228
185
138
132
164
166
120
103
136
146
120
108
110
105
99
87
68
56
50
32
12
6
-8
-34
-35
-23
-41
-69
-66
-59
-75
-94
-95
-77
-56
-57
-66
-42
10
32
7
-33
-56
-67
-76
-85
-91
-104
-109
-101
-134
-168
-81
74
211
374
375
-1
-385
-361
-180
-162
-186
-150
-126
-120
-108
-105
-95
-73
-60
-47
-23
1
18
35
68
120
173
217
275
340
373
368
359
346
298
223
155
97
39
-10
-36
-42
-43
-44
-31
6
76
164
235
371
658
928
1077
1275
1386
1020
373
-45
-199
-291
-325
-324
-365
-400
-398
-422
-476
-508
-523
-557
-606
-651
-691
-721
-727
-695
-610
-477
-324
-162
6
132
182
187
171
128
79
47
16
1
21
34
13
0
13
21
15
4
-5
-3
-9
-27
-24
-5
-23
-58
-56
-38
-44
-42
-18
-13
-35
-36
-19
-27
-52
-48
-21
-26
-74
-92
-33
37
56
38
13
-8
-14
-10
-4
-9
-16
11
13
-44
18
215
342
511
765
586
-48
-351
-167
-62
-123
-107
-76
-104
-102
-81
-83
-73
-44
-26
-21
-15
8
50
87
120
184
262
313
355
402
416
396
373
330
252
172
102
30
-32
-76
-114
-137
-127
-107
-113
-124
-108
-82
-61
-27
-5
-23
-26
21
64
81
73
12
-52
-43
3
39
52
20
5
52
57
45
151
283
409
626
618
135
-277
-205
-43
-56
-58
-30
-63
-97
-126
-192
-255
-308
-381
-433
-443
-448
-453
-453
-443
-391
-289
-170
-56
36
76
77
69
42
-20
-98
-163
-202
-217
-224
-228
-220
-194
-171
-165
-158
-135
-117
-108
-83
-48
-19
19
62
70
43
22
25
26
13
14
29
23
21
72
87
38
71
181
277
486
681
424
-93
-246
-81
-16
-39
-10
6
-8
8
35
37
32
47
67
70
77
105
132
156
192
239
288
335
369
388
394
372
312
227
132
52
6
-34
-88
-131
-150
-161
-161
-152
-153
-162
-160
-141
-117
-97
-77
-35
24
77
124
167
230
368
518
583
673
883
968
715
297
-32
-214
-280
-289
-307
-329
-330
-325
-334
-356
-385
-413
-438
-466
-500
-537
-565
-570
-561
-538
-470
-350
-220
-98
32
144
201
212
194
152
101
61
29
-2
-23
-34
-40
-43
-44
-46
-47
-44
-38
-38
-35
-16
-6
-29
-51
-34
-2
-8
-31
2
89
144
131
90
61
49
42
36
50
53
33
46
51
-3
58
262
416
639
920
677
-53
-391
-203
-106
-172
-141
-93
-126
-151
-142
-129
-104
-81
-94
-116
-92
-40
-8
19
62
105
165
274
375
406
397
380
326
239
155
60
-45
-109
-137
-169
-196
-203
-216
-227
-215
-206
-205
-182
-159
-168
-172
-132
-75
-38
-37
-65
-93
-104
-121
-144
-141
-133
-145
-126
-102
-140
-101
84
206
322
579
521
-79
-488
-332
-167
-233
-236
-162
-165
-182
-156
-141
-133
-105
-80
-53
-26
-34
-34
44
134
163
212
323
405
424
431
428
370
258
136
47
-14
-65
-100
-112
-105
-96
-96
-99
-90
-78
-71
-59
-33
-20
-31
-23
47
154
234
277
371
555
718
819
1045
1492
1807
1535
755
30
-294
-359
-390
-411
-402
-394
-402
-417
-439
-460
-476
-499
-529
-556
-598
-652
-679
-674
-672
-656
-572
-438
-304
-163
-18
72
93
95
91
68
35
11
0
-17
-43
-42
-13
-3
-13
-4
13
8
3
10
1
-24
-40
-45
-53
-52
-34
-22
-29
-20
24
75
93
73
45
25
3
-4
24
41
16
17
43
18
32
150
253
399
638
552
19
-323
-206
-87
-127
-118
-85
-110
-115
-100
-115
-122
-103
-92
-86
-65
-37
-13
15
52
89
131
191
255
302
333
337
298
242
192
133
58
-1
-29
-53
-81
-93
-96
-106
-108
-98
-111
-131
-105
-55
-45
-60
-49
-10
31
44
19
-15
-35
-48
-52
-38
-25
-40
-48
-30
-32
-34
35
119
216
373
346
-34
-362
-311
-141
-100
-103
-87
-72
-54
-47
-48
-36
-24
-20
-12
-10
-3
23
50
75
121
180
227
264
306
339
343
319
274
195
95
23
-11
-46
-83
-94
-88
-86
-82
-79
-90
-99
-97
-89
-59
-16
0
39
156
272
353
491
631
701
890
1201
1195
703
122
-219
-362
-423
-446
-451
-449
-453
-469
-477
-482
-509
-546
-564
-581
-617
-652
-669
-679
-679
-639
-552
-434
-294
-146
-16
85
148
169
150
102
56
40
38
24
7
7
13
9
6
22
37
37
34
29
14
10
23
27
17
2
-31
-65
-60
-41
-55
-65
-22
44
79
73
52
57
82
79
60
70
63
46
85
91
38
134
331
451
671
865
491
-155
-281
-49
-14
-75
-38
-25
-44
-9
27
7
-12
6
15
8
29
57
55
71
132
189
237
312
389
424
432
420
363
270
173
75
-2
-35
-70
-114
-120
-113
-139
-155
-138
-135
-144
-123
-94
-102
-118
-89
-19
42
41
-24
-82
-94
-103
-121
-113
-104
-107
-87
-98
-145
-70
104
220
403
597
343
-240
-456
-275
-186
-218
-185
-159
-185
-175
-150
-164
-172
-150
-140
-136
-111
-93
-85
-46
19
80
149
229
293
327
336
306
232
130
25
-58
-108
-144
-181
-206
-209
-200
-193
-183
-166
-158
-172
-182
-155
-120
-130
-160
-128
-48
-21
-59
-94
-102
-101
-107
-116
-111
-103
-103
-87
-87
-112
-41
100
196
387
611
393
-175
-408
-242
-135
-148
-132
-119
-108
-70
-62
-79
-62
-46
-64
-56
-11
13
17
52
123
202
280
347
400
445
464
432
366
285
187
93
26
-21
-50
-62
-82
-106
-107
-98
-86
-54
-8
61
155
255
432
704
922
1143
1504
1630
1140
415
-28
-221
-330
-368
-379
-399
-408
-417
-437
-455
-479
-512
-544
-583
-615
-624
-634
-639
-603
-528
-425
-280
-120
16
120
186
201
176
138
110
99
86
62
47
52
63
67
62
57
60
57
44
40
50
48
33
32
42
41
39
44
44
45
47
32
11
-9
-55
-107
-119
-126
-166
-188
-160
-139
-165
-206
-221
-217
-220
-221
-200
-187
-180
-145
-132
-150
-73
83
217
391
467
142
-312
-377
-199
-154
-168
-122
-116
-140
-112
-82
-89
-84
-53
-33
-30
-28
-13
22
73
126
175
235
303
357
393
417
419
391
344
281
204
132
75
22
-14
-19
-20
-29
-26
-3
21
38
67
147
269
391
563
809
1006
1178
1456
1574
1153
441
-48
-258
-359
-382
-369
-403
-451
-464
-469
-488
-517
-551
-586
-621
-672
-721
-730
-722
-723
-686
-577
-438
-295
-132
23
131
192
206
161
98
73
74
51
7
-19
-13
11
29
25
2
-28
-42
-16
3
-26
-52
-41
-34
-37
-29
-34
-46
-25
2
-8
-20
-19
-28
-32
-31
-54
-57
12
87
92
51
22
16
4
-9
4
10
-1
13
0
-22
98
267
379
625
797
389
-214
-293
-86
-78
-123
-79
-73
-89
-63
-50
-60
-55
-48
-45
-30
-14
-6
7
47
105
145
184
258
324
334
325
333
310
220
118
60
5
-83
-144
-139
-142
-185
-205
-179
-147
-123
-107
-97
-74
-54
-78
-107
-64
6
3
-42
-61
-73
-92
-83
-48
-47
-89
-87
-29
-44
-91
14
165
267
539
760
375
-257
-370
-160
-145
-222
-192
-154
-157
-159
-158
-145
-117
-101
-90
-61
-32
-28
-12
37
83
111
163
239
296
325
328
294
223
138
57
-17
-84
-145
-179
-170
-162
-192
-205
-171
-155
-169
-170
-156
-130
-106
-114
-116
-67
-20
-26
-55
-78
-96
-105
-95
-71
-63
-67
-48
-49
-87
-46
66
149
344
603
448
-71
-275
-45
172
261
333
333
254
192
159
123
91
73
69
68
63
64
73
84
107
145
188
229
263
278
276
263
226
157
68
-16
-83
-132
-169
-199
-215
-220
-232
-245
-246
-244
-250
-247
-223
-200
-200
-199
-163
-124
-136
-186
-220
-225
-221
-214
-195
-190
-194
-159
-126
-147
-106
25
112
239
433
296
-204
-453
-290
-168
-203
-199
-167
-166
-142
-107
-99
-92
-71
-57
-45
-19
3
12
31
73
125
180
246
307
343
364
369
326
240
155
74
-17
-81
-101
-112
-126
-117
-98
-101
-118
-124
-124
-119
-98
-85
-93
-52
57
148
199
256
331
452
602
710
892
1327
1782
1774
1150
281
-292
-427
-432
-486
-496
-462
-469
-497
-502
-499
-511
-541
-562
-569
-608
-679
-715
-714
-726
-741
-720
-644
-509
-345
-200
-75
33
95
115
127
131
135
190
276
348
505
796
1042
1233
1617
2021
1889
1177
414
-35
-207
-262
-297
-310
-292
-294
-330
-340
-309
-298
-339
-409
-498
-590
-646
-647
-601
-507
-365
-201
-35
110
206
254
269
243
197
181
180
149
127
148
152
122
117
127
107
95
125
141
113
74
60
72
74
39
10
26
43
24
-4
-20
-23
-8
0
-16
-28
-21
-21
-33
-37
-41
-57
-71
-75
-88
-103
-104
-117
-159
-184
-172
-164
-174
-159
-111
-62
-33
-37
-65
-87
-93
-91
-82
-91
-106
-83
-86
-128
-50
110
227
478
731
419
-252
-475
-289
-242
-308
-288
-274
-299
-301
-304
-305
-272
-249
-264
-267
-230
-190
-175
-158
-116
-71
-24
43
108
143
154
161
154
113
45
-6
-29
-71
-125
-148
-153
-166
-165
-147
-123
-88
-50
-35
-25
8
55
96
137
212
326
422
482
594
734
780
854
1094
1213
936
504
232
113
69
79
88
82
93
117
