# session 100
422
475
516
571
624
628
607
598
540
415
310
232
139
67
26
-20
-55
-73
-107
-120
-88
-60
-45
-28
-3
82
240
399
566
781
999
1270
1699
2072
1930
1165
238
-344
-535
-591
-640
-673
-701
-727
-728
-743
-806
-869
-903
-940
-996
-1062
-1114
-1117
-1065
-973
-841
-680
-507
-334
-210
-172
-170
-153
-149
-163
-152
-131
-135
-139
-125
-117
-121
-124
-113
-91
-85
-103
-107
-91
-94
-114
-118
-100
-83
-89
-99
-67
-4
27
7
-25
-41
-40
-34
-29
-25
-24
-5
27
11
-1
87
172
238
430
499
131
-279
-267
-92
-76
-105
-72
-46
-48
-43
-25
-7
5
13
31
67
104
134
180
250
310
351
393
428
433
412
376
316
224
127
67
35
-5
-36
-32
-11
-5
-17
-19
17
59
60
51
81
121
127
102
60
15
-13
-24
-24
-21
-36
-41
-17
-33
-60
17
139
259
451
469
79
-306
-293
-149
-141
-160
-140
-136
-136
-126
-117
-106
-96
-92
-81
-49
-13
21
74
145
200
249
323
372
348
296
241
137
0
-88
-131
-181
-220
-220
-208
-210
-220
-229
-220
-188
-154
-112
-6
168
339
508
728
943
1097
1327
1664
1716
1155
303
-274
-475
-531
-561
-577
-597
-611
-626
-674
-728
-749
-777
-844
-915
-963
-996
-1008
-992
-927
-793
-607
-421
-254
-100
9
36
11
-9
-14
-19
-28
-37
-33
-18
-8
10
43
60
57
69
85
84
91
100
73
44
62
94
81
57
94
186
246
231
192
186
185
156
152
177
157
128
129
83
75
208
329
520
941
1018
339
-307
-285
-89
-119
-158
-126
-118
-109
-93
-93
-82
-68
-57
-11
42
56
78
150
235
296
356
432
490
478
416
368
337
271
179
115
92
85
86
90
83
88
123
149
146
156
181
193
241
351
439
507
665
875
1068
1384
1840
2064
1729
977
204
-315
-563
-686
-801
-907
-973
-1006
-1028
-1042
-1057
-1080
-1109
-1143
-1181
-1209
-1213
-1197
-1138
-1008
-833
-671
-530
-381
-249
-189
-177
-179
-215
-256
-244
-219
-232
-229
-187
-165
-165
-146
-121
-112
-96
-65
-52
-62
-73
-59
-22
11
22
40
83
120
123
110
99
90
91
108
115
88
87
132
117
71
159
288
355
531
641
282
-199
-216
-4
22
-10
29
39
37
76
98
91
102
123
130
137
162
204
255
311
373
446
520
576
592
564
511
437
330
211
126
72
15
-37
-53
-48
-64
-94
-83
-30
16
74
189
368
643
981
1217
1409
1804
2160
1879
967
63
-421
-570
-597
-612
-637
-663
-679
-689
-717
-768
-809
-836
-888
-955
-986
-984
-982
-945
-808
-599
-401
-233
-91
12
69
70
29
-5
-25
-38
-38
-54
-76
-41
-5
-40
-57
-20
-26
-48
-4
29
-13
-42
-10
15
-17
-47
-7
30
-18
-43
42
117
120
117
98
60
61
64
34
35
60
59
40
35
85
189
351
703
1036
750
4
-333
-170
-84
-143
-135
-132
-155
-123
-99
-119
-110
-88
-92
-76
-30
-7
7
55
128
207
281
319
324
333
318
234
120
28
-49
-112
-160
-202
-212
-193
-201
-231
-227
-197
-175
-151
-120
-87
-50
-23
-23
-48
-79
-91
-93
-108
-110
-84
-64
-58
-65
-54
37
141
231
435
540
185
-274
-294
-104
-81
-109
-82
-78
-70
-44
-53
-64
-48
-43
-32
8
41
61
99
147
192
251
308
334
339
318
246
144
51
-29
-93
-136
-162
-163
-152
-153
-156
-148
-145
-132
-94
-71
-78
-53
23
57
6
-37
-16
-1
-18
-11
0
-28
-39
-23
-33
5
113
169
269
497
464
13
-305
-207
-82
-128
-160
-121
-90
-84
-87
-78
-62
-75
-86
-43
6
13
41
123
185
203
227
275
308
299
256
200
132
51
-19
-62
-80
-78
-80
-99
-108
-101
-100
-99
-72
-38
-28
-36
-20
26
44
10
-22
-29
-41
-57
-59
-69
-75
-37
-23
-94
-99
19
90
167
324
214
-240
-479
-326
-202
-229
-222
-189
-190
-184
-173
-177
-166
-128
-86
-64
-58
-30
37
108
154
195
251
303
325
319
293
227
113
4
-45
-53
-79
-123
-135
-113
-112
-132
-130
-130
-144
-122
-77
-72
-66
-11
31
21
2
-10
-26
-35
-25
-18
-37
-31
14
-10
-57
63
254
385
602
701
295
-218
-256
-76
-64
-93
-59
-52
-57
-39
-26
-13
9
25
35
37
44
100
189
243
265
315
389
422
392
340
294
229
143
66
2
-39
-52
-72
-104
-109
-96
-102
-121
-132
-123
-103
-107
-119
-88
-27
-2
-27
-62
-70
-76
-103
-101
-87
-123
-100
-47
-151
-140
104
45
-38
412
184
-1298
-1906
-765
136
-33
-173
-15
-1
-47
-30
-55
-83
-68
-59
-40
10
50
78
114
155
191
228
263
291
304
283
207
113
63
40
-8
-36
-8
-5
-49
-62
-50
-65
-70
-52
-65
-83
-43
5
7
19
61
68
25
-18
-37
-47
-57
-52
-33
-20
-21
-40
-56
-15
62
175
415
587
333
-124
-268
-159
-119
-125
-93
-87
-100
-91
-88
-82
-41
-12
-11
14
52
62
83
151
211
221
221
242
250
221
188
152
88
29
10
-11
-43
-48
-45
-61
-70
-62
-59
-60
-77
-105
-98
-59
-38
-34
6
101
196
220
260
454
695
863
1148
1511
1416
733
45
-269
-370
-423
-438
-446
-475
-492
-483
-483
-514
-544
-552
-568
-602
-621
-620
-605
-569
-507
-407
-262
-112
-18
20
51
71
49
16
15
13
-22
-45
-31
-19
-17
-3
10
8
6
4
1
11
23
21
10
-2
-8
-4
-3
-13
-19
-26
-24
34
118
133
87
59
59
41
12
13
29
27
41
63
33
36
151
277
422
588
446
-42
-308
-169
-47
-80
-82
-52
-54
-56
-52
-50
-35
-22
-25
-14
26
71
104
140
188
241
293
336
356
340
303
256
192
113
48
7
-28
-54
-61
-56
-58
-70
-75
-69
-72
-95
-108
-97
-90
-94
-67
-4
34
17
-21
-49
-71
-90
-89
-78
-91
-92
-60
-72
-115
-76
27
207
512
599
192
-241
-259
-132
-135
-166
-163
-146
-111
-100
-117
-120
-121
-110
-57
-30
-61
-48
43
108
122
159
190
157
134
161
138
43
-22
-37
-66
-107
-120
-111
-114
-127
-133
-130
-128
-124
-122
-134
-153
-159
-146
-132
-114
-60
6
19
-16
-41
-60
-91
-83
-39
-50
-87
-48
-21
-74
-47
101
302
589
716
346
-157
-252
-125
-112
-128
-102
-103
-98
-75
-81
-81
-48
-39
-50
-19
40
76
108
156
198
228
259
282
285
259
205
148
112
83
35
-15
-32
-29
-39
-48
-33
-26
-45
-58
-60
-75
-92
-77
-47
-36
-29
7
49
42
-8
-41
-45
-55
-62
-51
-64
-81
-53
-51
-89
-58
42
192
415
442
71
-277
-242
-112
-125
-140
-108
-96
-91
-85
-86
-74
-58
-51
-31
-1
24
54
94
139
188
222
225
228
235
203
133
75
35
-12
-58
-75
-63
-59
-78
-83
-64
-64
-77
-63
-59
-103
-126
-83
-49
-64
-55
6
54
42
-5
-46
-63
-67
-65
-52
-54
-64
-40
-38
-97
-86
38
198
397
467
149
-260
-288
-120
-106
-144
-110
-100
-123
-116
-93
-78
-62
-48
-41
-28
1
35
66
114
182
227
247
266
251
199
164
135
67
-4
-31
-32
-45
-68
-75
-65
-68
-81
-77
-65
-79
-111
-117
-90
-74
-89
-85
-33
26
41
2
-49
-66
-62
-64
-62
-69
-87
-64
-40
-64
-35
76
203
375
413
49
-363
-326
-98
-80
-135
-108
-93
-97
-71
-53
-54
-42
-21
-15
-7
24
77
126
168
223
289
335
337
315
297
263
173
65
7
-16
-45
-74
-83
-71
-49
-60
-109
-124
-79
-56
-90
-111
-96
-97
-107
-67
7
45
25
-21
-57
-63
-47
-38
-57
-73
-34
1
-61
-84
59
193
297
500
486
36
-296
-184
-61
-121
-131
-108
-139
-92
-3
-18
-45
-8
-25
-63
2
85
95
97
138
194
237
253
248
213
167
156
127
20
-63
-62
-82
-125
-115
-92
-106
-118
-117
-111
-91
-98
-139
-138
-110
-134
-151
-77
11
30
4
-41
-82
-88
-81
-84
-88
-92
-76
-55
-90
-113
-9
171
380
533
360
-77
-294
-197
-128
-159
-140
-98
-108
-120
-112
-124
-124
-75
-22
-20
-48
-17
85
142
131
177
273
289
253
261
254
175
92
32
-18
-28
-24
-60
-82
-56
-49
-62
-44
-48
-112
-147
-123
-125
-168
-186
-161
-101
-14
25
-30
-83
-70
-74
-101
-84
-76
-100
-61
-45
-134
-114
95
330
585
703
345
-182
-283
-123
-126
-201
-167
-100
-84
-98
-94
-73
-62
-34
5
3
1
63
123
131
161
233
264
241
241
256
215
140
98
67
17
-2
18
19
16
54
75
15
-32
21
49
-43
-89
2
63
40
64
126
131
95
47
5
-9
-30
-57
-55
-59
-54
-33
-93
-153
-51
156
483
845
684
-27
-437
-295
-170
-203
-195
-202
-244
-225
-209
-226
-194
-146
-161
-186
-162
-124
-87
-23
56
102
119
145
169
150
111
88
38
-59
-135
-159
-174
-178
-146
-125
-144
-158
-145
-120
-103
-115
-136
-117
-87
-95
-87
-21
34
29
6
-9
-34
-50
-38
-37
-63
-49
3
-16
-60
12
139
266
451
441
12
-363
-262
-53
-76
-126
-79
-61
-66
-29
-7
-30
-37
-6
29
53
72
107
169
236
293
350
400
420
400
351
285
208
128
57
-2
-35
-39
-44
-55
-46
-38
-56
-57
-40
-64
-99
-90
-83
-108
-89
-6
52
31
-24
-60
-77
-94
-97
-85
-88
-79
-62
-113
-144
-29
112
252
488
495
46
-325
-250
-116
-157
-177
-146
-144
-124
-96
-109
-118
-90
-71
-70
-47
2
46
87
135
176
209
246
269
257
224
172
88
-11
-77
-80
-67
-97
-127
-94
-55
-72
-91
-84
-87
-105
-113
-102
-77
-60
-51
-6
55
45
-25
-67
-73
-85
-77
-42
-52
-89
-69
-44
-65
-42
68
252
445
374
-29
-309
-220
-92
-112
-129
-94
-75
-79
-80
-63
-38
-37
-40
-6
48
92
118
132
168
241
300
314
308
290
246
189
127
65
17
-13
-33
-46
-55
-57
-56
-64
-74
-67
-66
-88
-93
-56
-25
-21
2
47
53
9
-34
-56
-86
-117
-91
-42
-61
-95
-75
-99
-153
-95
34
190
374
309
-95
-353
-258
-167
-195
-173
-126
-128
-118
-87
-79
-81
-72
-58
-33
8
55
97
127
153
203
273
314
304
280
249
180
87
18
-15
-34
-61
-91
-98
-87
-87
-96
-95
-94
-110
-130
-134
-117
-103
-102
-70
-2
17
-34
-73
-71
-74
-100
-120
-115
-106
-88
-58
-76
-108
-30
132
308
433
263
-177
-379
-219
-113
-159
-150
-97
-81
-84
-95
-82
-44
-46
-70
-31
39
61
70
123
193
248
295
337
354
328
272
202
125
52
-6
-54
-81
-75
-73
-92
-93
-62
-48
-56
-32
46
126
196
386
727
1036
1312
1697
1863
1359
473
-160
-407
-478
-493
-482
-482
-514
-542
-530
-524
-554
-572
-567
-584
-614
-618
-589
-531
-449
-352
-247
-144
-54
0
10
11
18
3
-33
-52
-44
-40
-49
-48
-29
-25
-36
-28
-19
-31
-33
-11
-1
-12
-24
-21
-7
-1
-7
-9
-2
-1
-12
-30
-41
-22
6
3
8
68
120
109
72
40
18
25
49
41
17
30
50
21
11
89
175
270
400
319
-49
-274
-163
-42
-48
-49
-44
-52
-23
-4
-29
-31
2
25
38
60
92
126
154
193
251
291
306
332
349
314
258
215
172
119
57
4
-3
4
-31
-56
-24
-12
-52
-80
-84
-84
-61
-37
-47
-39
13
27
-18
-49
-54
-80
-115
-122
-110
-110
-106
-84
-99
-150
-131
-18
133
240
122
-202
-365
-245
-137
-156
-158
-131
-124
-106
-79
-86
-108
-98
-58
-32
-29
1
60
90
116
190
250
250
256
270
214
122
68
22
-52
-109
-118
-108
-114
-135
-138
-113
-101
-116
-130
-139
-138
-113
-87
-77
-39
20
23
-30
-61
-55
-69
-105
-101
-72
-65
-60
-66
-102
-79
14
135
352
477
175
-261
-315
-161
-144
-162
-130
-136
-136
-94
-86
-102
-80
-50
-41
-30
-9
33
106
171
193
217
281
338
334
278
213
160
106
36
-29
-48
-43
-69
-96
-81
-67
-67
-39
-18
-4
86
198
315
595
969
1249
1581
1907
1677
845
68
-309
-444
-476
-457
-449
-458
-468
-473
-475
-502
-549
-563
-556
-587
-621
-596
-541
-491
-411
-290
-178
-95
-23
32
51
34
3
-16
-21
-24
-27
-22
-12
0
4
-11
-21
-10
-3
-9
-7
-4
-17
-23
-11
-12
-25
-19
-3
1
2
-4
-31
-53
-40
-17
-21
-22
28
94
112
81
47
20
0
5
13
-9
-11
20
-2
-29
53
182
318
462
358
-53
-301
-181
-55
-93
-120
-87
-62
-49
-54
-67
-48
-20
-18
-10
22
42
54
94
153
199
228
251
271
275
253
220
186
140
79
26
-3
-15
-25
-38
-51
-63
-66
-57
-60
-85
-82
-39
-21
-31
0
46
38
4
-17
-45
-77
-79
-67
-78
-94
-75
-62
-99
-113
-53
46
210
317
95
-279
-349
-183
-127
-155
-140
-134
-139
-110
-88
-92
-87
-67
-46
-17
13
32
67
131
193
233
262
284
284
252
195
132
73
11
-49
-78
-70
-61
-74
-81
-78
-81
-85
-86
-98
-98
-61
-29
-28
-7
49
70
30
-14
-31
-44
-58
-47
-33
-50
-52
-29
-44
-58
5
117
306
489
337
-92
-272
-135
-64
-103
-87
-51
-44
-43
-48
-40
-12
2
