# session 189
99
-19
-41
-19
-46
-93
-74
-12
-9
-69
-73
40
107
-1
-20
137
20
-133
295
-66
-2724
-5089
-3726
-484
775
327
237
401
294
319
448
408
423
625
834
824
456
10
-64
122
168
94
81
74
40
52
69
68
61
-2
38
148
-93
-139
503
-246
-3292
-4665
-2067
684
835
370
619
722
591
636
645
516
396
280
213
226
188
92
78
105
86
110
184
151
73
102
155
189
222
197
292
385
45
40
667
-492
-3722
-4566
-1640
731
621
271
492
478
356
418
476
494
626
909
989
561
98
84
191
145
141
179
117
69
126
141
56
44
131
115
32
106
216
153
90
159
196
170
196
234
220
236
307
355
345
296
198
67
-13
-22
-33
-65
-75
-72
-64
-44
-60
-136
-156
-72
-41
-83
-7
64
-35
66
265
-66
-198
385
-510
-3442
-4565
-2284
-12
323
208
387
372
243
279
396
478
638
924
902
346
-107
-37
116
86
45
0
-49
-11
6
-41
-11
-1
-75
-22
23
-71
105
217
-190
105
728
-1226
-4145
-3051
432
1163
116
373
956
704
523
595
462
299
248
231
250
237
193
202
208
197
208
181
159
213
224
189
256
349
314
227
262
338
225
194
425
232
-61
582
305
-2455
-3941
-1578
796
643
322
918
1098
641
248
172
302
381
343
330
341
309
249
194
193
233
240
226
229
221
221
245
256
263
283
269
298
447
499
415
531
634
430
632
804
-1278
-4585
-4632
-1238
1018
774
427
644
584
464
576
583
449
407
457
472
444
465
500
488
529
518
376
410
399
96
445
811
-1785
-6467
-7878
-4641
-891
764
1087
1022
1136
1562
1501
1066
1053
30
-2884
-4188
-1535
1268
816
47
1470
908
-3502
-4904
-692
1847
661
920
1387
-1232
-2498
114
1804
1018
796
1261
1096
959
1150
1105
973
974
898
764
704
640
529
420
362
361
326
280
327
289
163
280
299
24
388
550
-1866
-4828
-3846
-366
965
355
300
572
423
343
449
443
396
389
372
373
433
499
526
662
925
873
361
-6
66
167
118
97
100
68
54
51
39
52
76
73
53
25
-8
-22
5
23
-10
-4
71
87
103
180
112
119
344
40
-289
506
142
-2935
-4234
-1435
707
60
-307
196
85
-135
44
49
-57
3
34
2
17
35
58
96
83
36
11
-7
-26
-23
-12
-15
-32
-42
-30
-28
-30
35
120
199
434
669
439
-81
-271
-154
-107
-121
-109
-138
-162
-113
-71
-104
-156
-136
-72
-82
-132
-102
-51
-68
-71
-9
38
45
80
146
188
212
257
294
271
213
173
143
92
36
-2
-24
-33
-32
-35
-54
-83
-99
-98
-98
-81
-27
10
-5
-1
40
47
16
3
1
-20
-48
-57
-40
-27
-30
-20
-21
-63
-47
63
152
280
487
430
22
-237
-144
-41
-82
-125
-104
-64
-57
-64
-28
-4
-50
-92
-86
-73
-66
-63
-61
-37
8
46
75
107
145
194
228
219
192
175
152
111
71
37
0
-32
-47
-48
-43
-47
-60
-64
-55
-53
-72
-92
-74
-34
-26
-44
-40
-9
18
8
-40
-65
-51
-61
-92
-99
-113
-141
-119
-87
-123
-133
-40
82
210
277
71
-269
-310
-93
7
-29
-32
-25
-44
-55
-68
-88
-90
-81
-83
-89
-91
-86
-74
-59
-28
23
68
105
153
202
242
283
315
324
314
275
210
161
132
90
51
39
25
12
28
32
0
-11
10
-2
-48
-63
-33
-14
-17
12
56
52
20
-8
-30
-26
-28
-87
-125
-93
-75
-104
-145
-163
-130
-41
124
312
255
-113
-367
-278
-151
-165
-184
-161
-151
-140
-124
-122
-116
-101
-95
-95
-79
-51
-24
3
27
40
69
132
186
206
246
306
315
270
248
283
317
251
114
56
88
72
7
-10
-1
-17
-23
-2
15
17
15
30
56
62
59
80
111
114
82
37
2
-17
-37
-53
-43
-31
-33
-16
13
8
1
50
164
298
315
160
-81
-325
-297
91
-15
-902
-1161
-329
168
-47
-80
86
51
-20
55
142
11
-79
292
-66
-2464
-4547
-3184
-164
948
535
527
742
632
563
583
474
373
341
276
217
208
203
189
171
153
155
166
149
123
120
135
150
162
185
218
227
205
177
142
111
111
117
113
125
124
85
59
46
25
61
171
295
375
258
-67
-258
-134
34
60
46
40
8
-17
-14
-23
-55
-75
-75
-80
-96
-96
-72
-48
-27
7
48
82
118
160
198
237
272
264
219
192
177
102
2
-20
-23
-98
-103
-49
-262
-633
-618
-218
136
316
393
531
889
1282
1645
1907
1499
820
648
-553
-3238
-3815
-1323
251
-277
-478
-103
-191
-308
-183
-211
-292
-275
-311
-377
-396
-423
-451
-435
-399
-352
-269
-143
-6
93
144
181
202
178
136
117
107
78
46
43
63
56
22
25
59
45
-9
-25
-3
4
-8
-16
-20
-15
9
21
-5
-12
45
98
82
66
100
116
67
15
28
59
29
-21
0
61
78
48
22
20
25
20
24
33
21
34
85
67
21
102
233
359
612
742
360
-162
-235
-58
-48
-113
-82
-50
-84
-98
-69
-57
-53
-27
-14
-23
-15
-5
-13
-5
25
54
72
68
63
86
112
127
156
181
174
153
124
83
46
14
-26
-56
-65
-79
-101
-105
-100
-113
-128
-124
-102
-73
-52
-25
59
171
236
326
511
668
793
1030
1170
858
266
-171
-347
-372
-341
-343
-384
-412
-413
-392
-379
-412
-439
-417
-408
-448
-489
-512
-528
-537
-540
-529
-491
-431
-346
-222
-83
19
91
162
207
191
139
100
84
63
22
-8
-3
5
-7
-23
-30
-24
-11
-5
4
20
22
28
58
69
39
18
23
26
31
44
46
51
92
149
147
86
71
113
99
34
40
89
75
41
54
85
144
229
342
601
850
622
40
-230
-115
-50
-101
-106
-74
-50
-56
-88
-73
-29
-55
-98
-60
7
31
16
-15
-25
-3
30
69
118
166
219
264
264
237
222
207
171
120
55
-17
-68
-94
-118
-140
-139
-119
-117
-142
-158
-133
-83
-64
-93
-96
-36
-2
-40
-76
-79
-89
-118
-144
-149
-128
-118
-130
-132
-137
-140
-86
-7
110
338
431
106
-287
-300
-149
-148
-187
-153
-127
-133
-129
-123
-123
-114
-84
-54
-42
-35
-10
30
63
81
99
139
184
202
216
253
279
272
255
230
178
115
58
18
7
7
-7
-20
-28
-35
-18
-4
-42
-80
-51
-15
-31
-24
40
74
58
47
33
8
-3
-1
15
40
9
-59
-40
21
-17
-43
80
261
535
886
739
-69
-400
104
-468
-2911
-4372
-2686
-133
575
199
231
395
308
279
319
287
295
322
261
235
335
405
350
296
339
414
452
460
440
398
355
301
229
161
113
83
78
75
45
13
21
38
18
-12
-7
21
34
22
20
54
87
70
15
-38
-60
-55
-65
-90
-87
-79
-88
-73
-70
-92
-30
92
173
272
287
23
-255
-230
-116
-128
-147
-124
-130
-147
-138
-113
-82
-62
-78
-116
-104
-23
30
3
-12
38
93
118
132
150
180
211
229
237
225
177
120
68
11
-31
-25
-15
-49
-50
0
-45
-99
17
-49
-495
-632
-188
95
-6
2
118
87
39
48
0
-35
14
19
-51
-54
-17
-44
-5
39
-102
38
489
-112
-1738
-2059
-657
249
46
-47
124
77
7
65
73
36
44
63
65
60
52
42
38
61
112
135
113
126
196
223
218
276
336
316
283
270
238
200
152
69
25
36
2
-70
-81
-57
-61
-71
-78
-102
-115
-103
-103
-111
-68
3
17
-19
-35
-47
-79
-85
-47
-6
27
45
47
61
66
35
55
144
260
517
779
570
8
-230
-97
-34
-74
-66
-61
-68
-48
-50
-71
-55
-26
-21
-16
-9
-19
-23
22
77
71
37
58
102
121
179
244
185
102
175
239
103
-58
-75
-36
-28
-49
-98
-129
-103
-81
-116
-147
-119
-96
-114
-103
-60
-55
-67
-19
51
-2
-119
-64
-1
-153
-126
29
-225
-148
426
-719
-3256
-3199
-474
898
424
308
436
134
58
283
310
264
302
291
246
249
244
182
129
148
164
111
73
86
89
104
138
110
85
174
248
187
165
275
308
189
143
234
248
152
130
116
-3
3
80
-59
-58
110
-188
-243
408
-343
-2512
-2468
-160
733
91
94
412
250
160
249
202
163
178
132
120
159
140
118
136
116
110
191
322
548
805
718
200
-207
-140
-24
-190
-156
69
-268
-403
767
1530
402
-628
-246
12
-345
-228
110
-129
-202
280
-188
-1626
-1620
-82
577
177
106
229
113
96
162
86
10
7
-12
-50
-83
-80
-27
-5
-50
-71
-47
-35
-30
-6
3
3
38
74
67
60
68
30
-48
-76
-29
8
-46
-150
-176
-99
-60
-91
-33
107
209
365
496
261
-177
-303
-163
-85
-83
-96
-120
-107
-90
-107
-89
-64
-111
-145
-109
-69
-33
-18
-61
-30
53
17
95
285
140
130
442
-385
-1942
-1588
141
561
63
123
264
126
113
103
18
69
126
97
119
127
58
59
131
140
114
139
199
243
240
187
118
72
65
76
71
44
8
4
50
43
-33
14
183
305
448
563
315
-122
-218
-54
12
0
-23
-90
-109
-60
-55
-85
-70
-27
-49
-95
-48
-46
-117
70
186
-151
74
666
-640
-2802
-2178
207
845
286
336
483
334
316
276
105
60
109
105
63
55
125
175
111
51
80
102
98
128
150
118
113
173
207
159
84
27
3
31
52
0
-57
-48
-7
11
0
33
133
233
412
707
694
177
-248
-197
-62
-127
-173
-73
-57
-203
-178
-31
-162
-112
259
-749
-3278
-4013
-1729
346
399
134
443
549
439
526
594
501
457
500
535
520
427
323
284
228
145
153
184
176
221
176
37
194
277
-104
116
579
-1018
-3239
-2343
174
656
9
155
355
187
234
307
189
179
237
199
214
280
210
126
232
408
582
790
688
142
-217
-87
32
-44
-67
-92
-126
-25
-42
-154
28
15
-309
157
382
-1653
-3441
-1850
463
516
38
401
534
344
446
554
503
520
535
474
417
337
243
207
192
182
206
201
140
108
121
134
118
77
97
149
79
32
177
229
165
233
47
-227
253
71
-2396
-4186
-2366
197
496
74
293
364
289
493
620
665
765
527
64
-17
182
205
118
124
151
148
153
121
56
83
160
122
58
80
65
67
146
83
103
357
167
15
834
483
-2271
-3353
-812
1150
639
237
552
411
193
325
333
209
235
283
234
216
233
173
119
167
177
139
181
206
225
340
237
25
206
168
-210
375
506
-2140
-4069
-1572
991
-974
-4259
-4393
-1883
472
1202
800
403
366
468
549
524
451
461
496
451
381
377
403
387
351
327
332
377
349
243
311
403
275
413
674
290
331
1148
-97
-2989
-2755
224
1211
345
314
601
366
283
341
235
242
347
319
248
235
244
242
204
163
183
228
235
230
233
219
194
178
146
116
134
147
83
20
51
90
53
40
100
169
279
355
146
-229
-338
-182
-95
-126
-134
-108
-115
-167
-205
-169
-113
-139
-223
-248
-191
-151
-164
-160
-118
-76
-38
-7
32
77
90
162
239
101
66
264
-17
-253
439
-146
-3098
-4218
-1615
476
136
-142
234
153
-20
105
121
54
95
125
145
200
201
154
135
130
110
72
49
91
147
135
127
153
98
58
188
312
400
636
664
138
-346
-299
-146
-165
-159
-140
-188
-184
-133
-122
-113
-98
-111
-98
-52
-54
-79
-42
13
-5
-54
-30
69
152
170
181
224
239
198
172
180
155
80
8
-14
-3
3
-2
-6
-6
4
14
12
41
119
195
329
605
879
1097
1473
1820
1549
728
49
-220
-283
-290
-327
-396
-386
-318
-313
-351
-370
-377
-384
-410
-462
-507
-521
-515
-496
-470
-450
-417
-332
-209
-109
-45
18
74
103
125
143
132
117
108
71
33
37
45
46
56
37
-4
-1
30
44
36
25
35
16
-22
51
94
-3
79
132
-166
84
622
-566
-2336
-1569
382
572
6
184
314
146
199
233
116
128
188
147
128
176
186
148
149
168
131
134
239
308
416
723
809
323
-155
-114
34
-41
-103
-81
-108
-119
-88
-101
-120
-87
-60
-66
-54
-20
-6
-23
-38
-28
-1
30
61
92
118
133
137
130
96
47
26
27
-1
-53
-88
-116
-156
-184
-193
-213
-238
-243
-250
-274
-278
-247
-231
-256
-271
-238
-203
-211
-239
-272
-306
-304
-272
-257
-275
-310
-316
-260
-230
-259
-194
-21
129
317
447
164
-310
-382
-168
-131
-209
-200
-177
-176
-147
-138
-177
-199
-171
-142
-155
-161
-102
-21
8
-5
-1
57
133
172
208
289
341
321
282
246
219
199
120
21
6
9
-31
-37
-19
-19
5
20
26
120
238
356
634
953
1124
1438
1948
1940
1142
284
-89
-152
-136
-113
-145
-191
-181
-179
-227
-253
-243
-272
-345
-400
-424
-432
-407
-358
-321
-283
-203
-83
46
167
289
381
400
375
354
317
266
248
240
202
179
200
225
221
199
195
216
219
184
158
166
181
171
132
107
110
84
15
-5
50
60
-20
-69
-48
-57
-124
-179
-183
-159
-169
-186
-138
-127
-175
-170
-288
-404
-195
-336
-779
-140
82
-2570
-4968
-3156
210
571
-2076
-3894
-2170
251
-160
