# session 209
88
296
452
392
268
303
282
200
316
224
-67
297
-260
-4292
-8166
-5704
-93
494
-2734
-3419
-2498
-2995
-2371
307
1505
828
710
991
795
714
855
842
854
928
889
858
901
914
905
916
943
969
956
955
1059
1156
1087
986
1066
1149
983
878
1031
933
730
1049
1012
444
1135
1236
-3031
-7605
-6330
-3276
-4034
-4602
-1460
1190
1052
860
1246
1115
1275
1587
1060
1264
2051
-56
-3244
-2047
1526
2230
1280
1439
1804
1613
1531
1771
1844
1355
1402
2209
320
-4837
-7545
-6449
-6532
-7051
-3591
1031
2625
2330
216
-3507
-3974
-467
2013
2673
2101
-1316
-3437
302
3516
111
-4150
-3362
-438
1119
1949
2511
2345
2103
2220
2144
1948
2071
2187
2199
2542
2764
2186
1482
1406
1523
1464
1384
1312
1359
1279
533
135
1055
1391
568
1274
1782
-2271
-6581
-5204
-3159
-4527
-3053
1530
353
-4489
-2952
1389
-476
-3535
-767
2595
2045
1255
1781
1714
1384
1533
1562
1453
1485
1537
1624
1800
2094
2397
2519
3055
3792
1814
-3823
-8157
-7496
-5812
-6880
-6864
-3013
-700
-3090
-4756
-2448
-414
-1184
-1663
-62
1458
1469
981
1079
1588
1308
115
2
1423
2182
1770
1633
1816
1689
1540
1545
1485
1400
1401
1454
1418
1261
1260
1357
1182
1153
1376
984
849
1761
493
-3439
-3589
908
1825
-2246
-4169
-3369
-4117
-4250
-1091
1490
1177
729
1183
1255
1069
1132
1164
1155
1204
1170
1094
1075
1067
1043
1010
984
955
915
953
1008
944
980
1159
1189
1424
1859
1282
270
709
749
-2577
-6920
-7847
-4676
-635
-395
-3691
-4294
-1880
-2298
-3491
-800
1329
658
1364
1172
-2210
-2504
252
-611
-2001
813
2933
1883
1522
2120
1847
1565
1699
1590
1504
1587
1507
1438
1517
1493
1438
1463
1338
1317
1630
1442
1183
2286
1632
-4165
-8242
-3229
3237
1795
-2428
-3099
-2991
-3082
-1213
413
6
-220
287
330
278
451
466
592
820
625
299
316
364
251
256
400
504
616
830
1051
1129
1110
1175
1234
1167
1209
1244
962
1020
1430
-91
-4413
-7734
-6239
-2179
-859
-2565
-3149
-2109
-2380
-2946
-800
1786
1453
838
2102
1327
-2094
-2616
286
2278
2426
725
-2266
-2182
1383
2956
1916
1757
2172
1920
1865
2001
1865
1845
1822
1718
1882
1907
1956
2569
2424
1661
2146
580
-5267
-6966
-1198
170
-6031
-7249
-1994
-715
-2520
-1301
-1232
-5317
-7121
-3359
1118
2441
2189
2620
2214
-1022
-4224
-3163
818
3154
2970
2544
2642
2553
2284
2189
2162
2070
2017
2015
1884
1761
1855
1738
1442
1755
1739
-739
-5124
-7911
-6301
-1759
645
-1321
-3749
-2666
569
2510
2541
2214
2364
2594
2229
1846
2636
2949
748
-970
547
2195
1730
1245
1522
1496
1280
1213
1205
1191
994
1066
1391
441
-1027
-287
1171
730
642
1344
-1063
-5201
-6791
-7240
-7046
-3617
-455
-1602
-3044
-2087
-2045
-3685
-3940
-1107
2582
2205
-1816
-2292
1467
2755
1943
2803
1508
-2865
-2896
1793
3855
2932
3142
3676
2917
2161
1945
1682
1460
1419
1444
1360
1142
1205
1227
687
859
1427
-1018
-5534
-7229
-6856
-7213
-5670
-2021
-1392
-3324
-2969
-1359
-1333
-749
1731
3222
2471
1981
2977
2553
-665
-1720
1745
2756
-1962
-4546
-955
2521
2346
1720
2037
1989
1703
1734
1750
1664
1625
1563
1488
1438
1426
1443
1313
1177
1292
1139
845
1442
1030
-3342
-8122
-7468
-3563
-1381
-445
-569
-2964
-3833
-824
1345
665
417
998
900
881
1282
1406
1568
1773
1316
666
660
897
824
676
673
704
712
686
605
574
662
647
452
452
562
383
471
802
261
202
1600
36
-5163
-5852
-1243
-1250
-6067
-6161
-2611
-3345
-5951
-3889
509
2080
1526
1396
1562
1404
1278
1309
1296
1286
1351
1440
1572
1789
1995
2089
2246
2582
2681
2214
1555
1110
899
830
740
681
798
741
615
896
733
213
1034
1045
-2716
-5698
-3064
1050
1443
-635
-2016
-2224
-2205
-1375
868
2279
1938
2166
1686
-2670
-6353
-3227
1428
-606
-5080
-3641
1201
2863
2069
2040
2339
2133
2045
2103
2009
2013
2104
2028
1882
1819
1846
1849
1670
1669
2009
1025
-2561
-5463
-3694
-966
-3651
-7526
-4038
2150
626
-4647
-3548
476
-800
-4779
-6507
-5987
-2174
2935
2140
-3074
-3361
1424
4224
4009
3747
3821
3739
3621
3407
3411
3467
2955
3008
3739
1804
-3129
-6373
-6041
-3745
282
4280
3844
-502
-2746
-964
346
-1360
-2140
1490
5070
3035
-1067
-1805
-1566
-3835
-6643
-6162
-1989
814
-786
-2534
-2753
-3156
-817
2827
1385
-657
2557
3463
-1904
-4460
-22
4563
4813
4377
5438
3361
-1861
-1692
4168
5142
-755
-5058
-5383
-5434
-5226
-4685
-5640
-4959
-843
231
-2086
571
5400
3099
-1529
195
4488
4954
2033
-532
548
3996
5276
4204
3775
4441
4464
1639
-3362
-4998
-764
3895
4555
3500
3492
3713
3103
2814
3461
2227
-2740
-7089
-6909
-5943
-7026
-5962
-1596
2194
4639
4042
-1461
-4355
-975
-293
-1954
2204
5390
478
-4049
-3785
-2959
-1049
1462
1497
1999
3378
448
-3467
-1022
3893
2865
-3409
-7004
-3670
1615
2747
1759
2132
1943
1398
2786
1425
-4885
-6567
-648
1829
-2463
-5669
-5230
-2839
1049
3484
3182
2767
219
-6542
-8987
-2315
1429
-3488
-4061
2169
1655
-3987
-2453
2895
3722
2388
2574
3781
3109
-2157
-6534
-2848
3162
3561
2015
2705
3145
2566
2559
2629
2375
2417
2439
2220
2203
2172
2083
2391
2446
2131
2800
2965
-136
-3258
-1412
2626
2491
-2329
-7176
-8642
-6861
-3035
1199
2107
-2155
-6253
-4184
1026
2896
2341
2924
1750
-3909
-8004
-4302
2449
3663
533
189
2704
3383
2460
2385
2521
2263
2267
2107
1921
2511
1480
-3292
-6647
-3011
2448
1866
-1480
-320
3226
2899
-1415
-6258
-8896
-7138
-2829
-964
-1680
-2494
-3686
-3355
577
3765
3344
2789
3482
3610
3220
2890
2448
2263
2470
2501
2231
2192
2354
2004
1822
2668
1821
-2658
-5660
-2179
3224
2486
-3717
-7436
-6790
-6976
-6824
-2138
582
-3802
-6006
-517
4521
4345
2295
-511
-4193
-5018
-1424
620
-2143
-2808
1823
4703
3540
3189
4029
3917
3837
4276
4370
4291
4062
3308
2549
2214
1924
1663
1665
1554
1330
1462
1340
855
1376
1627
-1431
-6182
-8368
-7385
-6186
-7326
-8197
-4575
-617
-1636
-3152
-1920
-936
-305
-922
-4251
-4166
1600
4854
3125
2315
3803
3352
-976
-4533
-2088
2808
3887
2837
3067
3111
2719
3271
2603
-313
-1188
2058
4282
1250
-2187
-235
1989
-2101
-7027
-6814
-6168
-7159
-3818
3050
5515
3101
748
-1646
-4548
-3909
535
3595
3546
2803
2862
3580
3168
565
-1435
-731
772
1691
2385
2616
2426
2383
2365
2189
2113
2159
2037
1908
2165
2214
1850
2450
2751
-1057
-6770
-7228
-1765
3220
3079
-1662
-6594
-7530
-5071
-2166
-346
-222
132
2056
510
-4610
-3471
2353
932
-3987
-1554
4370
6069
3737
580
448
3481
4711
3476
3082
3300
3377
3051
-281
-4888
-3818
2208
3989
-1195
-6359
-6871
-5697
-6059
-6264
-5155
-5628
-6437
-2156
3408
2820
305
69
-1893
-2628
1253
652
-4969
-3098
3977
5164
4187
5119
1208
-5240
-4022
2409
5496
4789
2438
-1060
-3921
-4101
-919
3232
4665
4486
4520
1743
-3677
-6490
-5523
-4062
-4772
-6304
-3685
1864
2586
-1405
-3946
-3322
606
4815
3024
-953
1035
5013
5350
4582
2992
-1035
-4203
-3827
-777
3217
5416
4781
4062
4741
4771
3978
4917
5370
112
-6396
-4215
3496
4059
-3609
-7705
-2652
2828
807
-2948
-1132
1042
-2529
-5139
26
5033
1042
-4776
-3466
-739
-3348
-6734
-5371
116
5353
4657
-1120
-2792
2679
6517
2842
-2969
-5057
-4964
-4609
-3096
-2020
-2408
-982
2827
4960
3315
-326
-2959
-3686
-3681
-1991
2427
5953
5718
4750
5425
4814
1600
119
2325
4101
3479
3013
3369
3191
2833
2962
2972
2608
2470
2689
1883
-2078
-7548
-7693
-1484
1076
-3718
-6158
-3126
-2390
-4708
-3848
1301
6136
4897
-1582
-3576
1945
5861
4281
2722
3590
4038
1334
-3516
-5281
-1744
2727
4338
2455
-2294
-6336
-6755
-5810
-5590
-5491
-5967
-6023
-2339
3451
5613
3363
-209
-3911
-4979
-229
4281
1212
-3633
-3732
-3188
-2289
3304
7536
3418
-2790
-4151
-3502
-3682
-3423
-3398
-3959
-1695
3480
6065
4664
4211
5613
3898
-1513
-5822
-6858
-4906
-1256
-48
-2136
-2482
9
1116
419
1049
3355
5458
5909
3279
-2160
-6479
-6444
-4758
-5881
-6740
-1364
4414
1165
-4104
-597
5573
5855
4302
4879
4870
4014
4298
4265
3353
4167
4680
267
-4688
-2643
3151
4744
1465
-2746
-5481
-5850
-3210
1494
4304
3101
2418
4449
2237
-4864
-4899
2939
3681
-4271
-6471
-307
3964
3628
3213
3495
3178
3035
3263
2898
2642
3088
2608
2059
3523
1883
-5941
-9140
-2611
1257
-1523
-1830
-930
-3220
-2244
2989
4491
2339
2415
4062
2376
-2817
-6633
-7153
-5949
-2413
1884
1187
-4258
-7009
-3366
2031
3661
3628
4756
2137
-3893
-4429
-2041
-4922
-6225
98
5161
5188
5183
4484
2970
3190
866
-4240
-4316
-1755
-2833
-2020
2610
4002
3353
3360
-1396
-7611
-4810
2556
2694
-3356
-6687
-3378
1727
872
-3826
-4660
-3975
-4938
-1726
3437
894
-5431
-6484
-4773
-4869
-5962
-5436
-181
6226
5410
929
1235
1759
-1242
-134
4989
5215
2650
4164
4995
865
-728
2090
944
-2329
437
4810
4412
3235
3904
3936
3458
3445
3453
3515
3180
2890
3869
3141
-1965
-6907
-7618
-6382
-6023
-7033
-6816
-1665
4200
3118
-2083
-4963
-5201
-2148
2782
2902
-367
691
4284
4886
2837
-1127
-5301
-4543
1068
4995
4683
3848
4562
4402
3343
4513
4526
-1125
-4325
956
3331
-3501
-8463
-6869
-6254
-7358
-3951
3137
5917
1795
-1612
-250
-980
-4819
-2839
3683
4835
2843
4652
4011
-3738
-7131
-1393
415
-4712
-4070
2916
5644
4381
4583
4734
3766
3608
3447
3192
4089
2806
-2780
-7322
-7322
-6111
-5880
-5465
-5205
-6519
-7137
-2576
4480
5101
-764
-4436
-4442
-4238
-1459
4065
5933
4229
4930
5427
-43
-5442
-1877
5467
5030
-2415
-5218
678
5530
1715
-4673
-4446
1858
6432
4458
-781
-4704
-7020
-5516
957
4437
1878
1530
3834
2869
1962
4348
5375
2454
-2032
-3590
423
5202
5576
4348
4432
4329
4018
4225
3993
3808
4109
3506
3365
4599
1962
-4419
-4091
3218
4171
-3225
-7807
-6964
-6291
-6590
-6300
-5995
-5635
-4746
-4062
-4966
-6821
-4542
3029
6032
-31
-4130
-23
5116
6258
3302
-2471
-5499
-4766
-5913
-5651
1086
4749
-648
-4865
-3468
-2916
-3624
-3126
-3329
-3383
-2469
-3689
-3532
2266
4526
-1846
-5129
-1380
-990
-4764
-4934
-3293
-4559
-3621
3628
8566
4813
891
2121
1753
42
3503
7575
6279
4930
6854
6147
1018
-1332
3137
7748
4452
-2857
-3329
2829
6046
5060
4685
4542
4399
5196
2370
-4500
-7549
-6596
-7202
-6137
-643
4136
6013
4186
-2001
-4383
-918
-3076
-7728
-2361
3544
-164
-1811
2222
1756
-116
3447
5609
3047
3454
5766
545
-6894
-4014
2179
251
-1478
3469
5885
3562
3050
3841
3630
3366
2957
3491
3986
-647
-6095
-2368
4550
2096
-5755
-8999
-8074
-7110
-7642
-8488
-5611
62
2282
769
-1637
-4809
-4693
1236
5336
3981
3496
2939
-3379
-7885
-3045
660
-3599
-4603
1876
5671
4226
3602
4574
4374
3342
3931
5157
2198
-3440
-3498
2405
5951
2863
-3479
-7054
-7014
-7706
-7050
-896
2125
-4501
-8915
-4000
-216
-1074
421
1261
-3433
-5581
3
5188
4524
3226
4859
4721
1326
837
2541
20
-2175
1764
5142
4123
3542
3822
3881
4584
1417
-5625
-5340
2615
3658
-3827
-7382
-5688
-5888
-6793
-5833
-6171
-6694
-3714
-1277
-2237
-1395
680
-1894
-4259
401
5711
5787
5141
5474
4795
5421
5875
2273
747
4091
2363
-3671
-1866
4829
6048
4292
4597
5295
5068
4456
4343
4513
1543
-4671
-8214
-7264
-5969
-6309
-6937
-6278
-3028
2978
7339
3736
-3571
-3835
-223
-1061
-1670
-111
-2128
-2730
2849
6100
4317
3937
4749
4453
4098
462
-6869
-7723
-166
2419
-2275
-1975
3481
5621
5082
2013
-4430
-4667
3147
4222
-3842
-7708
-6104
-6088
-5933
-5047
-6338
-4823
270
-11
-2777
628
3273
-259
-2571
-2675
-2946
950
6244
6125
4620
5259
4847
5016
5721
448
-5739
-1587
4940
708
-5918
-2735
4177
5859
4651
4631
5085
4638
4136
4953
4756
-111
-6322
-7702
-6280
-6777
-6290
-2078
-717
-5975
-7975
-1225
2223
-2798
-3585
1807
2251
158
2901
5505
4744
4171
4215
5065
5096
-786
-6902
-2961
4610
6049
5631
4945
-1098
-6635
-5140
-4438
-6765
-2739
2998
-483
-3694
1899
3522
-2968
-4128
992
1800
-1014
-218
3633
4541
166
-5504
-7923
-6630
-3249
-508
-1523
-4961
-5189
127
5679
3904
-3921
-7258
-1865
4458
5553
3928
3884
5346
3947
-830
-1944
2489
5016
3601
3301
4083
3234
2982
4157
2081
-3996
-8111
-7923
-7267
-7686
-7161
-6616
-8048
-6926
718
6225
1723
-3882
-2947
-2712
-5455
-3301
2857
5091
3321
3017
4813
3620
-524
48
3813
995
-3995
-790
4773
4467
2924
3840
4009
3230
3655
3925
2574
1638
2477
3295
3152
2798
2294
2420
3093
171
-6946
-10165
-4888
2015
3265
3
-3845
-6697
-6792
-2510
2689
3395
1968
3757
3576
-3628
-6530
1167
4117
-3225
-4802
2335
4989
2621
2606
3453
2788
2674
3017
2691
2518
2579
2390
2417
2345
1872
2297
2522
-1411
-7829
-9593
-7234
-8036
-9375
-3944
1120
-2290
-4661
-710
-1073
-5610
-2897
3943
5271
3732
4123
4563
4106
4048
4155
4019
3993
4208
4234
3711
3747
4488
2415
-3373
-7232
-5404
-37
5103
4433
-3738
-8074
-940
4419
-1586
-7395
-7097
-7570
-5492
2353
4120
-1867
-2585
191
-3081
-5280
1132
6533
2758
-3918
-6615
-6273
-5219
-5160
-6689
-5451
-87
1720
-2041
-4105
-3599
-3071
718
6210
6913
5417
6396
5094
-1155
-5775
-5602
-4910
-5407
-5070
-4584
-5302
-4019
2204
8250
6762
338
-3142
-3426
-3234
-912
1243
-1408
-3151
2129
7265
6619
5848
6682
5477
5310
6852
2448
-4487
-2140
3531
-179
-5991
-2301
5159
7697
7269
7313
7048
5903
4857
4856
4911
1415
-5498
-8076
-3172
47
-3124
-3008
4384
6747
-1472
-6980
-1898
3247
1333
-2104
-4233
-5076
-1092
4503
2506
-5422
-7806
-536
6589
3296
-4332
-3940
443
-1804
-6108
-3374
2941
5735
5402
4981
4958
4941
4766
4532
4637
4446
3739
4231
4371
-115
-6255
-7731
-6754
-7021
-6397
-6084
-7492
-4123
2435
477
-5211
-1234
4494
671
-2739
1984
5668
4085
3280
4631
4360
733
-5188
-8915
-5474
905
184
-5486
-4427
2647
5435
4008
4466
4206
-1384
-6981
-4692
2217
4714
3694
4731
3709
-2910
-7761
-7949
-7999
-5597
778
3749
1324
-1897
-4578
-4661
-619
3552
4948
2012
-4982
-6936
-503
2052
-3249
-6791
-6418
-4538
316
4740
4512
3297
3810
3903
3445
3562
3602
3230
2976
2996
2935
2650
2728
2832
2099
2268
3221
-673
-8449
-9457
-3308
-1331
-3721
-2486
-1266
-5314
-7169
-2020
3068
3472
2125
2301
3808
1693
-5634
-8643
-3048
-319
-5289
-6934
-804
4602
4729
3703
4773
4895
-79
-6160
-4964
2108
5934
4919
4356
4967
4445
4262
5333
3655
-2480
-7621
-7014
-3974
-3985
-5310
-3656
-1886
-3194
-2807
2110
6564
6847
5132
5863
8052
4149
-3101
-1307
4313
744
