# session 78
0
-24
-38
-11
25
21
-3
-31
-67
-86
-80
-80
-81
-82
-84
-72
-76
-94
-34
88
202
368
443
140
-283
-324
-121
-55
-81
-55
-34
-42
-30
-17
-20
-19
-10
0
14
35
59
82
111
145
185
246
325
386
423
445
429
364
277
178
70
-23
-82
-123
-166
-189
-180
-181
-199
-190
-172
-194
-213
-188
-165
-168
-165
-138
-102
-83
-98
-129
-154
-169
-178
-183
-179
-176
-180
-153
-119
-158
-157
8
151
222
420
475
35
-419
-375
-174
-170
-198
-155
-140
-147
-126
-96
-73
-46
-29
-29
-22
2
31
66
107
136
178
269
353
380
403
438
416
327
211
83
-32
-111
-176
-218
-209
-190
-213
-234
-199
-157
-173
-201
-172
-122
-125
-164
-156
-77
-6
-1
-42
-89
-118
-90
-26
-9
-36
-33
13
50
16
-25
95
272
330
551
933
762
32
-328
-162
-73
-124
-84
-42
-58
-42
1
31
47
47
48
61
69
81
102
112
132
187
246
290
355
412
351
202
129
133
78
-21
-75
-114
-157
-162
-152
-164
-166
-136
-104
-97
-80
-5
97
202
401
696
949
1217
1582
1696
1225
464
-97
-356
-448
-481
-512
-539
-547
-560
-579
-586
-598
-631
-662
-691
-740
-785
-791
-769
-732
-655
-523
-370
-227
-98
9
76
93
78
53
28
5
-15
-39
-64
-73
-73
-81
-85
-71
-57
-56
-59
-61
-63
-60
-51
-50
-58
-63
-59
-47
-46
-67
-73
-36
-7
-18
-31
-28
-21
2
47
84
105
133
162
159
130
110
112
120
127
120
101
110
128
99
108
239
396
558
703
548
68
-216
-107
16
-6
-8
22
7
-19
-18
-3
14
19
17
32
61
79
92
114
139
169
221
283
328
359
384
392
378
347
288
212
143
77
4
-49
-64
-66
-83
-102
-104
-96
-97
-97
-89
-91
-100
-99
-95
-87
-58
-40
-83
-151
-175
-164
-168
-176
-149
-115
-123
-154
-177
-171
-89
30
169
423
584
256
-288
-437
-285
-245
-278
-243
-221
-226
-198
-168
-155
-135
-119
-113
-99
-74
-49
-33
-17
21
78
131
183
234
265
273
260
214
138
51
-41
-115
-147
-169
-203
-217
-213
-220
-223
-205
-204
-220
-212
-181
-162
-159
-139
-75
-14
-32
-99
-115
-88
-88
-87
-41
-18
-39
-23
6
-12
34
162
258
413
583
371
-122
-297
-127
-41
-64
-36
-12
-33
-35
-18
-9
1
7
0
0
13
27
46
79
120
172
242
314
368
405
422
416
388
335
257
176
109
61
24
-4
-14
-13
-20
-22
-2
10
26
106
209
285
468
770
985
1165
1415
1355
743
60
-272
-369
-399
-401
-424
-453
-454
-469
-502
-505
-498
-519
-544
-560
-598
-654
-686
-687
-663
-598
-481
-335
-194
-82
-3
39
33
-4
-43
-73
-94
-99
-84
-65
-52
-53
-59
-47
-21
-9
-12
-18
-38
-62
-57
-32
-19
-17
-17
-30
-50
-48
-32
-41
-76
-84
-53
-52
-101
-99
-7
61
49
31
27
-1
-25
-10
2
-25
-35
22
45
-15
33
236
391
535
690
465
-101
-337
-147
-36
-77
-67
-53
-68
-51
-40
-51
-36
-17
-19
-4
33
53
68
108
160
211
267
326
379
420
430
413
386
336
256
161
73
25
11
-35
-108
-125
-91
-78
-87
-78
-53
-5
88
205
348
605
946
1188
1384
1694
1786
1225
321
-257
-413
-454
-488
-485
-484
-510
-538
-554
-552
-543
-563
-618
-662
-685
-712
-742
-741
-713
-655
-534
-380
-253
-135
-13
67
96
88
42
-6
-31
-55
-78
-82
-88
-101
-89
-65
-58
-64
-68
-58
-39
-31
-36
-37
-30
-25
-25
-29
-34
-41
-52
-68
-68
-44
-35
-62
-58
15
71
64
44
21
-16
-25
-1
10
-9
-35
-27
-2
-5
19
125
267
439
541
301
-169
-358
-208
-92
-93
-75
-56
-64
-40
4
11
-4
2
29
54
61
58
70
109
157
204
256
308
354
396
426
419
375
320
270
202
111
33
-16
-56
-93
-114
-121
-122
-122
-122
-112
-82
-42
-17
-12
1
43
81
62
3
-26
-21
-39
-70
-59
-40
-53
-37
-10
-46
-26
116
229
393
670
586
6
-369
-253
-131
-177
-180
-142
-139
-143
-152
-166
-155
-139
-145
-149
-133
-107
-80
-46
7
70
132
205
283
331
344
335
296
211
88
-32
-110
-158
-198
-221
-236
-256
-250
-215
-213
-242
-236
-198
-187
-193
-164
-107
-68
-50
-53
-85
-113
-112
-101
-77
-63
-95
-87
-19
-35
-63
91
269
372
576
600
105
-369
-309
-107
-113
-142
-116
-111
-108
-111
-112
-81
-72
-99
-82
-43
-39
-16
33
55
96
194
291
372
449
473
445
398
310
197
102
16
-63
-110
-144
-162
-138
-123
-154
-163
-126
-95
-79
-60
-53
-45
2
62
84
71
36
-24
-79
-100
-98
-90
-101
-113
-77
-58
-74
27
198
288
453
607
292
-255
-349
-119
-65
-123
-96
-70
-89
-92
-80
-73
-63
-42
-19
-11
-4
27
62
83
106
150
223
305
353
377
398
373
280
169
73
0
-51
-109
-173
-185
-151
-146
-176
-198
-209
-210
-197
-184
-176
-172
-176
-160
-104
-50
-52
-97
-129
-127
-120
-116
-101
-97
-97
-69
-67
-80
17
145
225
453
659
341
-229
-364
-196
-183
-238
-199
-173
-190
-190
-181
-172
-168
-171
-158
-132
-119
-101
-63
-30
4
67
138
197
263
311
307
281
262
208
107
20
-23
-53
-80
-87
-78
-78
-81
-67
-50
-46
-44
-36
13
126
220
298
527
821
954
1107
1376
1292
699
126
-140
-272
-347
-356
-374
-403
-410
-421
-443
-446
-446
-463
-482
-491
-514
-553
-570
-561
-548
-510
-420
-297
-165
-25
105
195
231
228
203
162
124
111
93
52
34
57
67
57
59
71
85
86
62
51
72
75
58
61
60
34
23
40
77
152
282
469
676
848
990
1079
1002
830
769
722
446
50
-203
-304
-347
-355
-353
-364
-376
-389
-403
-414
-433
-462
-482
-498
-531
-565
-580
-583
-582
-560
-516
-456
-371
-272
-187
-116
-50
-7
9
21
27
26
32
37
33
36
38
26
25
34
25
17
30
28
10
11
21
20
23
29
27
32
37
30
31
44
48
55
70
65
56
80
106
91
75
113
172
179
136
106
110
108
98
108
112
96
100
100
65
91
203
320
435
427
103
-286
-331
-165
-108
-125
-104
-85
-74
-55
-48
-41
-20
-3
15
39
53
59
76
103
136
179
231
282
330
373
407
426
415
370
297
205
115
50
6
-46
-99
-126
-134
-152
-168
-165
-163
-179
-200
-208
-189
-164
-163
-154
-100
-53
-65
-108
-142
-164
-186
-205
-192
-165
-176
-175
-137
-164
-186
-48
126
261
425
334
-168
-520
-388
-204
-223
-230
-171
-170
-199
-180
-146
-143
-142
-102
-60
-60
-62
-25
17
49
105
195
286
353
398
437
460
424
326
207
92
-14
-104
-159
-177
-192
-220
-229
-207
-186
-183
-195
-201
-178
-144
-138
-156
-153
-101
-28
8
-10
-48
-61
-42
-32
-42
-34
-27
-30
-8
-5
-22
84
269
393
574
689
333
-215
-314
-122
-90
-132
-101
-99
-125
-112
-102
-109
-91
-54
-32
-23
2
36
57
90
149
205
267
362
448
485
502
493
423
324
239
147
40
-39
-64
-65
-82
-120
-129
-72
-32
-69
-49
96
229
362
619
884
1103
1477
1828
1624
875
131
-291
-451
-485
-508
-553
-578
-584
-599
-614
-638
-686
-734
-761
-787
-830
-872
-890
-872
-804
-683
-529
-358
-182
-32
56
92
104
98
68
36
18
-1
-24
-28
-23
-26
-31
-31
-27
-17
-9
-16
-18
-7
-1
-12
-30
-34
-21
-12
-22
-32
-25
-14
-14
-15
-12
-15
-23
-31
-27
-12
-15
-16
40
111
118
93
87
77
54
65
109
113
78
91
120
88
113
256
399
580
742
504
-41
-263
-104
-15
-49
-44
-42
-65
-58
-43
-50
-59
-58
-55
-55
-47
-20
11
33
73
142
218
283
337
380
408
420
405
361
306
245
169
90
40
16
-8
-36
-49
-47
-48
-53
-49
-46
-55
-62
-62
-51
-30
-13
15
88
183
278
405
528
554
490
378
228
214
466
600
244
-234
-372
-330
-364
-403
-399
-403
-402
-399
-414
-421
-411
-419
-438
-439
-432
-432
-429
-417
-398
-373
-339
-298
-251
-199
-144
-96
-67
-58
-57
-56
-61
-73
-79
-74
-74
-79
-69
-51
-47
-53
-50
-45
-44
-41
-40
-40
-31
-29
-52
-70
-55
-37
-40
-37
1
43
46
26
19
23
14
3
30
64
64
83
127
110
109
234
376
534
752
660
109
-279
-163
15
6
0
22
2
5
31
25
16
31
37
28
13
5
21
51
78
111
162
237
332
420
471
488
476
432
364
282
185
93
30
-15
-63
-92
-90
-87
-105
-118
-114
-117
-124
-95
-46
-48
-83
-68
-5
31
13
-44
-105
-121
-99
-86
-88
-105
-122
-97
-81
-112
-44
138
267
436
640
418
-188
-465
-305
-210
-254
-248
-236
-256
-245
-224
-222
-217
-203
-182
-159
-144
-125
-92
-55
-10
56
143
235
311
360
384
381
335
245
134
31
-49
-103
-139
-167
-187
-196
-198
-207
-212
-194
-174
-185
-194
-169
-158
-192
-197
-120
-39
-31
-72
-105
-117
-122
-126
-110
-88
-97
-98
-60
-68
-77
54
203
295
513
612
192
-302
-293
-92
-108
-169
-128
-96
-95
-78
-57
-44
-29
-11
6
16
18
24
47
88
134
174
220
282
344
391
418
411
356
271
185
103
29
-23
-49
-57
-51
-47
-57
-68
-67
-60
-62
-70
-64
-46
-51
-60
-20
43
60
42
15
-20
-38
-37
-52
-69
-67
-58
-38
-53
-108
-58
84
162
348
693
616
-14
-410
-273
-127
-171
-192
-176
-189
-194
-174
-151
-141
-154
-158
-137
-118
-105
-82
-41
13
75
132
185
248
316
350
335
306
271
189
80
1
-50
-91
-120
-129
-118
-105
-87
-16
78
161
347
638
853
1058
1317
1239
649
40
-238
-349
-433
-471
-482
-487
-491
-503
-517
-535
-558
-576
-599
-631
-653
-665
-659
-609
-530
-439
-312
-164
-47
43
119
158
157
144
118
77
52
48
51
61
77
86
84
76
73
77
73
57
51
47
31
12
2
-7
-14
-13
-4
12
31
45
52
60
74
84
82
84
95
92
78
74
84
88
77
80
124
183
199
160
117
105
97
77
78
87
75
60
26
-14
76
250
373
610
867
580
-106
-372
-177
-87
-143
-130
-109
-133
-141
-141
-146
-134
-118
-115
-119
-117
-101
-80
-57
-16
35
84
148
231
282
280
264
259
235
174
101
21
-74
-144
-152
-148
-174
-195
-200
-211
-212
-186
-162
-156
-155
-151
-152
-159
-148
-91
-26
-17
-67
-122
-140
-129
-132
-143
-134
-139
-144
-106
-121
-184
-71
153
250
351
454
157
-358
-451
-225
-162
-197
-157
-151
-191
-169
-123
-115
-115
-104
-100
-90
-49
3
29
48
98
182
281
378
453
502
520
493
414
295
174
83
10
-66
-122
-146
-167
-185
-184
-179
-176
-158
-142
-145
-135
-101
-89
-101
-65
23
74
62
40
46
66
92
149
243
334
434
576
694
817
1191
1790
2059
1576
656
-53
-308
-337
-366
-400
-401
-398
-407
-411
-416
-440
-467
-482
-507
-551
-578
-583
-610
-654
-665
-638
-596
-517
-393
-262
-148
-52
13
48
61
29
-31
-56
-52
-75
-105
-99
-84
-82
-73
-58
-52
-46
-38
-29
-18
-14
-22
-12
32
78
86
55
11
-6
3
2
-2
6
3
2
17
-12
-31
75
202
319
569
648
191
-317
-308
-105
-103
-142
-101
-83
-93
-84
-66
-48
-35
-18
16
41
49
81
117
134
179
252
294
336
424
490
488
466
431
346
247
171
95
20
-27
-52
-78
-97
-105
-110
-112
-115
-133
-151
-138
-114
-109
-99
-63
-19
18
31
11
-16
-17
-14
-27
-31
-16
-12
-8
5
-13
-23
57
151
257
511
643
276
-217
-293
-144
-122
-149
-132
-129
-132
-118
-118
-114
-84
-66
-81
-94
-80
-57
-43
-24
23
78
128
187
240
257
257
249
201
117
37
-36
-106
-154
-177
-187
-189
-191
-196
-195
-188
-191
-200
-204
-191
-161
-137
-135
-127
-90
-59
-69
-100
-120
-127
-128
-134
-135
-125
-127
-125
-100
-115
-141
-46
85
174
404
582
223
-348
-441
-234
-192
-215
-174
-184
-210
-164
-125
-139
-138
-99
-63
-49
-32
3
42
78
127
187
252
330
413
464
485
485
436
330
214
120
51
15
0
-18
-38
-43
-31
-20
-22
-18
-13
-40
-72
-56
-34
-62
-90
-64
-17
12
13
-21
-53
-52
-52
-58
-17
27
0
-5
53
46
49
206
347
494
854
945
327
-262
-197
4
-50
-83
-30
-41
-49
-10
-17
-53
-46
-39
-64
-56
-17
-25
-55
-26
43
106
174
245
291
323
349
329
239
129
29
-70
-148
-183
-211
-251
-270
-269
-267
-256
-243
-249
-252
-240
-233
-230
-225
-230
-214
-145
-80
-73
-99
-122
-138
-142
-133
-116
-96
-99
-98
-54
-54
-101
2
188
279
507
808
548
-125
-362
-184
-152
-215
-167
-138
-176
-176
-144
-126
-126
-132
-113
-82
-84
-84
-33
22
52
108
178
223
284
367
391
356
319
247
123
22
-30
-88
-146
-155
-146
-168
-183
-158
-135
-140
-144
-137
-125
-95
-67
-81
-106
-72
-5
16
-4
-26
-57
-91
-105
-108
-97
-75
-63
-31
2
-31
-9
154
266
418
829
967
383
-205
-188
-26
-65
-74
-18
-26
-39
-13
-6
-17
-15
-2
16
32
43
54
