# session 73
-21
51
90
119
130
93
31
-27
-93
-168
-232
-275
-292
-292
-291
-291
-283
-260
-234
-216
-202
-189
-170
-154
-151
-136
-82
-37
-54
-98
-109
-105
-127
-136
-109
-99
-105
-92
-92
-74
24
123
269
571
660
207
-281
-283
-116
-130
-171
-126
-100
-109
-101
-82
-72
-60
-41
-28
-19
7
42
77
130
203
260
291
323
356
361
329
265
178
83
6
-34
-58
-89
-118
-126
-116
-107
-121
-143
-134
-103
-53
36
115
197
411
660
741
809
994
934
439
-86
-317
-367
-385
-391
-380
-360
-359
-372
-356
-341
-382
-431
-445
-467
-511
-546
-565
-563
-511
-414
-286
-123
48
173
248
291
292
255
216
185
153
120
104
109
108
79
54
62
66
39
19
23
17
7
15
9
-23
-40
-24
-13
-29
-51
-56
-51
-55
-65
-44
31
100
82
17
-1
3
-18
-8
33
20
6
36
13
10
153
312
506
829
811
171
-358
-278
-86
-118
-151
-119
-130
-140
-106
-86
-94
-93
-76
-54
-24
8
33
75
138
206
281
349
384
408
422
381
293
196
91
-8
-73
-113
-158
-203
-219
-202
-175
-175
-194
-177
-115
-61
-25
51
202
429
698
897
982
1128
1357
1296
755
121
-234
-377
-454
-466
-452
-476
-501
-498
-517
-555
-568
-595
-666
-723
-750
-795
-840
-845
-817
-745
-619
-472
-317
-153
-22
40
51
46
34
11
-8
-4
14
23
30
39
42
46
51
56
75
101
95
76
88
106
98
107
136
117
63
61
97
89
53
70
129
159
145
116
93
77
55
40
43
45
61
89
59
39
159
300
437
748
888
397
-208
-254
-58
-58
-100
-78
-93
-101
-72
-73
-93
-92
-79
-42
-1
0
-6
32
97
153
200
260
323
345
322
300
272
207
134
82
14
-71
-108
-91
-95
-137
-149
-109
-84
-107
-128
-103
-64
-59
-62
-39
-10
-12
-47
-89
-109
-112
-112
-104
-96
-97
-83
-77
-99
-62
37
117
258
384
159
-278
-393
-218
-151
-179
-150
-135
-154
-141
-130
-144
-133
-107
-95
-77
-48
-30
-12
30
90
147
198
249
285
279
249
212
140
36
-47
-95
-131
-161
-186
-199
-177
-138
-126
-127
-103
-55
29
133
196
294
540
779
881
1041
1232
1071
567
126
-125
-284
-347
-338
-344
-357
-353
-364
-391
-410
-436
-477
-519
-555
-588
-609
-613
-596
-538
-433
-304
-166
-22
97
160
178
166
119
67
47
36
10
-3
7
10
7
16
27
21
17
35
52
43
28
29
33
25
22
28
20
2
5
17
6
-14
-4
45
109
146
123
72
38
17
10
28
37
40
59
24
-18
105
297
431
671
824
411
-224
-353
-135
-88
-156
-149
-127
-134
-142
-148
-132
-96
-83
-94
-83
-42
-6
31
91
161
235
326
401
422
419
402
338
231
122
28
-40
-80
-120
-166
-182
-164
-143
-147
-173
-175
-111
-43
-20
39
203
436
686
874
991
1204
1469
1364
748
49
-349
-466
-472
-486
-532
-553
-538
-540
-562
-563
-560
-606
-685
-734
-743
-759
-795
-817
-781
-679
-540
-379
-196
-30
74
114
107
85
76
60
30
25
42
36
25
42
61
59
64
76
62
41
47
50
34
35
42
27
15
18
17
25
35
22
33
110
185
185
141
118
122
122
119
112
94
108
132
82
77
220
357
560
957
987
319
-248
-189
-37
-104
-128
-76
-95
-132
-112
-88
-93
-84
-57
-58
-72
-40
16
51
81
143
229
296
318
315
302
265
201
121
35
-44
-101
-135
-153
-171
-195
-205
-194
-181
-180
-178
-155
-124
-117
-118
-81
-31
-24
-57
-86
-100
-113
-124
-123
-125
-123
-91
-89
-136
-89
48
144
335
583
382
-214
-464
-282
-210
-284
-255
-205
-227
-228
-199
-198
-193
-160
-147
-145
-110
-66
-42
11
105
178
223
286
356
386
366
313
247
174
80
-18
-68
-70
-68
-72
-79
-85
-77
-66
-59
-27
32
78
122
193
316
522
722
805
918
1168
1220
823
276
-73
-236
-319
-342
-335
-335
-347
-357
-363
-378
-412
-442
-454
-482
-526
-541
-531
-527
-508
-442
-338
-216
-87
28
117
168
165
127
111
118
83
20
14
50
50
23
26
50
64
68
58
34
24
35
30
11
6
10
-1
-26
-47
-36
3
17
-4
4
50
68
42
15
-4
-31
-56
-62
-69
-81
-68
-62
-99
-79
34
137
271
417
253
-191
-385
-233
-126
-148
-137
-112
-117
-113
-110
-119
-111
-93
-80
-57
-27
-3
27
73
124
178
240
310
368
390
375
352
309
215
106
34
-24
-86
-122
-134
-154
-172
-174
-181
-186
-153
-105
-65
9
138
321
586
871
1044
1185
1419
1502
1105
398
-146
-365
-433
-466
-456
-444
-472
-505
-512
-525
-556
-583
-603
-636
-692
-744
-769
-767
-728
-633
-491
-340
-193
-46
80
146
149
125
95
48
11
20
30
21
56
103
136
280
504
633
809
1238
1628
1524
898
142
-306
-363
-303
-290
-268
-246
-264
-268
-238
-205
-167
-161
-227
-302
-324
-321
-303
-250
-178
-76
66
192
256
288
306
276
205
154
126
77
20
-7
-21
-36
-42
-48
-63
-76
-89
-92
-83
-79
-90
-102
-105
-99
-101
-108
-97
-82
-92
-105
-90
-73
-72
-69
-71
-81
-69
-52
-63
-77
-68
-58
-62
-71
-72
-68
-84
-110
-96
-63
-84
-124
-89
-2
40
13
-31
-48
-53
-69
-73
-52
-30
-41
-83
-62
69
202
362
604
564
47
-361
-263
-79
-99
-117
-76
-83
-93
-62
-51
-63
-49
-19
-4
7
29
58
99
153
208
263
324
365
368
354
330
273
201
138
63
-23
-73
-90
-116
-149
-154
-130
-115
-114
-94
-52
14
110
196
294
525
820
995
1139
1325
1257
794
252
-103
-289
-362
-367
-374
-401
-417
-424
-437
-452
-475
-519
-553
-562
-587
-620
-611
-577
-538
-440
-286
-145
-24
87
146
167
186
146
100
209
356
361
460
748
763
315
-160
-360
-378
-296
-172
-118
-146
-175
-181
-188
-202
-210
-211
-215
-229
-237
-203
-125
-44
23
117
240
320
317
273
231
186
133
82
38
5
-14
-23
-31
-40
-47
-49
-51
-56
-63
-72
-83
-92
-93
-88
-82
-87
-99
-96
-88
-100
-112
-99
-90
-107
-112
-102
-115
-129
-110
-91
-98
-96
-76
-68
-68
-49
-22
-10
-9
-9
-15
-15
3
14
4
2
15
8
-18
-24
-4
8
4
13
53
109
142
137
117
103
95
98
96
74
82
99
59
85
254
413
586
796
617
-12
-369
-202
-51
-116
-134
-79
-68
-72
-65
-71
-66
-29
1
6
19
56
95
125
166
234
305
350
377
399
394
344
281
234
178
90
-2
-66
-100
-115
-143
-186
-190
-151
-130
-114
-70
-30
16
126
312
571
835
982
1094
1274
1242
769
173
-206
-412
-527
-548
-549
-569
-572
-569
-588
-613
-641
-679
-719
-756
-795
-839
-879
-890
-857
-775
-642
-472
-296
-136
-11
61
82
68
35
6
-3
-7
-19
-25
-17
-12
-10
4
18
22
27
30
26
26
26
16
16
29
13
-17
-6
13
-20
-47
7
86
117
121
123
106
65
40
75
125
126
131
146
94
104
279
413
522
757
717
184
-214
-136
-11
-27
-17
-6
-30
-14
4
-17
-15
9
4
-4
25
59
79
111
164
224
288
345
382
406
412
377
309
242
180
111
37
-25
-55
-61
-72
-93
-95
-71
-49
-47
-49
-44
-37
-19
19
42
37
60
146
272
398
470
450
372
258
165
277
537
488
31
-328
-360
-330
-357
-357
-358
-388
-393
-377
-389
-421
-446
-448
-425
-405
-404
-389
-352
-328
-309
-265
-222
-199
-176
-146
-117
-98
-90
-79
-66
-70
-73
-51
-41
-57
-52
-21
-8
-17
-28
-32
-28
-21
-18
-12
4
31
65
82
55
13
2
5
-13
-30
-24
-14
2
-3
-44
-15
114
243
418
574
337
-201
-402
-202
-93
-149
-144
-95
-81
-79
-86
-81
-46
-17
2
40
76
107
163
223
265
317
384
436
466
481
474
436
369
279
182
98
42
15
0
-17
-25
-18
-16
-25
-16
21
41
28
34
82
143
192
223
264
381
529
603
706
963
1122
869
339
-99
-301
-353
-366
-389
-409
-413
-417
-440
-471
-492
-514
-546
-583
-619
-661
-698
-713
-694
-633
-536
-410
-253
-101
-5
52
96
95
52
24
13
-15
-40
-34
-31
-47
-42
-20
-24
-33
-11
10
0
-28
-56
-51
-17
-17
-52
-39
25
70
72
49
20
-17
-49
-29
25
17
-17
-5
-16
-1
158
324
444
626
575
89
-293
-217
-62
-61
-69
-56
-55
-40
-36
-55
-50
-26
-12
-1
11
22
58
126
190
240
310
394
454
478
464
404
310
205
101
0
-89
-146
-170
-176
-167
-153
-156
-158
-135
-114
-117
-115
-63
32
109
148
182
232
347
548
705
795
1047
1407
1385
820
160
-224
-369
-403
-394
-395
-412
-428
-443
-446
-456
-501
-548
-571
-610
-665
-702
-735
-763
-753
-699
-592
-422
-239
-99
12
103
138
125
104
90
75
57
39
38
51
48
37
50
60
52
58
63
26
1
31
46
13
15
85
147
138
91
74
78
49
13
10
7
18
65
37
-24
77
214
292
613
965
643
-78
-304
-129
-115
-185
-134
-107
-159
-168
-122
-92
-91
-89
-65
-36
-18
4
50
110
168
220
277
347
399
397
361
312
237
146
63
-15
-83
-112
-112
-119
-141
-162
-169
-161
-150
-154
-164
-156
-122
-87
-90
-124
-152
-173
-196
-191
-169
-185
-202
-176
-184
-206
-100
57
156
302
351
20
-371
-358
-167
-143
-165
-108
-77
-86
-72
-58
-64
-56
-40
-34
-16
22
64
115
174
235
307
373
405
412
402
356
268
161
63
-5
-44
-65
-77
-91
-108
-109
-104
-113
-109
-77
-50
-29
20
96
179
243
304
427
591
705
845
1084
1197
951
458
-6
-268
-334
-342
-371
-390
-397
-414
-423
-433
-465
-491
-504
-534
-571
-589
-595
-581
-535
-464
-362
-228
-99
-8
67
141
168
128
84
68
45
17
19
31
24
13
9
10
19
20
0
-13
-9
-18
-50
-76
-79
-62
-50
-53
-42
2
34
20
-11
-26
-34
-42
-36
-30
-42
-38
-20
-42
-29
94
211
328
530
488
12
-343
-232
-64
-82
-93
-58
-59
-61
-60
-77
-76
-59
-51
-36
-12
13
54
101
124
157
227
308
379
433
440
399
339
245
118
32
18
-5
-60
-77
-62
-83
-112
-89
-58
-65
-68
-38
15
123
272
371
444
611
800
899
1051
1316
1345
886
227
-217
-373
-392
-397
-419
-438
-456
-493
-525
-532
-557
-616
-665
-702
-758
-811
-828
-823
-794
-711
-583
-442
-284
-107
35
95
105
111
99
63
37
32
24
5
-13
-11
4
8
6
33
66
63
57
71
54
19
43
80
48
16
67
132
142
117
84
62
60
64
67
59
57
93
101
56
116
253
335
584
952
769
56
-315
-195
-128
-179
-158
-139
-151
-128
-110
-117
-110
-96
-82
-60
-40
-22
18
71
125
188
264
338
385
388
364
329
258
149
57
6
-39
-97
-147
-162
-144
-140
-167
-174
-143
-121
-118
-105
-80
-49
-30
-48
-85
-108
-132
-153
-143
-142
-165
-144
-114
-148
-124
15
147
328
527
342
-168
-372
-208
-137
-186
-159
-132
-157
-152
-131
-137
-130
-104
-87
-74
-47
-4
40
84
138
203
268
319
341
335
307
241
145
60
-6
-71
-122
-146
-154
-160
-161
-152
-135
-116
-95
-62
-33
-10
58
192
302
358
466
628
735
859
1102
1246
1006
482
7
-235
-303
-325
-362
-388
-380
-368
-388
-416
-428
-449
-485
-519
-547
-565
-559
-547
-531
-477
-376
-254
-129
-14
78
138
157
138
108
85
55
19
2
0
-7
-20
-30
-33
-32
-35
-35
-26
-18
-22
-36
-58
-77
-74
-55
-47
-56
-46
8
56
41
-1
-12
-9
-22
-28
-26
-44
-38
-4
-20
-22
95
220
349
578
563
62
-364
-291
-116
-131
-145
-104
-113
-132
-115
-107
-114
-101
-71
-44
-27
-21
-11
26
93
171
244
308
376
435
447
419
378
299
181
87
35
-12
-47
-48
-49
-75
-90
-73
-57
-44
-5
30
56
150
313
459
619
832
984
1076
1295
1542
1404
793
125
-234
-332
-372
-400
-392
-409
-475
-518
-523
-546
-575
-591
-637
-712
-762
-793
-827
-832
-775
-672
-545
-402
-244
-85
36
100
111
73
24
12
12
-16
-28
-2
2
-28
-40
-28
-16
0
16
17
18
29
29
-6
-32
-3
24
-13
-44
5
80
116
114
88
65
57
44
34
35
39
77
106
49
49
186
309
519
875
819
170
-294
-224
-115
-159
-158
-135
-156
-151
-127
-130
-126
-99
-77
-64
-46
-27
-8
27
78
130
183
244
300
321
305
269
210
123
26
-58
-114
-141
-162
-192
-219
-232
-233
-229
-226
-217
-192
-170
-171
-159
-110
-81
-112
-158
-175
-165
-141
-131
-153
-149
-96
-105
-161
-80
71
169
424
707
434
-196
-392
-207
-162
-208
-164
-138
-152
-124
-89
-81
-61
-26
4
26
41
61
106
166
214
253
305
364
396
388
354
295
203
106
28
-27
-51
-53
-59
-63
-51
-44
-52
-57
-44
-4
47
96
177
297
437
622
806
927
1129
1436
1464
1008
404
-19
-245
-327
-322
-326
-353
-357
-359
-387
-416
-444
-488
-521
-537
-575
-628
-641
-615
-579
-511
-388
-240
-107
-2
72
117
125
83
12
-29
-35
-60
-99
-102
-87
-101
