# session 48
-13
33
101
156
187
218
239
225
184
135
81
20
-46
-92
-103
-117
-157
-174
-155
-144
-141
-129
-137
-169
-171
-133
-104
-111
-116
-72
-19
-19
-54
-82
-103
-110
-104
-102
-92
-83
-88
-81
-81
-108
-65
59
172
336
483
273
-180
-338
-185
-108
-134
-119
-97
-96
-81
-67
-67
-61
-46
-32
-20
-10
4
21
41
73
115
156
200
254
307
347
366
358
321
256
171
87
25
-15
-41
-57
-77
-96
-87
-67
-50
13
105
188
398
746
965
1097
1394
1529
1061
346
-96
-307
-438
-460
-441
-470
-498
-487
-475
-492
-530
-557
-568
-604
-670
-718
-744
-773
-779
-720
-608
-455
-272
-105
22
132
222
250
225
184
132
81
65
67
50
29
15
-12
-22
9
19
-6
-2
18
17
18
32
37
48
64
62
59
68
71
76
88
83
74
85
97
104
101
60
19
41
77
65
41
57
113
163
149
91
56
43
26
18
5
2
39
25
-29
80
295
413
572
725
419
-160
-320
-139
-107
-159
-114
-94
-131
-128
-103
-99
-107
-113
-100
-71
-59
-53
-24
6
25
67
132
188
233
278
313
327
321
298
252
181
96
18
-37
-74
-110
-147
-168
-166
-164
-165
-157
-139
-131
-136
-129
-98
-90
-128
-133
-48
26
-8
-81
-110
-117
-127
-133
-138
-144
-154
-149
-127
-140
-131
6
154
253
423
421
-23
-432
-359
-164
-173
-205
-172
-155
-135
-106
-108
-115
-103
-79
-43
-7
14
29
37
54
106
165
197
237
295
328
341
351
318
230
137
60
-10
-62
-93
-122
-134
-111
-94
-110
-112
-81
-69
-94
-105
-76
-42
-41
-56
-38
19
64
57
15
-15
-14
-15
-27
-12
-2
-38
-45
-15
-33
-13
112
220
384
642
538
-30
-368
-223
-98
-154
-151
-109
-130
-131
-91
-84
-107
-103
-70
-51
-58
-59
-44
-20
11
44
84
151
229
275
297
313
311
286
238
161
73
14
-9
-38
-86
-113
-99
-90
-104
-107
-95
-98
-108
-108
-109
-113
-105
-89
-66
-33
-15
-29
-65
-96
-99
-103
-121
-120
-111
-120
-109
-98
-127
-89
49
162
240
249
1
-346
-390
-209
-137
-146
-110
-90
-100
-78
-54
-67
-66
-26
-12
-39
-31
22
55
64
90
143
202
252
298
343
371
369
344
293
220
139
63
-4
-58
-94
-117
-134
-142
-136
-125
-121
-104
-68
-41
-3
94
202
311
514
749
909
1123
1357
1214
641
105
-150
-252
-296
-297
-303
-323
-333
-336
-346
-369
-398
-427
-460
-492
-520
-552
-587
-612
-607
-559
-479
-376
-253
-120
0
93
151
163
134
100
89
84
61
36
27
19
5
-4
-3
2
5
9
16
20
19
17
15
11
10
13
15
13
8
-2
-6
1
8
-2
-22
-21
-4
-11
-35
-13
54
98
85
50
37
44
27
6
21
24
12
39
26
-19
102
296
401
632
825
413
-257
-379
-159
-143
-205
-156
-133
-160
-153
-140
-152
-150
-125
-105
-96
-77
-55
-50
-40
4
64
114
165
229
286
313
318
319
303
246
168
102
42
-21
-64
-83
-101
-117
-127
-141
-145
-132
-134
-157
-157
-121
-104
-123
-113
-43
16
19
-5
-40
-72
-67
-44
-41
-48
-54
-39
0
-16
-42
75
241
372
636
789
371
-213
-301
-127
-113
-131
-90
-109
-137
-107
-93
-101
-83
-67
-77
-83
-79
-69
-37
5
26
48
112
202
271
301
307
307
293
236
136
39
-21
-66
-118
-150
-158
-171
-174
-159
-162
-169
-147
-129
-141
-143
-118
-88
-82
-96
-82
-22
21
4
-28
-37
-38
-51
-62
-48
-37
-51
-42
-27
-54
-19
119
242
417
614
422
-121
-380
-238
-140
-173
-171
-159
-168
-152
-132
-135
-136
-134
-128
-109
-93
-77
-42
-7
9
38
100
166
227
287
322
324
307
269
203
126
54
-13
-67
-99
-119
-129
-127
-125
-123
-109
-87
-77
-80
-84
-82
-67
-54
-63
-70
-45
-17
-29
-68
-99
-110
-116
-125
-115
-94
-98
-86
-45
-57
-66
50
182
286
484
517
109
-290
-247
-77
-80
-98
-61
-63
-77
-56
-37
-36
-38
-31
-12
4
6
15
48
81
97
124
183
252
297
325
356
364
325
266
205
120
25
-31
-56
-82
-100
-102
-111
-114
-87
-56
-21
55
149
282
559
872
1036
1241
1576
1555
921
185
-206
-347
-410
-426
-433
-441
-443
-464
-495
-507
-525
-563
-599
-638
-692
-745
-794
-827
-819
-766
-675
-538
-377
-216
-50
98
176
184
175
166
133
82
47
37
24
-5
-12
14
22
8
20
31
14
16
45
45
27
29
31
24
32
47
43
32
36
44
38
32
41
43
20
-5
-1
27
31
2
4
74
148
162
133
100
73
51
39
40
21
-4
18
21
-28
48
239
368
565
793
537
-94
-333
-142
-60
-116
-104
-86
-100
-83
-61
-55
-44
-34
-33
-24
-7
15
36
52
76
115
170
226
253
264
296
320
299
270
250
195
114
47
-4
-61
-117
-147
-151
-155
-159
-142
-126
-134
-141
-137
-139
-137
-122
-121
-130
-104
-50
-22
-47
-97
-127
-129
-132
-137
-126
-130
-143
-116
-108
-134
-55
93
191
358
477
156
-338
-409
-208
-164
-193
-154
-146
-167
-151
-138
-143
-133
-122
-119
-106
-88
-70
-43
-20
-3
33
88
142
196
249
280
292
285
221
106
21
-21
-75
-131
-148
-148
-157
-149
-122
-104
-95
-81
-73
-78
-78
-57
-29
-19
-30
-25
18
58
66
48
18
7
30
43
42
60
74
78
89
80
88
171
261
378
556
488
46
-264
-163
-11
-15
-9
41
57
58
73
92
110
123
147
182
187
183
212
245
262
308
369
394
423
486
531
546
565
567
518
435
352
282
232
200
182
165
104
8
-44
-67
-155
-320
-501
-687
-873
-1045
-1214
-1367
-1395
-1224
-938
-661
-403
-175
-60
-53
-84
-144
-114
140
319
62
-346
-454
-376
-366
-367
-321
-296
-289
-265
-246
-245
-245
-243
-242
-239
-233
-232
-225
-196
-156
-122
-83
-30
31
90
140
182
220
247
253
238
214
202
203
195
192
223
251
260
341
508
660
826
1045
1218
1417
1717
1702
1068
300
-90
-216
-283
-286
-266
-281
-297
-308
-315
-296
-293
-367
-479
-555
-602
-665
-734
-757
-724
-641
-484
-275
-67
162
446
789
1142
1350
1432
1703
2069
1855
924
8
-385
-440
-433
-427
-437
-465
-478
-486
-529
-576
-594
-622
-680
-722
-729
-711
-656
-565
-449
-313
-169
-38
73
152
180
176
210
288
353
420
507
535
614
918
1168
1124
1095
1018
331
-634
-953
-690
-487
-439
-399
-377
-343
-279
-274
-333
-379
-404
-423
-411
-376
-347
-305
-229
-147
-76
3
81
132
163
178
162
121
74
25
-16
-48
-80
-104
-107
-104
-105
-102
-96
-97
-96
-89
-83
-83
-77
-70
-77
-80
-59
-42
-47
-41
-31
-41
-45
-26
-13
-32
-76
-99
-67
-41
-71
-92
-67
-62
-92
-101
-93
-92
-82
-76
-105
-133
-111
-75
-77
-95
-68
-2
38
41
40
21
-21
-17
38
28
-39
-14
54
8
6
209
404
535
725
638
95
-283
-151
24
-8
-35
-6
-2
1
-1
-13
8
46
54
60
89
118
146
188
231
272
324
377
423
468
493
496
503
495
453
411
379
339
302
269
228
203
201
199
199
206
217
233
250
255
261
291
336
373
438
616
868
1039
1146
1328
1445
1214
705
215
-121
-295
-319
-284
-318
-465
-660
-834
-1006
-1223
-1445
-1624
-1808
-2024
-2146
-2071
-1886
-1712
-1543
-1356
-1170
-970
-742
-535
-378
-253
-169
-140
-132
-107
-80
-65
-45
-18
3
26
51
70
95
127
135
129
140
160
172
182
187
182
179
189
203
206
194
187
194
178
148
167
210
211
215
264
299
276
234
210
217
228
218
216
233
237
239
250
229
230
326
445
551
635
477
46
-216
-104
49
61
67
95
95
97
111
116
121
130
133
136
127
99
75
69
69
77
107
156
204
239
264
280
278
261
238
199
137
74
26
-18
-60
-82
-88
-90
-81
-55
-25
13
81
173
325
592
872
1060
1297
1551
1390
703
6
-317
-405
-457
-482
-476
-484
-515
-536
-553
-592
-630
-645
-657
-697
-758
-787
-769
-754
-732
-637
-498
-380
-253
-96
25
65
67
66
39
-16
-45
-38
-56
-96
-90
-43
-29
-57
-75
-68
-63
-54
-32
-21
-29
-30
-30
-38
-33
-12
3
3
-8
-14
2
26
36
34
21
6
8
31
35
-5
-34
8
92
144
126
68
30
18
10
22
26
-17
-16
34
-5
-15
182
372
434
531
464
23
-323
-234
-82
-100
-107
-79
-98
-101
-72
-83
-105
-86
-70
-83
-75
-35
-15
-2
52
109
139
194
281
341
363
371
366
339
287
206
113
28
-46
-100
-125
-144
-173
-180
-149
-123
-130
-135
-113
-93
-75
-54
-65
-83
-28
59
75
31
-6
-18
-20
-39
-57
-43
-39
-38
-3
-17
-45
86
265
372
577
674
271
-229
-272
-123
-129
-152
-123
-136
-161
-142
-109
-92
-97
-107
-90
-49
-21
-18
-10
18
62
119
187
251
307
355
370
343
294
224
123
22
-42
-87
-133
-159
-160
-163
-176
-178
-161
-144
-142
-151
-155
-138
-110
-101
-113
-99
-46
-10
-33
-78
-107
-125
-132
-108
-82
-110
-127
-64
-8
73
333
592
667
786
854
416
-231
-415
-275
-254
-288
-250
-234
-241
-217
-204
-226
-243
-229
-212
-223
-235
-219
-222
-255
-228
-150
-126
-140
-99
-34
2
43
98
120
108
94
75
47
25
10
-12
-33
-40
-41
-34
-7
29
75
143
228
376
606
779
876
1088
1293
1089
542
106
-85
-180
-219
-212
-222
-253
-271
-271
-264
-277
-317
-353
-371
-388
-409
-435
-464
-466
-416
-345
-274
-167
-25
90
156
203
225
204
166
134
94
55
43
36
10
-5
7
14
5
-1
-5
-13
-18
-22
-29
-31
-22
-22
-35
-39
-27
-24
-35
-39
-29
-16
-22
-43
-54
-43
-31
-35
-30
5
39
46
40
27
4
-15
-19
-9
-7
-20
0
21
-32
-27
137
283
449
761
733
87
-407
-276
-88
-173
-228
-173
-162
-178
-166
-151
-140
-123
-117
-111
-85
-49
-20
6
28
58
122
194
243
302
372
389
361
344
317
246
166
98
13
-68
-93
-79
-85
-113
-136
-137
-123
-113
-113
-116
-124
-134
-139
-137
-107
-48
-24
-70
-117
-113
-110
-138
-148
-121
-107
-90
-55
-83
-98
58
241
375
640
734
234
-329
-322
-101
-98
-138
-108
-112
-125
-106
-97
-96
-85
-86
-89
-68
-48
-42
-27
-1
26
76
162
244
291
322
357
374
343
260
156
52
-45
-110
-128
-139
-165
-178
-176
-192
-212
-200
-170
-162
-164
-138
-116
-147
-171
-114
-37
-16
-32
-54
-74
-78
-65
-49
-49
-64
-45
-2
-34
-62
64
201
304
587
742
296
-265
-295
-104
-112
-159
-125
-120
-147
-148
-133
-125
-131
-135
-124
-116
-103
-67
-36
-30
-5
58
116
168
244
312
333
325
310
278
209
95
-23
-78
-83
-106
-138
-136
-129
-136
-108
-59
-26
39
130
237
456
714
853
1050
1349
1252
627
53
-178
-281
-361
-382
-389
-400
-409
-429
-440
-441
-473
-515
-522
-526
-554
-573
-573
-567
-536
-465
-368
-243
-108
6
114
212
249
224
196
181
154
109
81
94
97
52
28
66
88
64
59
67
48
29
33
36
35
31
-4
-47
-41
-5
8
4
6
9
21
28
0
-30
-12
22
30
27
31
50
93
121
95
63
80
101
85
65
59
65
78
64
59
139
262
385
470
317
-72
-284
-168
-38
-34
-44
-55
-77
-65
-49
-65
-76
-71
-70
-74
-74
-70
-61
-45
-20
17
54
84
123
172
208
219
217
205
170
118
75
37
-18
-71
-87
-91
-111
-129
-130
-114
-91
-96
-132
-142
-107
-70
-63
-75
-69
-28
-1
-22
-56
-68
-71
-76
-67
-45
-45
-51
-30
-40
-65
11
142
271
469
493
56
-409
-393
-186
-169
-197
-148
-135
-160
-150
-128
-122
-110
-88
-66
-46
-29
-15
4
31
64
102
160
242
308
329
349
385
365
267
172
97
-3
-96
-116
-104
-134
-181
-192
-187
-193
-195
-186
-184
-183
-174
-168
-161
-123
-62
-28
-44
-70
-79
-97
-127
-111
-63
-71
-100
-59
-34
-87
-22
176
280
399
602
423
-153
-398
-191
-77
-136
-129
-101
-119
-118
-98
-88
-81
-83
-82
-57
-27
-16
-10
20
74
128
177
234
286
327
367
399
394
336
243
149
71
3
-55
-94
-109
-100
-104
-129
-117
-71
-38
15
116
265
522
825
1012
1237
1653
1808
1273
433
-120
-352
-467
-507
-496
-507
-535
-531
-513
-525
-559
-587
-610
-642
-665
-670
-682
-698
-680
-609
-494
-354
-216
-87
34
115
127
106
100
97
76
60
66
62
42
45
72
70
51
70
100
81
52
64
78
68
65
63
55
69
84
63
41
50
55
44
42
48
36
18
17
24
21
19
31
56
81
85
52
6
-13
0
21
19
-9
-19
-2
-13
-16
66
165
280
491
535
151
-262
-271
-113
-90
-111
-95
-104
-114
-101
-103
-112
-104
-98
-102
-94
-81
-78
-67
-39
-10
15
54
99
129
152
176
190
181
153
107
48
-13
-65
-111
-154
-184
-198
-216
-232
-209
-170
-154
-112
-24
83
304
634
836
959
1222
1286
757
48
-314
-430
-508
-516
-484
-489
-494
-484
-500
-524
-538
-567
-603
-616
-632
-674
-707
-696
-650
-574
-452
-288
-124
11
