# session 148
-32
-18
-25
-40
-16
37
55
24
-14
-43
-65
-80
-82
-79
-83
-82
-67
-85
-101
-20
96
201
366
379
20
-335
-307
-153
-148
-172
-141
-130
-149
-155
-151
-137
-103
-81
-89
-79
-43
-25
-6
52
104
136
194
251
256
244
246
226
178
138
106
65
31
10
-8
-18
-24
-38
-45
-46
-67
-103
-122
-124
-131
-133
-119
-120
-126
-81
-10
3
-48
-94
-101
-90
-83
-74
-69
-73
-54
-47
-81
-23
147
292
496
706
476
-101
-321
-127
-20
-50
-30
-5
2
37
62
69
89
110
135
176
210
245
310
380
418
449
504
552
546
481
389
288
185
84
-9
-89
-162
-218
-238
-239
-253
-269
-270
-268
-270
-273
-281
-281
-263
-259
-287
-293
-234
-158
-134
-161
-196
-203
-192
-194
-186
-158
-168
-188
-140
-116
-140
-47
116
232
409
460
52
-401
-350
-129
-162
-220
-129
-85
-121
-109
-72
-73
-67
-34
-15
-13
17
81
144
198
258
320
377
424
439
412
353
266
165
69
-22
-90
-113
-117
-124
-107
-68
-45
-31
-6
3
-13
-11
16
24
3
-8
9
39
56
48
19
-6
-10
-9
-13
-11
-9
2
23
-7
-48
29
143
253
532
724
356
-196
-294
-163
-187
-206
-138
-155
-218
-205
-184
-216
-236
-203
-162
-162
-171
-144
-101
-68
-25
39
98
140
174
198
202
173
118
62
17
-23
-51
-71
-89
-104
-109
-118
-141
-158
-147
-135
-157
-180
-160
-120
-112
-114
-91
-61
-43
-34
-43
-67
-70
-63
-67
-58
-35
-26
-14
-8
-12
43
144
222
311
333
111
-154
-146
1
49
59
89
86
73
85
88
73
68
77
85
85
84
100
131
162
193
236
280
308
320
316
290
243
186
123
60
-1
-46
-60
-53
-58
-80
-85
-72
-75
-89
-90
-95
-116
-117
-98
-102
-118
-93
-34
8
-2
-44
-68
-63
-58
-59
-53
-64
-82
-54
-32
-79
-66
55
172
378
642
497
-52
-309
-135
-25
-67
-46
-9
-30
-39
-24
-30
-49
-59
-59
-62
-73
-76
-60
-19
48
120
169
200
233
265
276
230
124
14
-53
-106
-174
-224
-235
-224
-220
-235
-257
-265
-251
-225
-213
-231
-246
-232
-225
-245
-229
-152
-85
-78
-115
-147
-138
-121
-142
-145
-109
-112
-118
-63
-56
-79
35
198
323
519
545
127
-273
-228
-76
-91
-106
-81
-80
-60
-40
-50
-35
-6
-7
2
36
60
89
142
193
241
299
350
384
402
384
330
267
188
88
11
-22
-42
-64
-69
-65
-62
-50
-38
-32
-20
-18
-42
-51
-13
17
-7
-22
29
91
99
77
63
55
48
43
46
64
64
35
41
58
26
36
131
253
503
762
546
-38
-290
-151
-92
-141
-109
-84
-125
-127
-84
-75
-89
-88
-82
-81
-77
-57
-16
18
33
62
112
155
190
213
202
158
96
27
-39
-88
-118
-137
-151
-156
-150
-151
-164
-173
-167
-157
-160
-177
-192
-197
-192
-177
-166
-165
-143
-97
-73
-90
-122
-145
-150
-141
-132
-124
-121
-123
-105
-86
-113
-115
-14
97
182
295
249
-65
-295
-217
-92
-91
-104
-91
-91
-101
-118
-120
-96
-77
-70
-51
-20
19
65
105
145
191
239
283
321
341
338
312
261
192
121
54
-1
-35
-51
-53
-54
-51
-37
-19
-12
-8
1
6
0
-15
-26
-11
21
36
35
67
116
126
104
90
81
70
61
51
56
72
68
70
79
41
22
104
202
354
596
544
52
-298
-212
-89
-114
-114
-92
-111
-114
-94
-97
-112
-111
-102
-99
-91
-63
-42
-37
-10
46
98
151
208
230
203
164
124
56
-38
-117
-164
-189
-197
-204
-223
-217
-169
-144
-136
-56
63
177
407
715
895
1108
1531
1639
996
143
-278
-378
-451
-505
-514
-531
-574
-608
-597
-587
-636
-695
-712
-733
-773
-795
-788
-745
-654
-512
-328
-149
-17
77
136
145
126
98
71
58
49
32
40
78
93
74
73
104
121
109
103
110
112
108
106
98
86
82
79
66
48
39
46
57
57
51
52
57
59
64
75
81
82
85
82
69
71
89
84
63
94
170
210
193
162
134
112
114
132
126
87
76
108
92
63
165
295
368
614
867
567
-60
-281
-151
-130
-179
-154
-130
-127
-112
-110
-115
-112
-109
-93
-55
-25
-18
-9
27
68
94
133
191
218
209
209
201
138
58
11
-34
-96
-137
-145
-159
-184
-195
-190
-191
-196
-195
-198
-209
-218
-226
-234
-234
-232
-221
-166
-62
29
86
181
329
427
513
767
1048
945
427
-110
-409
-509
-517
-510
-505
-478
-455
-459
-453
-443
-440
-418
-415
-461
-490
-485
-504
-526
-503
-440
-333
-189
-54
68
183
252
263
254
236
202
168
159
178
200
194
168
153
149
137
120
107
98
89
80
63
45
46
56
54
54
71
82
69
60
85
118
127
142
189
218
200
171
149
130
120
115
110
100
88
99
107
65
59
154
251
376
600
618
225
-146
-142
-21
-13
-12
23
23
0
-6
-7
-11
-4
9
19
33
53
66
89
134
180
221
266
299
310
312
298
256
198
136
71
8
-47
-93
-131
-164
-186
-194
-205
-226
-247
-265
-272
-274
-289
-291
-262
-259
-291
-277
-219
-200
-223
-243
-251
-247
-248
-261
-243
-210
-216
-209
-176
-198
-187
-55
63
194
409
329
-182
-509
-371
-224
-260
-262
-218
-221
-217
-188
-181
-172
-137
-115
-115
-96
-60
-32
4
74
161
238
310
376
406
384
342
294
215
109
20
-33
-64
-88
-96
-95
-107
-115
-98
-84
-91
-98
-108
-123
-105
-73
-97
-127
-50
70
104
81
64
43
45
76
80
80
109
115
118
146
135
166
319
439
548
745
642
102
-221
-64
73
18
3
31
32
56
71
39
19
31
49
77
110
131
155
195
238
287
363
443
477
476
461
410
313
208
122
42
-38
-116
-185
-231
-255
-265
-257
-242
-214
-137
-34
76
292
602
811
958
1202
1283
858
161
-345
-560
-630
-661
-685
-695
-690
-700
-729
-742
-744
-768
-810
-858
-893
-898
-901
-889
-780
-608
-484
-349
-127
48
76
55
44
22
2
-7
-18
-27
-26
-19
-2
12
9
10
23
27
30
51
74
77
81
97
105
110
145
186
188
166
158
166
184
195
170
136
138
153
128
90
94
113
101
85
109
152
172
169
164
153
136
139
161
161
128
120
157
151
98
142
258
361
615
911
706
89
-201
-72
-10
-75
-69
-34
-46
-66
-71
-74
-78
-81
-75
-58
-39
-26
-17
6
47
93
139
182
210
219
212
195
167
123
64
5
-44
-83
-112
-135
-160
-187
-202
-200
-195
-191
-185
-186
-188
-185
-172
-126
-39
63
212
433
606
646
601
455
280
332
472
235
-253
-460
-395
-393
-453
-447
-431
-458
-484
-494
-515
-542
-541
-511
-485
-478
-469
-433
-380
-337
-312
-281
-239
-191
-135
-76
-38
-24
-8
17
31
22
4
-2
7
10
11
26
42
46
41
29
19
37
71
88
94
110
125
125
117
113
114
109
96
96
122
138
123
125
168
205
197
168
141
124
109
91
91
99
78
68
90
60
32
130
253
413
755
871
348
-225
-222
-25
-55
-107
-51
-31
-59
-55
-42
-52
-57
-32
0
11
8
26
71
124
179
237
300
374
442
467
457
441
404
317
222
162
112
64
58
55
-11
-78
-83
-93
-125
-93
-8
58
195
483
753
916
1165
1409
1184
459
-225
-540
-631
-674
-697
-707
-711
-716
-732
-751
-758
-774
-813
-859
-891
-912
-920
-903
-845
-737
-574
-376
-190
-39
70
123
123
91
46
8
-4
-11
-40
-65
-64
-64
-66
-51
-46
-65
-71
-58
-65
-86
-71
-31
-33
-55
-29
3
-11
-10
26
31
17
35
57
62
71
67
57
83
112
90
71
121
196
226
205
168
139
126
115
110
120
120
120
140
114
83
184
327
449
733
922
514
-97
-206
-35
-32
-75
-44
-42
-55
-42
-41
-32
-11
-15
-12
21
36
35
73
132
164
197
258
315
344
355
343
311
272
208
128
71
31
-11
-49
-78
-93
-91
-97
-103
-87
-86
-110
-106
-74
-66
-78
-66
-22
23
36
16
-15
-46
-63
-50
-19
14
54
110
186
274
358
461
665
997
1248
1054
399
-208
-399
-370
-384
-410
-401
-412
-433
-435
-447
-480
-502
-516
-544
-574
-597
-622
-643
-637
-611
-571
-492
-371
-250
-153
-63
15
48
45
44
38
15
0
7
10
1
-1
3
-1
-3
-1
-15
-37
-23
10
0
-22
20
72
53
12
-4
-19
-22
-14
-25
-22
12
21
17
31
26
43
140
241
337
433
299
-72
-254
-124
-13
-27
-27
-10
-16
-13
-5
1
14
26
37
60
77
88
123
168
203
244
300
345
375
400
415
417
399
339
253
194
177
163
121
75
58
54
48
50
48
28
13
7
0
16
43
35
21
47
64
34
-6
-34
-56
-69
-76
-74
-72
-90
-100
-84
-106
-133
-75
16
160
423
476
55
-352
-321
-181
-218
-259
-224
-217
-232
-222
-214
-217
-209
-191
-171
-138
-94
-57
-25
23
77
125
177
228
253
248
229
184
98
0
-66
-104
-140
-171
-183
-184
-192
-205
-201
-182
-172
-181
-193
-195
-184
-172
-170
-157
-106
-43
-16
-37
-81
-108
-95
-80
-93
-97
-87
-95
-83
-64
-107
-102
45
184
323
518
396
-138
-444
-289
-164
-212
-197
-152
-166
-160
-129
-131
-121
-81
-70
-84
-58
-1
45
91
160
235
310
380
422
430
422
390
317
221
126
46
-18
-62
-82
-85
-90
-94
-86
-66
-34
8
60
124
208
373
652
907
1100
1473
1948
1937
1231
358
-188
-388
-426
-452
-492
-499
-492
-507
-511
-522
-585
-635
-632
-651
-705
-728
-720
-700
-636
-529
-392
-217
-53
54
143
218
303
509
709
742
956
1486
1603
955
228
-117
-303
-430
-435
-411
-421
-427
-417
-403
-405
-437
-462
-468
-493
-522
-495
-422
-354
-277
-166
-66
-14
12
21
11
11
28
20
-3
18
73
94
68
34
17
10
5
1
-8
-13
-1
6
-8
-19
-18
-34
-40
-21
-44
-63
25
137
222
350
331
-3
-290
-240
-112
-111
-129
-113
-105
-92
-68
-54
-57
-59
-31
14
34
42
88
161
228
282
324
360
385
386
357
319
278
223
153
97
70
48
23
19
26
15
1
9
31
43
34
26
51
81
70
32
-1
-23
-38
-52
-64
-59
-49
-61
-67
-57
-70
-76
-14
91
238
355
210
-160
-341
-223
-98
-92
-112
-114
-91
-64
-69
-67
-42
-43
-51
-18
10
11
43
96
120
138
183
230
253
249
220
173
118
59
1
-42
-65
-88
-113
-123
-129
-146
-156
-154
-164
-178
-179
-174
-161
-138
-138
-150
-117
-64
-56
-83
-104
-121
-128
-123
-127
-131
-120
-120
-120
-96
-117
-156
-83
43
156
339
382
25
-354
-342
-201
-205
-214
-174
-176
-184
-156
-140
-150
-148
-115
-72
-42
-17
18
66
120
178
236
289
340
379
382
346
290
218
134
57
7
-18
-36
-45
-37
-36
-52
-46
-21
-27
-44
-11
69
146
216
371
680
980
1138
1345
1665
1652
1042
271
-171
-302
-345
-384
-422
-447
-447
-453
-483
-504
-519
-559
-605
-633
-669
-709
-716
-687
-634
-544
-406
-246
-98
20
115
169
164
131
109
90
64
38
20
18
29
41
49
48
40
42
56
57
45
44
53
55
48
44
40
38
47
63
60
29
-11
-23
3
9
-35
-48
23
91
82
46
30
11
-17
-28
-11
-2
-34
-44
-19
-68
-113
1
140
284
613
738
229
-336
-348
-182
-210
-236
-189
-192
-204
-178
-166
-162
-137
-115
-110
-101
-73
-34
3
37
79
135
194
242
271
271
252
229
190
133
78
23
-30
-62
-76
-81
-77
-80
-89
-77
-59
-67
-80
-67
-48
-48
-62
-47
11
54
23
-41
-53
-18
-18
-56
-48
-15
-40
-67
-36
-34
-40
48
157
289
508
501
82
-258
-193
-72
-108
-135
-115
-115
-108
-87
-83
-89
-88
-73
-45
-29
-26
6
68
127
183
247
309
353
373
369
340
289
223
149
86
47
23
7
0
-1
6
10
-3
-18
-20
-28
-46
-42
-23
-20
-29
-22
6
32
35
13
-29
-58
-51
-37
-39
-47
-61
-61
-48
-67
-83
-22
63
169
347
356
20
-285
-264
-167
-172
-158
-119
-132
-152
-158
-173
-184
-175
-157
-139
-125
-107
-72
-25
18
62
117
176
218
240
244
229
201
159
97
33
-8
-37
-70
-99
-113
-120
-126
-144
-169
-182
-190
-212
-229
-215
-195
-203
-208
-176
-143
-150
-174
-198
-222
-226
-214
-213
-215
-210
-207
-195
-200
-222
-158
-28
74
229
336
68
-354
-402
-204
-163
-200
-155
-124
-142
-137
-114
-107
-100
-83
-67
-52
-25
11
52
112
197
281
352
411
448
457
445
403
327
240
156
77
25
13
4
-19
-18
-1
-4
9
64
96
119
208
357
568
840
1065
1290
1690
1981
1626
760
43
-252
-326
-353
-358
-354
-359
-368
-382
-402
-412
-424
-461
-508
-543
-560
-560
-556
-542
-463
-304
-140
-13
116
238
291
272
239
222
203
168
136
120
106
87
72
58
40
27
21
20
17
-1
-15
-11
-16
-34
-34
-31
-50
-65
-66
-72
-78
-76
-81
-93
-109
-134
-149
-151
-179
-225
-217
-154
-122
-155
-208
-246
-270
-292
-313
-323
-332
-350
-360
-381
-439
-423
-244
-63
-34
