# session 174
24
23
45
56
55
83
135
183
228
267
291
307
320
318
301
267
222
183
157
136
126
124
113
102
114
123
101
82
93
93
59
37
47
61
61
61
75
91
93
79
50
18
6
8
12
8
-12
-38
-34
-16
-53
-116
-95
-27
37
230
436
247
-214
-380
-242
-196
-253
-243
-214
-232
-251
-252
-254
-254
-247
-228
-206
-193
-180
-155
-126
-97
-63
-18
43
111
165
202
239
267
270
255
227
181
125
67
10
-33
-52
-63
-83
-99
-100
-103
-118
-129
-131
-140
-151
-160
-174
-177
-164
-162
-148
-90
-56
-95
-134
-132
-137
-149
-137
-122
-106
-85
-79
-69
-62
-87
-49
96
235
384
500
288
-139
-253
-60
27
-5
22
57
50
56
73
74
66
61
60
55
45
56
81
80
62
76
124
171
223
292
349
370
380
398
390
334
256
179
103
42
14
-1
-28
-48
-46
-53
-70
-63
-42
-47
-58
-49
-42
-45
-46
-55
-49
9
60
38
-10
-32
-46
-53
-50
-62
-68
-50
-57
-75
-46
-47
-93
-29
115
227
434
596
277
-267
-389
-215
-197
-258
-233
-223
-247
-241
-229
-235
-239
-240
-232
-211
-195
-181
-160
-137
-103
-50
-3
36
98
173
218
236
257
266
240
191
134
70
9
-32
-60
-87
-112
-123
-111
-101
-111
-113
-111
-134
-146
-117
-105
-126
-121
-107
-118
-102
-43
-21
-56
-87
-84
-67
-56
-52
-34
-3
-3
-20
5
21
8
86
238
359
490
496
163
-190
-163
3
1
-41
-24
-27
-44
-40
-37
-42
-36
-32
-37
-32
-14
5
25
53
84
115
159
213
254
292
339
362
361
362
343
281
210
155
107
62
28
13
17
10
-14
-31
-38
-44
-43
-52
-84
-117
-122
-107
-93
-92
-93
-80
-55
-46
-68
-104
-130
-137
-127
-121
-134
-150
-162
-166
-156
-157
-171
-130
-40
98
382
605
346
-178
-355
-216
-164
-193
-161
-130
-129
-110
-88
-87
-87
-88
-95
-96
-94
-101
-116
-116
-94
-68
-47
-21
12
40
72
106
134
160
167
134
87
55
22
-18
-47
-52
-40
-43
-58
-51
-38
-54
-56
-18
10
2
-23
-25
14
42
13
4
67
120
96
52
36
35
42
55
51
37
48
58
47
42
25
-5
32
124
228
422
564
331
-81
-190
-62
-20
-43
-25
-13
-22
-20
-10
-5
-16
-31
-26
-15
-22
-21
-3
5
15
50
85
104
128
171
209
223
224
222
207
172
123
64
4
-37
-56
-64
-71
-74
-77
-93
-114
-110
-88
-87
-106
-125
-150
-166
-141
-103
-105
-116
-82
-41
-51
-88
-115
-141
-166
-174
-175
-171
-155
-153
-160
-139
-135
-167
-112
13
102
263
426
216
-224
-347
-193
-147
-189
-173
-155
-160
-152
-147
-142
-124
-118
-135
-139
-117
-93
-71
-51
-46
-25
40
105
141
191
264
315
339
348
334
298
251
190
128
89
73
55
38
39
55
64
60
50
41
41
43
36
27
24
16
12
19
26
44
82
93
47
-2
-21
-36
-57
-70
-62
-39
-35
-37
-13
-14
-27
80
247
356
513
580
212
-264
-274
-54
-40
-86
-34
-25
-61
-49
-31
-34
-21
-16
-34
-28
3
0
-23
-5
39
55
53
82
138
184
218
255
269
235
173
111
41
-40
-103
-141
-183
-228
-250
-259
-261
-251
-245
-253
-250
-234
-226
-232
-231
-208
-183
-183
-183
-139
-76
-54
-63
-68
-88
-118
-111
-95
-112
-117
-109
-133
-133
-88
-103
-117
-2
134
266
452
389
-58
-358
-236
-91
-117
-132
-97
-76
-62
-55
-58
-47
-29
-18
-13
-5
24
63
72
77
129
184
197
238
333
385
370
365
376
343
273
204
133
51
-12
-52
-89
-103
-88
-93
-120
-108
-70
-66
-76
-62
-52
-46
-9
28
24
34
104
188
252
298
333
434
608
706
781
1050
1322
1176
663
163
-133
-238
-230
-230
-274
-302
-298
-298
-309
-307
-302
-323
-351
-358
-374
-428
-489
-519
-519
-527
-542
-512
-435
-370
-314
-224
-119
-44
-4
13
15
10
-11
-46
-67
-63
-64
-78
-80
-72
-74
-79
-75
-68
-50
-24
-19
-29
-19
-2
-1
2
10
5
-9
-24
-37
-29
-12
-32
-46
10
70
58
22
11
-1
-14
-16
-27
-26
8
18
-15
-13
6
-15
23
157
268
348
364
148
-145
-157
18
79
56
75
87
74
85
107
100
82
80
82
65
32
4
0
11
21
30
51
83
121
164
204
235
255
264
258
246
230
201
155
112
82
59
46
41
29
14
14
18
8
-3
-6
-16
-31
-32
-13
-1
-10
-3
45
69
17
-40
-46
-51
-76
-82
-83
-95
-106
-126
-135
-120
-141
-157
-74
44
204
441
411
-54
-415
-344
-213
-237
-244
-212
-219
-222
-206
-212
-220
-204
-187
-183
-177
-161
-139
-113
-82
-41
5
36
62
110
164
200
227
247
232
190
148
96
28
-29
-60
-85
-109
-118
-121
-128
-123
-104
-98
-109
-119
-128
-131
-108
-81
-95
-121
-79
15
59
23
-30
-44
-16
16
16
18
48
42
6
50
114
75
71
194
270
377
617
541
-4
-337
-201
-89
-146
-137
-96
-110
-105
-78
-73
-59
-27
-8
2
21
44
64
91
126
155
174
199
237
283
324
351
364
365
348
320
283
215
128
71
43
8
-23
-43
-68
-71
-60
-90
-122
-102
-96
-143
-174
-165
-162
-179
-170
-107
-57
-91
-151
-161
-155
-161
-162
-163
-164
-152
-156
-170
-157
-161
-185
-125
-31
68
341
571
283
-230
-330
-162
-147
-192
-157
-141
-161
-163
-158
-157
-156
-157
-145
-132
-130
-111
-80
-70
-49
5
57
95
131
160
201
257
271
241
225
216
177
116
65
46
48
34
21
36
51
49
49
50
50
54
46
27
27
53
71
57
37
53
86
83
53
30
13
1
0
0
1
13
13
0
18
25
-11
16
122
243
452
623
389
-82
-238
-109
-72
-104
-68
-50
-82
-86
-65
-60
-71
-81
-75
-59
-57
-68
-67
-46
-24
-31
-35
-2
24
28
70
129
136
116
106
80
35
7
-4
-36
-99
-148
-153
-162
-196
-196
-161
-144
-140
-134
-145
-178
-203
-200
-189
-198
-204
-165
-116
-114
-136
-138
-133
-131
-117
-103
-101
-95
-87
-82
-66
-74
-99
-46
74
226
466
570
228
-218
-253
-78
-67
-106
-62
-41
-55
-34
-6
-8
-15
-13
1
21
32
27
36
84
140
164
177
215
265
304
335
361
380
381
343
284
250
227
163
78
22
-13
-37
-50
-66
-81
-75
-65
-70
-74
-68
-44
3
34
26
44
111
135
89
57
52
30
13
22
18
1
-7
-17
-9
21
12
-7
40
133
307
523
429
-17
-275
-162
-83
-154
-164
-115
-121
-154
-160
-145
-143
-165
-165
-136
-123
-126
-122
-127
-128
-102
-78
-69
-33
29
80
114
132
122
97
69
26
-28
-69
-99
-124
-133
-123
-115
-116
-116
-115
-119
-124
-137
-159
-166
-144
-119
-119
-117
-84
-49
-52
-78
-99
-104
-101
-114
-131
-111
-89
-104
-81
-30
-81
-141
-24
146
238
321
243
-117
-358
-225
-72
-95
-92
-33
-38
-53
-11
19
13
26
60
79
88
109
129
139
158
189
205
214
248
298
331
354
372
365
344
331
293
209
131
87
60
47
41
25
23
38
30
11
8
-14
-51
-49
-20
-20
-41
-37
12
73
80
28
-16
-28
-38
-47
-50
-54
-60
-73
-70
-54
-90
-117
-5
158
269
385
335
-51
-378
-305
-144
-166
-213
-198
-198
-206
-203
-210
-201
-169
-161
-169
-154
-136
-128
-94
-48
-27
-1
55
108
145
189
235
264
269
244
196
136
59
-20
-74
-115
-157
-169
-151
-153
-167
-143
-98
-96
-120
-98
-57
-76
-93
-38
-4
-33
-8
66
51
-24
-34
4
16
4
6
24
23
10
12
-3
6
130
255
331
532
619
199
-304
-320
-149
-174
-219
-173
-165
-182
-160
-131
-114
-89
-55
-16
12
22
38
73
103
110
119
156
197
225
265
321
353
346
320
288
251
197
124
68
46
19
-32
-67
-75
-85
-95
-96
-117
-153
-163
-163
-172
-165
-163
-182
-167
-109
-74
-101
-165
-203
-172
-132
-144
-150
-133
-161
-200
-167
-142
-190
-164
-34
43
170
435
420
-29
-334
-223
-93
-130
-160
-136
-122
-118
-118
-110
-102
-113
-112
-89
-95
-113
-89
-49
-20
18
55
84
127
181
234
288
314
309
313
323
294
229
171
148
144
123
100
119
155
142
97
92
110
82
48
65
81
59
41
22
-24
-36
9
25
-15
-55
-80
-102
-97
-79
-80
-71
-43
-40
-35
-4
-19
-38
54
179
282
428
408
59
-232
-172
-48
-62
-80
-60
-58
-54
-42
-50
-54
-43
-49
-63
-52
-36
-41
-28
12
20
-6
-3
33
58
77
113
144
148
147
148
103
13
-54
-87
-123
-143
-130
-120
-124
-119
-117
-128
-139
-143
-141
-137
-141
-153
-148
-115
-88
-86
-73
-23
10
-9
-41
-57
-69
-74
-73
-83
-89
-90
-110
-114
-91
-110
-132
-56
66
220
409
344
-86
-381
-268
-127
-173
-200
-147
-131
-146
-138
-120
-108
-93
-73
-51
-27
-5
15
35
58
87
129
177
225
275
327
364
387
399
395
363
302
228
153
88
36
-5
-30
-40
-51
-73
-83
-70
-65
-75
-70
-47
-37
-47
-56
-45
-23
-13
-10
21
69
76
27
-24
-39
-29
-9
4
1
-11
-21
-8
4
-32
-24
101
225
377
622
563
21
-372
-255
-95
-152
-191
-140
-105
-94
-96
-113
-116
-111
-120
-132
-131
-118
-99
-91
-89
-63
-21
10
47
102
156
194
212
206
199
188
137
51
-22
-67
-102
-123
-122
-116
-130
-156
-161
-148
-144
-148
-143
-129
-114
-77
8
112
221
409
660
851
1047
1309
1300
771
104
-237
-310
-360
-398
-363
-324
-357
-397
-365
-308
-300
-327
-350
-359
-364
-391
-430
-442
-452
-504
-521
-431
-316
-243
-153
-19
104
181
215
217
197
153
96
59
39
23
24
35
31
24
41
67
88
103
97
88
109
132
129
125
121
101
85
89
93
88
89
99
100
87
78
81
76
47
20
20
24
7
1
29
58
60
31
-7
-19
-15
-33
-51
-42
-55
-102
-95
-60
-98
-104
1
106
299
618
572
5
-394
-305
-183
-215
-213
-186
-195
-175
-154
-173
-173
-138
-113
-101
-89
-83
-69
-47
-44
-44
-14
22
46
79
121
149
157
158
168
183
170
126
90
67
42
16
-8
-22
-5
10
-5
-8
23
31
14
29
60
50
27
54
98
81
36
66
135
123
56
31
27
-12
-58
-77
-88
-105
-124
-131
-126
-143
-171
-131
-33
51
165
248
72
-240
-297
-135
-58
-72
-52
-26
-21
-12
-7
-13
-11
1
11
14
13
17
23
35
60
92
119
147
176
203
232
253
257
248
229
197
145
69
-6
-48
-72
-94
-107
-110
-113
-112
-117
-140
-153
-141
-123
-115
-108
-69
18
112
225
408
585
714
921
1096
884
348
-72
-234
-300
-334
-322
-307
-316
-329
-330
-324
-325
-338
-353
-372
-400
-431
-456
-484
-518
-539
-542
-529
-487
-411
-315
-203
-86
15
98
169
197
166
126
112
98
69
56
63
58
30
16
38
63
69
75
84
86
93
106
105
96
107
124
117
95
86
90
91
89
91
84
77
87
100
91
66
46
37
23
-8
-18
25
70
64
32
9
4
21
37
42
58
74
76
101
111
79
140
296
410
607
845
621
0
-264
-87
-1
-63
-61
-49
-85
-97
-82
-79
-89
-103
-110
-112
-115
-112
-103
-89
-63
-33
-2
38
74
102
137
171
183
174
140
86
33
-11
-69
-139
-194
-224
-245
-263
-269
-263
-257
-250
-236
-220
-202
-186
-187
-195
-182
-164
-176
-190
-151
-92
-78
-103
-126
-147
-167
-159
-140
-143
-139
-112
-105
-110
-107
-119
-70
88
219
325
456
319
-118
-316
-144
-41
-99
-101
-56
-44
-37
-36
-29
11
28
7
22
72
88
84
97
116
142
183
205
227
281
325
333
352
365
318
251
201
135
52
-5
-25
-22
-8
-9
-20
-8
24
45
64
98
129
161
224
305
420
632
870
1037
1293
1686
1776
1258
512
18
-187
-260
-284
-302
-314
-312
-330
-373
-388
-383
-407
-448
-476
-517
-573
-605
-618
-640
-653
-645
-620
-560
-459
-346
-226
-107
-35
-9
14
20
-13
-38
-41
-61
-85
-84
-79
-80
-70
-53
-38
-28
-25
-17
-3
-7
-24
-28
-22
-16
-17
-34
-54
-66
-74
-74
-70
-80
-92
-93
-99
-113
-114
-112
-132
-154
-144
-131
-145
-141
-97
-66
-64
-48
-46
-88
-103
-68
-55
-58
-45
-48
-56
-46
-71
-63
49
157
289
510
453
-41
-405
-326
-198
-228
-232
-190
-198
-216
-208
-204
-197
-171
-149
-149
-151
-134
-101
-65
-28
19
67
111
165
228
275
300
319
342
364
362
331
303
275
212
145
136
146
124
102
110
112
93
95
131
148
121
91
84
90
105
116
99
84
110
139
125
93
77
70
65
71
83
95
103
99
94
109
104
64
91
191
289
450
590
394
-10
-128
25
95
74
101
127
126
142
158
152
152
163
162
153
151
155
153
157
177
189
185
197
235
261
272
293
307
278
231
197
136
21
-91
-146
-177
-227
-282
-315
-342
-380
-409
-426
-456
-496
-521
-535
-568
-618
-652
-658
-672
-704
-711
-691
-704
-743
-737
-700
-674
-612
-514
-457
-378
-179
