# session 210
964
-2874
-2946
-2215
-2525
-2411
-2468
-1908
2024
6671
8366
9161
8499
3213
-972
1301
2487
-1596
-2017
4078
8131
7396
6705
7094
6795
6445
6509
6170
5914
6037
5429
5004
5979
5213
741
-3750
-5561
-4463
-161
4278
5781
5716
3294
-2749
-7229
-6974
-5758
-5888
-6430
-5978
-4169
-3981
-5104
-1141
5879
5850
-355
-4238
-4818
-3429
1210
5732
5621
3993
5070
5275
1412
-312
3438
4016
-1656
-3585
1555
5687
4175
-1297
-6191
-4961
1366
5392
4679
3587
4716
4772
-117
-6627
-8348
-6799
-7041
-7374
-6193
-7041
-7126
-795
4559
933
-4307
-4572
-2393
991
2363
-674
-1238
1164
-645
-1841
1385
-789
-7626
-6517
439
1527
-3171
-5581
-2444
3399
6912
4984
-836
-5455
-4045
2525
6927
5627
4523
6265
3933
-3388
-6818
-5633
-6134
-4662
2475
4521
-3623
-7856
-559
6094
3902
-1080
-4411
-5442
-1501
3494
1127
-5541
-7208
-4616
-4598
-6781
-4408
2439
4709
-295
-5037
-4492
34
4798
6521
6139
5710
5186
6003
6615
2152
-2283
1411
7125
7535
6701
5947
1181
-5110
-7672
-6985
-6375
-7043
-6907
-4427
-1687
174
1259
-1061
-5381
-4520
1547
5225
4210
3006
4372
4653
282
-3169
243
4895
4742
3531
4321
4478
3594
3805
4112
3075
3220
4431
880
-5982
-6136
600
4514
3386
2325
3260
3762
1175
-3595
-7956
-10216
-6643
1296
2282
-3980
-4571
-1541
-4697
-6491
-251
4356
3164
2506
3338
3213
2863
2857
2891
2597
2224
3324
3574
-870
-4504
-935
3647
3151
2004
2876
3050
2831
3370
3027
1928
1825
2057
1844
2003
1912
1293
2028
2199
-2289
-8197
-9995
-9212
-8134
-5410
-2501
-3114
-6221
-6594
-2300
2304
3465
2783
2540
2986
3478
1849
-3244
-8648
-9061
-3604
606
-2750
-7149
-3318
3393
4236
3475
4920
2017
-4493
-4065
2717
5438
3225
3045
5057
3278
-2804
-7415
-8291
-7172
-3729
1055
2483
-1029
-5721
-6855
-3015
970
-768
-5375
-4836
973
4620
4057
3954
4608
3584
4054
5565
1229
-3995
-217
3731
-1595
-4701
1525
5994
3936
3032
5245
3929
-2604
-5728
-328
5099
4252
3631
4913
475
-6725
-7715
-6955
-8365
-3776
3415
594
-5096
-2847
-1086
-3321
-1855
-705
-3944
-2641
3513
5241
3649
3704
4000
3887
3650
2004
1035
2735
4094
3583
3206
3344
3417
3324
2830
3254
4106
532
-6201
-6680
-269
3520
2802
2685
2940
2415
3093
2706
-1899
-7434
-9871
-7963
-2495
811
-1795
-5298
-6204
-5487
-1215
3897
1141
-5892
-5047
1775
4328
2503
1936
3768
4314
-94
-5128
-2975
3002
4360
2714
2897
3412
2812
2787
3136
2656
2480
3030
2318
439
-164
1188
3332
3134
-2011
-7312
-7575
-7055
-7717
-4836
-1641
-3097
-3062
257
-1362
-6113
-4435
1613
3802
2096
1707
3725
2819
-3247
-6107
-781
4177
3265
2031
3084
3398
2792
2798
3109
2976
2536
2802
3371
1858
-946
-684
2882
4038
-856
-7219
-8523
-7048
-8032
-7401
-1416
2343
-739
-4305
-5023
-5103
-2964
2128
4119
917
271
3939
1988
-4977
-3978
1878
-566
-5113
-861
4685
4189
3035
3838
3763
3284
3565
3490
3071
3277
3600
3299
2912
2714
2402
2575
2947
1088
-3917
-8911
-8853
-3446
-147
-2420
-3514
-1898
-3597
-5517
-1337
3483
3234
2294
3182
2778
2257
3606
1102
-6602
-8080
-934
777
-4665
-4119
1854
4361
4525
2683
-2118
-2486
1825
2019
317
2205
3926
3920
3016
-1276
-6336
-7869
-7162
-3214
3333
3683
-2617
-5513
-4504
-4571
-2625
2193
4080
2803
2622
3443
3334
3070
3810
3851
2121
2090
3701
563
-4860
-2936
2931
3854
3036
3599
1275
-1584
411
3856
3961
351
-5353
-8093
-6268
-6522
-8039
-2762
2074
-3567
-7217
-149
2612
-2748
-2094
2867
2467
1563
3705
3923
2742
2993
3688
3912
1351
-4717
-7439
-2263
4615
5418
-91
-5148
-3151
3588
7103
5737
4284
4581
4035
2346
2588
3764
1018
-4617
-7477
-6613
-5406
-6246
-7136
-3691
1439
1281
-1622
-1590
-1956
-4388
-3050
2064
4711
4344
4291
4827
5057
4779
4418
5010
4805
1747
240
3309
4230
-979
-5432
-3842
945
4786
5326
2644
1136
3700
5441
1475
-4353
-6309
-5102
-4525
-5541
-5784
-4743
-5688
-6513
-1075
4644
1568
-2255
427
-139
-5994
-5125
1709
2845
-1937
-4641
-1542
4253
4739
-868
-2331
1598
1138
-3072
-3853
-2706
-2532
-2810
-3600
-2057
3219
6566
6366
6283
3974
-2232
-6089
-5168
-4283
-5341
-5602
-2961
1138
2907
1494
-818
-3454
-4422
27
4629
1024
-5110
-5381
-4322
-4290
475
6163
3708
-3108
-4769
-435
4636
6567
5758
5205
5577
5284
4828
5121
4693
4141
5233
3314
-4307
-7655
-1650
2209
-2097
-7108
-8341
-5333
44
166
-3723
-805
4780
935
-6451
-5339
1243
4793
4666
3893
3504
3409
3521
3581
3513
3453
3369
3245
3144
2964
2789
2822
2800
2597
2568
2529
2322
2478
2453
1871
2416
2796
-1197
-7072
-8906
-8583
-9067
-6910
-2319
-873
-3060
-5749
-7114
-4759
528
3321
2570
2140
2661
2570
2364
2582
2688
2607
2562
2539
2433
2259
2255
2223
1949
2119
2340
1620
1757
2873
298
-5714
-9080
-9139
-7744
-3213
2336
4184
2566
-1906
-7871
-8554
-3100
-93
-1198
-1453
-2601
-5863
-4962
636
3730
3030
2600
3136
3194
2653
2596
3198
2289
29
430
3282
4105
2955
3000
3839
2509
-2205
-7032
-6595
-1374
2697
3865
3655
402
-5438
-8423
-7242
-6404
-7508
-7216
-4110
-1209
110
889
-928
-4994
-4393
1130
3686
2953
3433
4216
4714
4723
1685
-37
3687
3800
-2917
-4018
2663
5631
3566
3298
4455
3854
3082
4029
4067
197
-5414
-8475
-6809
-1496
592
-4230
-5446
2148
4516
-1905
-2648
1271
-648
-2321
-230
-2406
-4538
723
5148
3722
2863
3793
3468
3105
3398
3198
3193
3556
3423
3458
3544
2805
3043
4022
1601
-2411
-1668
2535
4352
2009
-3229
-7732
-8213
-6786
-6049
-5848
-7265
-8153
-3715
910
-1623
-4710
-2441
-2349
-5726
-2808
4155
2980
-4235
-5855
-1784
1289
3069
4637
4521
4152
4831
2983
-2633
-6260
-3478
2218
5103
4750
4191
4457
4547
4155
4105
4515
3859
1622
276
2028
4664
3401
-1868
-6298
-8310
-8231
-4139
-184
-2609
-4816
-316
1947
-3260
-6467
-2375
3021
4168
2586
3363
4882
277
-5397
-2028
3139
556
-1515
2580
4863
3156
2741
3566
3301
2976
3525
3507
2345
2418
3260
68
-5824
-8042
-7386
-6912
-4638
-1797
-2031
-3503
-4529
-5098
-1716
3969
3253
-2508
-2810
2507
4957
3229
2771
4755
3785
-1664
-3683
1206
4782
3409
2966
3884
2471
1839
3343
1076
-4614
-7392
-7537
-6078
-755
2461
-3021
-8428
-4292
2772
3931
1049
-1372
-2718
-3953
-5235
-4121
721
4209
3413
3610
4539
-77
-4128
951
5059
-857
-5096
247
4930
3589
2742
3665
2900
2688
3904
1115
-5027
-7186
-6258
-7143
-5910
-183
2829
56
-3760
-4666
-459
5061
3135
-2448
-844
2441
-867
-2296
2718
5145
3353
3077
3577
3062
2950
2731
2480
3216
1880
-2807
-5757
-5194
-5025
-5064
-1591
3613
4483
126
-4461
-7130
-8020
-4369
1348
1628
-749
1242
3910
2248
-1433
-3675
-2124
2165
3980
2791
2817
3785
3484
3185
3111
2211
2549
3574
288
-4746
-3326
2349
4154
2680
2554
3369
2961
2183
2983
3296
-662
-6054
-7711
-7144
-5725
-687
4300
1455
-5600
-5645
824
2534
-2631
-6484
-6502
-4996
-1135
3442
4504
3484
3599
3857
3425
3343
3452
3303
3279
3295
3210
3284
3218
2992
3168
3042
2392
2940
3318
-204
-5631
-7959
-7141
-6123
-6764
-7613
-4428
1412
3497
1888
-364
-3191
-2569
3102
4263
-2237
-5245
-430
4053
3889
2594
3403
4722
2504
-2756
-6644
-7608
-5171
438
3306
-788
-5882
-4905
148
2563
-66
-4446
-5689
-1782
2188
-99
-4959
-6221
-5651
-4304
-928
920
67
-602
-2229
-3520
1032
7171
5286
-2294
-5884
-2701
3071
6463
6010
5307
6399
4564
-2011
-5322
-651
4743
5338
5160
5276
970
-4864
-3666
3305
7304
6029
3500
2357
3345
5657
5150
104
-2457
2405
5931
405
-6309
-7151
-6978
-7121
-4070
-1199
-308
1953
1617
-4379
-6414
597
7009
5818
132
-6322
-8948
-2721
4375
-150
-7724
-3601
3758
1132
-5539
-6501
-2600
1002
2567
3714
2594
-1583
-1182
2937
-391
-5593
-440
6650
6006
4355
5400
4971
3902
4570
5001
4273
4189
4532
3689
3357
4663
2860
-3280
-6902
-6720
-7068
-5355
254
4074
4573
3388
-1507
-7528
-8999
-7462
-6705
-7588
-8679
-4792
3379
5486
895
-526
408
-2734
-6776
-6758
-2926
2755
6323
5383
3996
5263
5256
1706
-364
2104
5037
4640
662
-5236
-7956
-3876
2226
4628
4379
2832
-1876
-7999
-8275
-217
5536
-18
-6765
-4883
-3606
-6409
-2698
2975
-1428
-6701
-1541
5116
4748
2974
4525
5239
1924
-320
2554
4951
3015
1795
3289
3765
2988
2857
2953
2832
2563
2504
2678
-656
-8106
-9354
-1033
2780
-1844
-2127
954
-2426
-5188
425
5660
3771
-1000
-5773
-10174
-8857
-250
3689
-2204
-3770
2548
2678
-2320
-475
5008
5679
645
-5983
-5110
3200
3747
-4610
-5083
2849
5712
3690
3566
4218
4096
3486
1804
1884
4136
1281
-6448
-7391
19
4720
4253
4426
4445
2569
2341
3362
3362
4208
3197
-3038
-7709
-8057
-9410
-7067
1829
4111
-1574
-1126
1877
-3613
-8459
-2455
6042
5766
-1830
-4878
1926
6248
-922
-7235
-1696
6160
4336
-4057
-8125
-3536
3417
5297
3557
3742
4284
-1174
-9441
-8555
-101
37
-7765
-7857
-3175
-6042
-7153
1511
3419
-5278
-4286
4948
3291
-1958
2140
2909
-4318
-3638
4440
6219
3848
4472
5296
4534
4823
5496
3807
1266
2644
5511
499
-8631
-6693
2819
2596
-5760
-9835
-9194
-4894
3544
6545
659
-2685
-2039
-4575
-4395
2381
5792
4093
4005
4128
3698
5078
2841
-3422
-2877
3807
5342
3075
3823
4198
2584
3858
4300
-2031
-7326
-3791
3081
5978
2040
-5794
-8351
-5953
-6775
-5892
1227
4721
3617
4330
1004
-6282
-6668
-4418
-7194
-6069
1636
4840
2804
2870
3907
2772
1669
2114
2761
2748
2557
2693
2665
2399
2690
2631
1859
2774
3112
-2552
-9263
-7649
-75
4937
3060
-4669
-9721
-5073
2246
3020
1028
3193
5282
14
-6169
-3325
1194
-1674
-4080
-2252
-5022
-10118
-6600
1947
4497
2582
3482
4415
435
-2609
714
4425
3716
2576
3432
3566
2459
2972
3783
-1115
-8999
-7608
2072
3492
-6114
-11759
-9028
-6466
-4280
1611
5585
3716
2342
3421
1575
-2082
-3040
-4279
-7651
-6700
0
4358
3608
2770
3313
3469
3539
3381
2440
2283
3320
3711
3340
3376
3508
3320
3224
3079
2809
2849
2679
2188
2420
2312
1238
2037
2902
-1372
-6177
-5263
-4473
-8710
-12170
-9759
-3986
-1766
-5090
-5998
-2361
-3354
-7456
-4011
3134
4370
2717
3092
3445
2973
3006
2961
2677
2861
3082
3090
3198
2955
2267
1911
1955
1982
1950
1840
1891
2073
1682
1423
2149
1544
-2595
-8775
-12286
-7640
1210
1639
-4388
-3300
403
-4314
-8066
-1783
4252
3216
2260
4128
3048
-1059
-1536
2041
3704
2629
2299
2677
2412
2212
2305
2164
2035
2067
2027
1956
1872
1806
1842
1730
1498
1433
1256
1221
1833
1299
-2799
-9025
-11805
-7468
-1004
544
-124
983
-1034
-6870
-7833
-2095
2461
2017
1037
2851
2298
-4366
-8401
-3100
3067
3140
1925
2474
2530
2171
2193
2076
2319
2187
-1052
-6472
-7934
-2381
3391
1458
-4950
-7748
-5718
-1599
2292
3361
2350
1884
-458
-5841
-7875
-5126
-4571
-5704
-2110
3169
4027
2947
3322
3619
3252
3365
3576
3459
3489
3510
3365
3485
3499
3189
3498
3700
2849
3401
4595
1289
-2569
908
5256
3250
2779
4443
-2373
-9343
-2837
3746
-504
-1557
1863
-2577
-5852
799
3558
-2314
-6098
-5957
-4297
13
3792
3445
1549
2369
4433
733
-6599
-5752
721
579
-1909
1403
4021
2111
1449
2233
1349
1220
2329
-97
-5448
-6263
-1071
2827
2155
1677
3038
1262
-4787
-8747
-7523
-6621
-8610
-7103
-1061
971
-1950
-3498
-4315
-4624
-955
1104
-2241
-1990
3328
4890
3245
3081
3352
3878
3208
-1498
-4440
-222
4356
3972
2971
3607
3569
3073
3322
3323
2831
3055
3340
2492
1785
1738
1288
1170
667
-2616
-6598
-8599
-8484
-4785
-785
-2505
-4126
870
3673
-1740
-6286
-3400
1993
3718
2762
3669
4026
-1367
-6192
-2263
3949
4401
2900
3371
3618
3090
3104
3185
2945
2848
2830
2679
2583
2751
2868
2500
2501
3063
477
-6425
-9118
-2428
2770
-1845
-6464
-4460
-3808
-5818
-3518
772
2765
3584
157
-5922
-4537
45
-3009
-5673
-1293
-360
-5110
-6887
-4921
-1409
3202
5128
3772
3337
3902
3352
2952
3403
2999
2369
3262
2609
-2514
-7137
-7265
-6996
-6455
-626
4883
1118
-4816
-2310
3426
4156
2583
2633
3020
2726
2226
1934
2297
2770
2562
2309
2599
2926
3054
3122
2679
1627
1364
2277
1462
-2869
-6918
-5486
629
3796
-957
-7271
-6676
-1815
-275
-3155
-5974
-5616
-4608
-4810
-1643
3840
2375
-3640
-2769
2847
4080
2538
2694
2965
2411
2378
2452
2152
2154
2218
1950
1946
2021
1690
1827
2044
1173
1473
2703
-1215
-7963
-7019
-335
2472
2302
1114
-3913
-7265
-3087
1717
1411
-956
-3953
-6651
-5090
-267
2382
2232
2113
2163
1446
887
1318
1918
1991
1900
1857
1811
1866
1664
1442
2104
1309
-3680
-7294
-3027
2379
104
-3746
-782
3692
1531
-4709
-7107
-3670
502
1149
-1344
-3918
-2967
-145
-1124
-3338
-567
3143
2684
1718
2424
2448
2043
2290
2315
2068
2118
2173
2129
2115
1999
1914
1903
1795
1843
1888
1566
1655
1922
1197
1329
2630
363
-4011
-2760
2040
2826
1052
590
1095
1983
-89
-6638
-8336
-935
2915
-2062
-3695
648
-231
-5942
-6062
-799
2334
1753
957
2172
2264
-2896
-8189
-5661
956
3645
2000
-2149
-6522
-5678
-21
3086
2399
2091
2290
2141
2301
1773
1592
3040
678
-6195
-6898
-312
2694
2091
2849
540
-3861
-3782
-3599
-5304
-1457
3065
-1130
-5471
-1549
2723
2256
1749
2442
2311
1934
1801
1526
1385
1216
928
1137
1541
1465
1334
1398
1271
1207
1328
1146
1139
1474
946
630
1881
774
-4525
-7079
-2468
3206
1863
-5797
-9186
-3173
1104
-2964
-4266
926
999
-5054
-6043
-775
2459
1557
1455
2973
1060
-3469
-3182
1405
3076
1887
1927
2435
2056
1888
2023
1897
1830
1895
1833
1712
1673
1733
1720
1617
1742
1890
1811
2047
2048
1008
944
1884
-845
-6540
-8650
-7831
-7936
-5306
234
351
-4399
-4206
1140
3535
1927
1850
3747
1994
-3044
-3370
1578
3950
2695
2463
3060
2711
2449
2566
2369
2204
2232
2114
2015
2074
2025
1901
1920
1869
1681
1753
1845
1502
1510
2101
1099
-3281
-8606
-9138
-3720
316
-1130
-2478
-1914
-3685
-5017
-1509
2105
1937
1365
1971
2166
2389
2985
2703
1857
1647
1751
1688
1679
1574
1484
1660
1403
1131
1913
1008
-3514
-5982
-2471
1506
2041
1785
709
-3509
-8132
-8326
-4159
208
2651
3170
-319
-6513
-7891
-4167
-3470
-5286
-2850
1552
2411
1548
1792
2033
1765
1780
1832
1665
1630
1664
1578
1524
1522
1462
1425
1394
1244
1184
1280
1123
979
1286
1121
637
1436
1351
-2801
-7625
-8677
-7523
-6816
-7353
-8292
-6305
-2222
-1330
-2124
-996
-1642
-4048
-2155
2116
3227
2603
2337
2490
3579
2361
-2921
-5383
-967
4522
5408
1874
-1232
556
4166
4928
4496
3274
-741
-3323
-427
3951
5907
5298
1493
-3315
-4240
-2543
-2738
-2516
1652
6042
7254
6874
4608
791
135
1740
996
1851
5935
5016
367
576
