# session 214
61
21
69
91
62
106
85
-53
74
242
8
78
342
-261
-209
943
-756
-4546
-4532
-2437
-3409
-4193
-1076
1649
4
-2730
-1872
290
-1148
-3317
-1386
1287
963
267
731
751
461
605
643
507
553
595
551
566
585
573
586
619
665
696
693
719
742
706
665
573
478
556
476
188
511
635
-1763
-5679
-7061
-5008
-2305
-564
509
936
806
778
898
727
496
587
720
650
606
665
629
537
557
583
509
526
675
769
866
951
661
142
38
293
358
287
346
345
281
405
418
218
383
514
120
420
994
-741
-3687
-4415
-3158
-1481
377
1337
968
742
962
852
655
652
566
444
410
354
315
341
327
263
221
228
288
322
259
217
288
361
361
312
260
260
255
198
236
303
217
255
416
267
237
566
456
476
1141
312
-1898
-2503
-2422
-3217
-2223
371
889
45
237
523
253
281
411
289
274
351
343
368
418
415
436
506
546
535
504
468
439
395
292
191
195
175
99
200
253
28
162
418
-708
-2641
-3270
-3136
-3711
-3268
-121
2074
-1294
-6510
-5775
-1104
-639
-3444
-3518
-1436
111
1373
1958
1568
1516
1813
1783
1919
2078
1607
1100
1139
1232
1133
1104
1111
1035
993
1018
1036
1033
985
909
928
965
875
897
1016
880
926
1227
826
692
1737
766
-2465
-2306
505
-485
-3048
-1490
1198
1123
533
876
875
656
773
804
726
762
751
720
791
791
670
611
605
550
535
545
453
425
505
403
381
609
412
398
1428
716
-3544
-6955
-6762
-6354
-6161
-2713
1540
856
-2644
-2728
-982
-2656
-5060
-3457
-1132
-1471
-1195
1077
2217
1810
1759
1955
1825
1796
1886
1823
1754
1739
1644
1512
1446
1384
1254
1173
1164
1047
996
1112
877
676
1235
744
-2049
-3670
-1581
1163
1693
990
828
1458
1139
-1392
-4517
-6605
-6470
-2604
1325
59
-2355
-467
1849
1617
1666
1260
-1164
-1860
537
2260
1960
1292
935
848
928
861
734
751
761
714
713
725
728
763
806
830
859
919
973
966
974
1048
1018
898
893
767
486
743
681
-2264
-6940
-7796
-4014
-1735
-2831
-2324
596
1761
1118
1349
2000
1963
2080
2686
2887
2282
1330
602
277
184
155
130
88
55
43
17
-14
-68
-196
-276
-259
-346
-485
-475
-511
-546
-313
-311
-370
493
254
-3734
-7512
-5598
-1052
261
-635
-410
395
528
460
501
479
493
552
512
471
561
675
676
612
568
537
514
531
563
537
468
439
447
464
511
510
526
726
732
482
713
790
116
702
1400
-2270
-6637
-4716
-924
-1329
-2033
-937
-1098
-984
1012
1580
319
78
574
493
448
671
670
623
719
753
723
741
763
757
751
735
722
746
782
796
812
829
837
881
935
905
831
804
791
733
634
548
491
358
250
371
9
-1672
-3495
-3927
-3475
-2331
-84
1107
-97
-788
21
-236
-912
150
1233
868
640
962
886
764
927
861
794
1080
1145
1124
1629
1579
603
691
1067
-1486
-5394
-6674
-5737
-4375
-2045
1152
2355
-1126
-5984
-5194
-271
379
-2588
-1925
1449
2417
1793
1943
2114
1868
1868
1942
1811
1729
1700
1560
1442
1420
1312
1208
1318
1259
997
1196
1317
939
1674
2510
154
-2340
12
3209
2349
766
876
655
690
1173
-886
-4650
-6664
-6813
-5203
-1956
-469
-1947
-3080
-2530
-1428
84
1265
820
14
735
1504
464
-338
941
2135
1788
1448
1647
1578
1439
1493
1408
1299
1348
1364
1355
1343
1241
1232
1241
1055
1127
1286
842
930
1669
-137
-4101
-5395
-4688
-6133
-7017
-3639
-415
-1341
-2811
-1886
-387
936
2029
709
-2054
-1731
1147
2170
1440
1400
1633
1421
1394
1485
1358
1303
1332
1238
1223
1353
1414
1567
1911
1843
1132
603
694
804
676
712
806
648
625
749
460
471
1085
-411
-4941
-7815
-5982
-2981
-2343
-3385
-4067
-2873
-620
429
1034
1320
-1736
-4840
-2059
1240
-972
-2542
304
1947
956
827
1292
1010
868
1024
936
870
923
858
817
932
1022
1004
963
907
823
817
845
744
688
772
697
631
751
472
288
1078
1072
-459
-519
703
-259
-1746
-560
900
489
126
439
366
232
387
381
295
352
377
354
366
368
396
471
508
528
601
683
704
689
694
638
468
392
379
207
244
418
-25
-82
817
-879
-5977
-7726
-3244
884
800
-9
402
649
599
819
1041
1193
1424
1636
1776
1745
1390
852
389
90
-33
-24
-2
-24
-50
-49
-53
-110
-159
-129
-123
-154
-130
-266
-474
-294
-262
-650
-156
416
-1660
-5164
-6992
-7026
-5010
-1177
231
-1913
-2487
-594
-724
-2283
-1171
1303
1771
1210
1416
1703
1604
1586
1593
1511
1499
1500
1469
1446
1381
1346
1329
1255
1334
1364
1043
1215
1825
849
-1286
-1259
1100
2218
707
-703
-194
523
1122
2194
-115
-5607
-5596
-383
83
-3117
-3122
-2319
-2499
-714
1328
1763
1437
-1532
-4748
-2001
1993
-205
-2863
-173
2568
2066
1631
2061
1927
1760
1941
1928
1840
1872
1876
1883
1875
1761
1634
1552
1525
1440
1129
1096
1508
226
-4284
-8039
-5967
-977
243
-1711
-2341
-1313
617
2449
443
-4276
-4213
1029
3277
155
-2186
-418
1956
2017
1427
1701
1730
1326
1522
1559
1063
1732
2403
232
-2160
-1167
1014
1847
1181
-1756
-5631
-7299
-6339
-3447
341
2203
1502
996
1783
2088
594
-1867
-3411
-2839
-498
1738
2273
1852
1865
2047
1906
1818
1839
1695
1519
1449
1374
1312
1316
1250
1154
1185
1161
1070
1172
1100
864
1371
1270
-2194
-6774
-6778
-2079
1859
1873
-1234
-5527
-7556
-4736
-793
-754
-1967
-5
2517
2099
1174
2269
2618
101
-1444
634
2495
1781
1231
1755
1765
1455
1476
1513
1532
1474
1302
1387
1390
1118
1476
1522
-1249
-5512
-6954
-5688
-5942
-6948
-3483
2083
2243
-884
-855
-63
-1708
-2613
-1676
-1284
-1908
-2376
-1205
1405
2809
2399
2000
1980
1989
2057
1991
2218
2380
1131
-40
1004
2337
2047
1578
1736
1774
1643
1532
1575
1674
1283
1237
1981
636
-3561
-6466
-6387
-5595
-5515
-6402
-6011
-1550
2139
-567
-3499
-785
1152
-1407
-1991
1503
3526
1815
-324
67
2041
2856
2356
2186
2344
2216
2156
2256
2213
2131
2129
2089
1985
1868
1757
1653
1537
1424
1366
1331
1255
1204
1236
1162
956
965
965
-245
-3316
-6660
-7279
-4293
-886
-718
-3106
-4142
-2016
940
1708
830
1105
1911
163
-2331
-1302
1424
1867
1187
1389
1600
1479
1476
1188
745
788
987
899
871
986
867
779
950
703
496
1281
507
-3964
-7629
-7036
-6537
-7597
-5309
-1323
-1443
-2500
-606
-402
-2619
-1465
1923
2473
1579
1840
2023
1645
1625
1709
1572
1534
1582
1507
1412
1472
1477
1262
1318
1518
1105
1091
1942
760
-2684
-3622
-662
2316
2029
-1797
-4950
-2495
1968
1981
843
2493
784
-5478
-6074
-454
676
-2150
-1497
-482
-2268
-1545
1662
2085
1259
1874
1410
-25
602
2044
1983
1620
1878
1871
1633
1658
1670
1593
1639
1694
1711
1753
1709
1685
1768
1633
1447
1525
1225
881
1590
1022
-3172
-6613
-4196
1165
2571
-2099
-7114
-5775
-1209
-933
-3059
-2660
-2282
-2986
-869
2324
2529
2110
2557
1898
2154
3191
-345
-4738
-2298
817
-1810
-2649
1422
3308
2339
2411
2917
3347
2836
-1101
-4150
-968
1896
-2027
-6479
-6320
-5271
-5218
-5057
-4759
-2176
2685
3815
673
-137
989
-694
-2577
-1961
-2025
-2372
356
3632
3967
3209
3303
3381
3009
2778
2892
2818
2376
2566
2988
1626
-197
526
2358
2601
1976
1870
2222
2078
1362
2012
2714
-507
-3846
-2005
-1075
-5250
-6307
-962
3160
2121
-2004
-6378
-7019
-3447
-670
-779
-1837
-2250
-231
1798
-1356
-4983
-2017
2403
3378
3183
292
-4045
-2248
2184
-110
-4357
-2270
2096
3004
2418
2653
2647
2329
2725
2484
-375
-3956
-3912
204
3358
2637
2182
3716
1301
-4046
-2406
3080
-100
-7007
-5287
-394
-1080
-2815
-2547
-2934
-1893
1514
3117
2505
1760
776
618
1967
2566
1995
1994
2301
2085
1926
1993
1841
1738
1862
1716
1539
1783
1613
1211
1905
1761
-1453
-4891
-6314
-6637
-4195
746
2630
1118
-165
-3129
-6473
-3731
464
-2134
-4622
-469
1684
-1880
-2483
1282
2738
1755
1913
2529
2197
1964
2450
2319
1064
669
1914
2682
2253
2012
2050
1870
1822
1745
1563
1877
1696
-832
-4387
-5049
-2007
850
1436
2097
2504
-598
-5198
-7225
-7102
-4759
259
3185
1263
-1626
-3389
-3698
-534
2587
56
-3375
-1022
2864
2716
1353
2302
2983
154
-2938
-1277
2621
3378
2003
1713
2084
2011
1824
1940
2041
1582
1596
2503
752
-4374
-6944
-5920
-6240
-5704
-1018
1654
672
2079
2135
-3803
-6213
-1564
-54
-2281
-1940
-2195
-3556
-729
1564
-1466
-2177
2336
4468
2677
2261
3702
2902
-227
-758
1269
-172
-3849
-2487
2393
3674
2093
2647
3648
1067
-1716
-243
2403
3065
2861
1146
-2729
-5755
-4569
518
2598
-2315
-4335
988
1034
-5144
-3910
1751
713
-2951
-3613
-2991
-792
1672
1380
1089
2485
2952
2756
2302
539
58
2069
3010
2266
2214
2491
2255
2180
2220
2179
2263
2166
2151
2393
1958
1819
2863
1102
-4245
-5049
813
3129
-2172
-6737
-6291
-4035
-336
3306
1165
-3589
-2404
857
-1008
-3913
-3564
-1718
-177
-1637
-4637
-2055
2833
433
-4085
-1418
3315
3562
2589
2968
2954
2562
2641
2602
2431
2501
2371
2193
2424
2365
2240
3142
2920
-898
-4668
-3338
1314
3114
-311
-4266
-3118
1344
2763
-410
-4190
-5372
-5128
-6134
-7007
-4516
-867
-508
-2373
-3295
-3258
-2116
1477
4691
1785
-4862
-5094
958
1857
-2679
-2206
2649
3996
2818
2954
3202
2885
2887
2769
2697
2833
2413
2635
3516
1079
-4245
-6646
-6130
-6198
-4027
2389
6144
1938
-4427
-5026
-701
3078
3745
1199
-2037
-1483
2029
3154
1886
1867
2299
1720
2462
3241
-1016
-6326
-3807
2392
2086
-2726
-4884
-3790
-797
2765
3940
3009
2852
3140
2646
2576
2963
1165
-3233
-5743
-3114
1002
2732
3448
2554
-2062
-6231
-7026
-7253
-5213
473
2521
-1280
-4153
-4294
-3184
176
3258
3241
2713
2830
2613
3200
2917
-379
-1848
1291
3460
2424
1972
2489
2191
2009
2223
1863
2020
2684
407
-4517
-5767
-1488
2409
2799
2325
2311
2328
2488
2001
1187
1501
842
-3097
-7665
-9046
-5787
-290
1899
13
-1838
-3502
-5150
-2957
1831
3513
2526
2456
2892
2668
2469
2547
2545
2461
2435
2427
2297
2319
2504
2142
1984
2881
1556
-3717
-6193
-1238
3590
1201
-3640
-5455
-6373
-7631
-7562
-7320
-7352
-6464
-6722
-7014
-2251
2979
1146
-2558
-2914
-3477
-2831
1855
4978
4424
4153
4043
4284
5283
2001
-3003
-250
4433
994
-2113
2367
5496
3940
3820
4330
3550
4691
4285
-2441
-6481
-259
5228
-38
-7765
-8374
-5531
-5000
-4166
597
5046
4659
3996
5324
994
-7566
-7353
-356
627
-2120
-2286
-3291
-3620
-275
547
-854
2334
5982
4916
3777
4547
4296
3644
3873
3811
3241
2821
2614
2867
3150
2514
2260
3193
1311
-4581
-6499
-520
4132
1091
-2700
-1056
2590
3569
860
-4347
-8546
-8780
-7126
-7746
-9055
-5837
-367
602
-1678
-2911
-4019
-4211
-284
4766
4920
821
-1081
1603
4093
3614
3080
3605
3557
3329
3485
3278
3169
3345
2845
2798
3472
813
-5033
-6664
-2103
2724
4638
3332
-489
-1075
3626
4783
-1780
-7938
-8464
-7110
-7536
-8520
-6534
-2308
-1484
-3416
-920
3520
494
-5611
-2494
5425
4688
-588
1375
3993
-2748
-8132
-1771
4402
-291
-6264
-3695
2578
5439
5198
4642
4677
4829
4402
4190
4907
4326
1768
605
2157
4593
5056
420
-6025
-7873
-7828
-8262
-3727
2602
2711
525
-607
-3764
-4037
1794
4906
3083
3115
3756
2522
3731
3998
-3102
-8031
-2642
1595
-1217
-682
4332
5155
3041
3550
4673
2193
-3384
-6879
-3521
3336
4804
640
-698
411
-3605
-8754
-7656
-6394
-8593
-6018
-117
217
-168
3192
1526
-4097
-1864
5176
6698
4894
4671
4346
3335
3132
3301
3194
2875
2571
2644
2593
2367
2858
2135
-2349
-6930
-5663
220
3531
522
-4995
-7915
-8269
-7982
-7407
-7337
-7104
-4218
-1248
-2982
-5915
-3485
2037
4448
3864
3612
3869
3678
3500
3514
3400
3359
3389
3352
3476
3418
3065
3426
3768
1239
-4099
-7379
-4355
1993
4568
3272
3240
2855
-1144
-3226
814
4785
2567
-3748
-8615
-8876
-5654
-3023
-3830
-5961
-4572
494
4030
3894
3139
3501
3788
3577
3778
4272
3998
3807
4758
3606
-2062
-7032
-6441
-4374
-5584
-6033
-1016
4277
4303
3712
4787
2191
-1049
1250
2005
-3868
-8200
-7855
-7182
-5471
-1922
288
-229
-2971
-4580
-434
5303
4502
414
993
4201
4696
3810
3937
4114
3963
4107
4179
4110
4197
4056
3970
4324
4009
3569
4712
3858
-2591
-8331
-7764
-6828
-8031
-3799
3488
1169
-7772
-7933
-186
1709
-3366
-5974
-3029
2293
5571
3635
528
1742
3769
3810
4954
3309
-4014
-6369
-1270
-1110
-4860
-1250
5086
5157
3768
5159
4155
-844
-4924
-5519
-2989
2083
6106
3935
-3015
-7279
-6497
-5456
-6078
-6047
-5762
-6095
-5319
-4681
-5805
-4441
356
2347
819
-20
-1160
-3543
-3432
797
6066
7016
1795
-1978
1981
6419
5170
4606
6301
2873
-2661
-1275
3961
6229
5033
391
-4030
-1410
4527
5803
4770
5022
4835
5236
5812
1287
-5975
-8101
-6959
-7582
-5531
1990
5904
752
-4295
-3260
-3198
-5086
-2209
108
-4246
-5673
172
4080
3534
2067
507
1002
1604
-2388
-4821
219
5000
4449
3601
4328
4439
3973
3729
4116
4135
963
-4810
-7964
-5325
593
4632
4625
3582
4123
4252
3166
3773
4413
-20
-6916
-10169
-9826
-7453
-4831
-5571
-6291
-1987
26
-5085
-6782
-477
4104
3346
2706
3214
2930
2703
2977
2969
2896
2928
2817
2773
2748
2598
2703
2890
2817
2991
2977
1983
1641
2406
1259
-1260
-846
1640
2239
1436
1304
1567
1232
465
1162
2097
-3017
-12153
-12916
-5414
-3208
-7089
-8092
-8118
-9841
-6828
54
2660
1784
1463
1292
2387
2150
-5311
-11877
-7139
-1637
-4762
-5427
1082
4375
2833
2644
3285
2895
2775
2860
2754
2713
2415
2702
3006
-1024
-8872
-11889
-6317
885
3527
3026
2758
3253
3076
2357
3311
3607
-2567
-10952
-10938
-4845
-2447
-3472
-4603
-7292
-8243
-2696
4091
5655
4392
4259
5070
4969
3850
4599
5893
1437
-4771
-2218
4881
6146
4347
4953
5556
4966
5117
5391
4996
4951
5103
4693
4556
4796
4141
4003
5263
2037
-7530
-12041
-5979
-818
-2255
-2437
149
742
1268
4086
5851
4209
1496
1677
4340
5212
4700
5092
4281
3923
6349
3493
-5204
-4709
4189
4367
-3439
-7594
-7464
-3872
2201
3373
-691
-3488
-5800
-9119
-8796
-4906
-4746
-8863
-7956
-1251
457
-2606
-1361
160
-3968
-4892
2635
7813
3981
757
3400
998
-7492
-6920
-359
-3545
-8162
-1384
5469
4003
2633
3283
2295
2299
2155
-3119
-10098
-12513
-9127
-1441
2727
-5099
-15325
-12070
-2148
460
