# session 128
-2
26
16
-26
-33
19
72
96
126
176
224
259
283
317
370
407
408
407
401
351
277
223
175
116
69
46
35
30
29
17
-2
3
33
39
14
19
75
121
116
84
50
19
3
5
1
-19
-16
11
-19
-70
-6
99
183
449
717
448
-130
-317
-195
-202
-254
-216
-211
-239
-228
-227
-247
-243
-232
-235
-223
-198
-180
-151
-99
-46
4
61
106
119
119
110
75
19
-33
-71
-105
-128
-120
-96
-84
-87
-97
-104
-80
-39
-2
54
127
229
436
679
796
910
1167
1252
880
306
-127
-373
-462
-451
-449
-475
-475
-454
-447
-459
-476
-488
-499
-520
-543
-546
-520
-468
-398
-311
-180
-13
121
200
263
303
291
244
200
167
139
119
110
111
108
104
111
117
111
108
114
109
91
73
52
36
23
-6
-44
-57
-41
-28
-30
-13
43
93
95
71
58
52
34
24
35
31
12
23
23
-6
51
170
267
494
742
507
-81
-319
-163
-74
-111
-123
-127
-143
-139
-126
-131
-154
-157
-121
-102
-121
-108
-46
4
30
79
150
204
223
215
194
163
106
21
-64
-126
-165
-196
-230
-246
-234
-226
-226
-210
-195
-192
-178
-168
-152
-87
-29
-67
-133
-141
-139
-152
-136
-120
-151
-158
-107
-111
-137
-14
161
270
454
524
117
-370
-367
-149
-127
-153
-95
-69
-86
-85
-66
-45
-32
-28
-10
11
27
66
119
170
253
356
422
465
496
470
401
340
257
144
74
54
31
6
-3
-20
-40
-52
-59
-44
-4
16
25
93
235
428
661
854
974
1194
1504
1479
936
284
-124
-327
-401
-392
-394
-411
-404
-412
-449
-475
-499
-534
-567
-608
-659
-696
-724
-745
-722
-639
-517
-373
-219
-72
49
125
146
131
109
87
59
30
20
27
22
1
-16
-19
-14
-4
2
-6
-20
-37
-46
-37
-45
-84
-105
-89
-80
-98
-116
-100
-45
6
4
-34
-59
-69
-83
-91
-98
-112
-89
-59
-93
-73
67
165
336
720
771
178
-329
-289
-170
-220
-218
-181
-206
-211
-180
-163
-142
-124
-117
-87
-53
-34
16
94
156
208
264
326
398
441
431
402
369
302
220
162
128
93
57
46
53
49
29
10
10
42
77
69
39
54
98
101
56
8
-26
-63
-86
-75
-82
-112
-104
-102
-146
-98
37
134
359
668
515
-61
-343
-226
-157
-181
-156
-144
-151
-129
-126
-146
-138
-115
-95
-59
-32
-27
8
74
120
147
196
255
280
259
228
193
125
44
-9
-47
-78
-90
-102
-118
-110
-100
-124
-143
-118
-83
-43
32
102
198
442
698
801
1008
1387
1379
779
119
-256
-450
-533
-534
-539
-556
-557
-556
-555
-552
-570
-598
-612
-629
-654
-667
-658
-628
-567
-479
-367
-229
-94
5
77
121
118
92
73
44
6
-9
-7
-8
-5
2
2
6
22
32
35
30
24
37
54
44
46
79
74
26
13
48
87
102
97
106
145
160
124
83
65
52
43
46
49
43
48
66
57
49
115
222
340
480
442
79
-248
-219
-77
-70
-93
-77
-81
-95
-91
-89
-91
-77
-51
-31
-20
-4
30
80
137
189
232
281
337
370
366
346
324
282
222
159
98
49
23
7
-6
-8
-20
-43
-42
-34
-14
79
189
271
494
845
1059
1220
1504
1508
909
154
-277
-442
-515
-542
-571
-616
-646
-660
-672
-690
-715
-745
-790
-844
-866
-857
-857
-831
-721
-565
-420
-264
-106
-10
35
63
45
-4
6
87
211
367
480
609
963
1428
1623
1445
972
321
-172
-324
-359
-416
-418
-397
-423
-449
-453
-470
-510
-562
-626
-683
-707
-718
-707
-609
-433
-250
-83
55
135
182
222
211
163
142
131
96
79
92
88
77
92
103
88
79
91
100
96
96
105
108
104
102
106
109
100
82
68
58
43
33
36
33
24
32
55
90
135
170
210
269
300
360
581
856
1059
1221
1076
344
-473
-739
-625
-505
-383
-265
-235
-242
-239
-233
-195
-128
-103
-148
-211
-240
-245
-251
-221
-150
-103
-59
56
167
171
146
182
224
228
210
166
117
106
106
72
19
-14
-22
-29
-45
-50
-40
-10
53
115
189
369
602
760
979
1295
1280
748
144
-202
-374
-433
-406
-411
-454
-452
-446
-480
-502
-517
-579
-645
-677
-721
-766
-752
-680
-570
-427
-273
-93
122
275
291
247
213
162
95
57
37
20
30
44
25
6
11
16
18
18
6
3
11
-1
-21
-25
-31
-41
-41
-45
-54
-50
-37
-26
-17
-16
-1
39
48
11
-5
20
36
29
25
28
29
23
13
3
-2
0
3
5
15
27
24
16
9
-2
8
43
57
39
48
106
163
172
141
107
81
67
80
102
95
98
128
122
116
206
363
564
727
552
66
-202
-94
14
-10
-22
-25
-54
-57
-53
-78
-88
-60
-40
-46
-43
-15
8
18
46
102
164
211
236
238
222
191
142
83
19
-48
-107
-151
-185
-209
-218
-217
-208
-197
-189
-179
-156
-124
-101
-94
-89
-67
-43
-56
-107
-153
-168
-178
-188
-175
-170
-187
-169
-146
-176
-136
25
164
300
401
144
-347
-477
-253
-150
-185
-159
-131
-138
-129
-128
-135
-108
-82
-74
-44
-9
2
37
114
180
240
337
434
476
471
437
360
246
129
29
-49
-103
-134
-149
-147
-135
-124
-121
-108
-65
-18
-15
-36
-20
32
63
36
-20
-54
-67
-93
-108
-76
-45
-53
-71
-94
-70
74
215
279
414
456
98
-308
-281
-72
-40
-73
-53
-42
-44
-32
-18
-16
-30
-22
22
46
43
66
111
150
207
301
386
424
434
416
352
270
194
90
-32
-97
-110
-134
-166
-179
-188
-204
-206
-180
-145
-134
-151
-152
-109
-63
-55
-81
-119
-151
-172
-180
-162
-138
-152
-154
-113
-121
-127
15
168
245
417
474
69
-366
-332
-152
-166
-190
-150
-161
-180
-151
-134
-130
-109
-92
-86
-70
-35
3
29
65
155
268
327
339
352
340
284
205
107
17
-31
-65
-107
-136
-166
-191
-182
-169
-179
-164
-109
-68
-19
86
221
379
603
815
963
1211
1548
1572
1096
442
-55
-340
-450
-458
-463
-486
-499
-508
-523
-546
-574
-593
-607
-636
-666
-684
-699
-701
-668
-584
-452
-299
-151
4
146
220
232
232
223
193
165
152
141
132
129
114
92
93
108
108
95
88
88
91
91
88
89
77
36
13
50
80
54
47
99
133
111
68
34
21
14
-3
-18
-24
-20
-7
-31
-56
6
79
170
436
606
255
-260
-354
-209
-190
-204
-162
-159
-170
-142
-119
-117
-110
-100
-90
-68
-34
4
44
89
139
181
221
271
311
320
309
278
224
161
101
49
18
5
-11
-24
-21
-19
-32
-40
-20
6
9
2
20
58
73
44
-4
-31
-32
-47
-79
-87
-78
-84
-90
-108
-128
-74
19
97
229
268
-28
-380
-378
-227
-236
-267
-199
-166
-199
-202
-174
-172
-183
-167
-121
-68
-28
6
50
111
174
226
275
323
344
323
277
214
120
19
-53
-106
-143
-153
-157
-162
-150
-149
-187
-202
-163
-138
-153
-149
-101
-52
-42
-53
-54
-64
-91
-93
-50
-18
-43
-64
-34
-12
15
123
231
329
557
641
214
-290
-303
-104
-99
-146
-105
-78
-84
-74
-64
-65
-57
-36
-24
-16
17
62
96
146
215
276
346
423
444
411
363
286
174
77
12
-50
-105
-122
-105
-102
-127
-131
-97
-58
6
112
198
338
664
1008
1212
1495
1837
1700
934
99
-358
-508
-556
-575
-571
-577
-605
-622
-629
-661
-702
-724
-756
-810
-860
-892
-894
-848
-757
-628
-466
-283
-106
28
96
127
144
116
62
39
41
34
15
-12
-13
31
42
-8
-24
7
-1
-33
-23
-10
-21
-14
2
-6
-2
23
26
18
35
52
42
25
46
111
159
149
117
94
72
54
57
61
48
51
69
40
26
123
204
304
670
942
531
-118
-249
-89
-101
-142
-85
-76
-111
-99
-77
-79
-71
-55
-54
-47
-27
-11
21
81
129
160
214
266
289
303
297
256
221
190
114
38
13
-8
-50
-72
-71
-75
-85
-102
-106
-68
-14
35
96
218
450
695
785
867
1155
1311
920
271
-155
-350
-458
-483
-469
-491
-517
-513
-510
-526
-536
-541
-564
-597
-610
-608
-613
-601
-545
-459
-346
-195
-49
46
111
157
153
111
72
43
19
-2
-19
-25
-23
-32
-41
-30
-18
-19
-11
-3
-14
-21
-2
17
19
15
11
-1
-10
3
23
23
18
47
96
110
71
29
20
10
-21
-31
-18
-22
-28
-24
-48
-36
78
212
378
582
502
44
-270
-172
-23
-28
-38
-16
-26
-32
-16
-20
-40
-39
-21
-8
4
26
50
82
132
192
254
317
368
400
416
403
350
275
209
157
94
22
-21
-36
-62
-76
-58
-52
-70
-73
-68
-76
-81
-52
12
55
31
-22
-53
-77
-103
-108
-94
-93
-110
-101
-90
-127
-109
23
136
288
532
426
-156
-518
-377
-249
-322
-339
-288
-294
-309
-283
-267
-272
-247
-199
-180
-180
-144
-72
-3
58
126
201
273
328
349
335
279
174
52
-35
-88
-130
-156
-163
-169
-173
-166
-169
-183
-170
-121
-97
-113
-100
-30
31
37
16
-9
-36
-52
-46
-32
-34
-38
-10
-12
-90
-68
129
261
309
428
347
-83
-342
-197
-71
-113
-105
-61
-79
-83
-58
-63
-64
-32
-15
-12
21
69
103
140
195
254
318
382
416
408
380
338
263
155
54
-4
-30
-60
-93
-106
-108
-106
-99
-97
-81
1
118
208
364
674
988
1231
1571
1891
1730
1014
217
-287
-486
-525
-529
-544
-556
-560
-571
-582
-587
-612
-660
-686
-696
-735
-769
-746
-689
-600
-449
-283
-153
-28
87
134
130
145
170
155
107
76
75
69
49
43
42
21
0
-6
-18
-36
-48
-63
-76
-81
-88
-95
-94
-95
-103
-111
-121
-120
-99
-87
-101
-91
-29
25
20
-19
-47
-61
-76
-83
-76
-95
-118
-96
-89
-112
-53
55
177
427
569
212
-299
-380
-204
-160
-183
-160
-146
-138
-129
-136
-121
-89
-86
-82
-37
11
40
75
124
179
231
270
302
345
364
311
249
250
242
155
69
54
60
44
29
37
53
48
35
47
84
141
212
266
367
604
833
914
1000
1083
864
382
6
-155
-227
-260
-273
-293
-313
-325
-339
-355
-375
-404
-436
-466
-498
-521
-532
-538
-512
-423
-302
-186
-58
76
174
220
219
196
203
236
295
427
531
558
766
1175
1383
1325
1175
763
114
-305
-391
-421
-460
-464
-475
-490
-505
-548
-603
-649
-707
-765
-786
-789
-802
-762
-611
-414
-255
-132
-24
54
85
80
74
67
31
-8
-14
-8
-2
10
-3
-32
-20
11
6
-7
1
-2
-12
-6
1
5
19
28
19
6
0
6
21
28
16
2
-4
-5
4
15
5
-12
-11
4
26
41
32
16
18
25
36
46
27
6
27
40
7
-7
26
35
-6
-31
7
80
140
154
124
85
72
90
112
105
98
120
102
68
174
351
477
680
788
384
-193
-292
-113
-111
-163
-115
-101
-134
-117
-81
-69
-51
-29
-17
1
24
41
72
117
154
206
274
302
294
297
288
249
218
184
116
57
28
-19
-71
-88
-95
-112
-106
-91
-115
-150
-137
-94
-82
-103
-101
-61
-30
-28
-35
-76
-149
-176
-134
-110
-147
-179
-165
-179
-238
-213
-96
36
279
480
198
-353
-500
-306
-251
-289
-238
-205
-218
-197
-175
-173
-157
-139
-133
-121
-101
-71
-32
7
60
133
204
259
294
303
289
243
159
67
-4
-63
-109
-122
-108
-88
-72
-73
-86
-74
-41
-30
-38
-30
-4
33
75
84
47
11
2
-2
1
22
25
10
19
6
-54
-26
106
192
313
503
382
-83
-307
-142
-11
-34
-39
-19
-8
15
35
31
26
58
70
-77
-311
-380
-281
-197
-134
-26
74
137
204
265
282
267
230
164
92
42
20
22
29
16
6
22
22
11
45
108
157
208
270
401
653
863
939
1109
1312
1082
457
-15
-177
-253
-299
-302
-336
-393
-405
-400
-422
-448
-460
-486
-527
-545
-539
-554
-582
-556
-475
-395
-298
-151
-24
28
50
70
49
-4
-47
-74
-96
-109
-112
-110
-107
-106
-100
-91
-94
-101
-96
-95
-105
-99
-82
-88
-106
-108
-111
-136
-152
-130
-108
-113
-103
-48
10
29
8
-27
-36
-27
-37
-42
-28
-30
-23
-19
-58
-22
148
305
479
663
455
-117
-367
-171
-49
-107
-110
-76
-86
-81
-56
-53
-58
-43
-24
-17
-1
48
107
142
182
262
362
456
527
549
533
511
454
349
255
194
122
42
-10
-39
-57
-57
-72
-106
-83
8
90
147
246
480
832
1088
1181
1369
1592
1341
605
-8
-248
-351
-412
-395
-390
-440
-471
-473
-488
-504
-515
-551
-601
-634
-645
-661
-689
-686
-605
-456
-292
-156
-52
48
132
159
136
96
57
37
31
11
-1
12
7
-20
-22
-2
4
-12
-39
-51
-48
-63
-91
-95
-84
-83
-91
-114
-143
-137
-113
-131
-165
-133
-49
5
-1
-34
-53
-57
-75
-82
-65
-73
-85
-70
-95
-95
39
169
307
621
702
165
-380
-364
-190
-214
-237
-196
-208
-220
-194
-194
-203
-173
-138
-120
-107
-94
-69
-17
46
118
209
299
364
382
372
387
402
331
211
129
72
9
-41
-69
-68
-55
-75
-99
-71
-21
13
35
39
41
84
129
121
81
43
9
-3
7
11
0
3
26
7
-35
30
152
237
433
634
414
-54
-188
-31
47
27
