# session 32
-16
-32
-87
-131
-117
-93
-109
-131
-127
-118
-120
-122
-129
-139
-141
-139
-149
-167
-168
-155
-151
-157
-162
-153
-128
-107
-104
-101
-86
-73
-63
-62
-77
-90
-75
-47
-46
-68
-58
5
65
76
50
20
2
-2
-16
-36
-30
-32
-61
-56
-54
-110
-53
146
276
433
664
471
-164
-453
-245
-135
-214
-201
-151
-170
-176
-155
-156
-151
-126
-111
-103
-84
-66
-59
-37
12
61
108
181
259
318
378
426
416
382
366
325
242
162
81
-9
-59
-64
-87
-124
-127
-113
-111
-97
-67
-56
-55
-38
-22
-21
-6
23
12
-28
-16
55
109
107
82
54
20
1
15
24
13
14
27
43
42
-6
-1
150
331
528
761
644
44
-367
-248
-90
-136
-146
-94
-91
-95
-87
-96
-95
-74
-74
-85
-76
-56
-48
-38
-13
17
51
100
160
215
253
266
263
245
185
86
-4
-71
-134
-178
-195
-202
-212
-219
-222
-217
-204
-183
-164
-159
-158
-149
-147
-149
-129
-109
-136
-173
-141
-65
-33
-57
-96
-141
-164
-144
-138
-162
-141
-101
-115
-114
-90
-121
-79
96
234
403
613
407
-177
-411
-208
-107
-164
-149
-118
-134
-127
-111
-122
-119
-93
-76
-76
-68
-43
-7
25
46
78
135
197
250
307
353
359
344
329
293
225
145
68
8
-22
-33
-35
-26
-16
-16
-16
-6
10
30
43
29
2
-7
1
11
12
7
35
98
127
108
98
86
51
48
66
46
38
61
49
40
59
28
21
126
225
362
586
490
-38
-369
-252
-136
-162
-124
-78
-128
-167
-147
-125
-107
-85
-79
-68
-34
-15
-21
-14
17
52
89
132
183
238
282
313
342
349
310
237
145
45
-32
-76
-113
-152
-177
-188
-207
-242
-270
-268
-252
-242
-242
-248
-247
-230
-219
-225
-218
-185
-143
-110
-101
-109
-118
-132
-142
-122
-92
-82
-69
-42
-29
-16
0
-36
-71
-19
56
142
277
223
-136
-387
-282
-124
-107
-101
-61
-42
-24
12
34
49
73
91
93
95
108
117
124
142
174
211
258
317
346
297
197
129
118
126
123
101
55
11
-6
-28
-82
-122
-120
-109
-102
-88
-77
-77
-79
-70
-48
-36
-54
-70
-50
-22
-23
-28
10
70
85
50
15
-1
-1
11
10
0
13
16
-6
10
17
-36
7
164
287
499
759
545
-76
-343
-173
-96
-156
-133
-104
-136
-148
-133
-129
-121
-92
-55
-37
-53
-66
-39
-1
16
45
109
166
196
239
303
332
323
325
310
220
96
4
-65
-121
-138
-128
-146
-204
-252
-235
-195
-200
-222
-204
-169
-166
-189
-200
-174
-139
-138
-170
-191
-158
-71
2
3
-35
-58
-62
-46
-25
-32
-36
-24
-33
-36
-37
-84
-32
181
338
493
719
535
-113
-439
-247
-112
-158
-153
-125
-132
-126
-115
-102
-83
-84
-80
-53
-46
-40
7
46
53
85
153
210
258
319
380
419
422
382
315
247
176
86
8
-37
-71
-98
-99
-90
-92
-88
-67
-58
-76
-94
-82
-59
-61
-79
-83
-79
-87
-114
-131
-101
-41
-17
-36
-60
-88
-111
-100
-85
-95
-86
-65
-77
-61
-23
-73
-68
123
289
475
859
894
229
-326
-253
-102
-153
-153
-118
-150
-151
-119
-126
-134
-119
-120
-127
-105
-68
-48
-52
-50
-9
62
127
173
215
263
306
327
303
243
177
114
41
-29
-73
-96
-111
-116
-113
-106
-84
-56
-50
-64
-75
-77
-82
-90
-106
-135
-158
-150
-130
-127
-122
-88
-30
20
28
4
-9
-7
-21
-46
-43
-14
-11
-48
-56
-26
-61
-98
9
142
259
552
719
278
-304
-342
-131
-145
-216
-169
-134
-152
-161
-159
-147
-143
-162
-163
-135
-130
-148
-145
-125
-107
-84
-53
-4
79
162
200
210
211
182
118
51
-14
-100
-191
-240
-220
-148
-71
-15
33
76
106
135
148
122
95
88
53
6
16
53
53
54
105
159
167
168
212
264
271
256
250
242
235
244
251
237
220
198
162
116
40
-25
18
114
193
331
376
50
-364
-395
-214
-175
-194
-151
-146
-194
-210
-190
-156
-109
-76
-70
-70
-62
-49
-35
-24
-11
12
38
67
108
149
173
185
198
196
155
86
21
-33
-81
-112
-124
-132
-141
-146
-148
-148
-136
-124
-126
-118
-90
-78
-85
-69
-39
-38
-56
-67
-73
-63
-43
-49
-51
0
43
13
-38
-59
-76
-88
-87
-95
-104
-98
-99
-98
-83
-107
-121
-34
81
241
503
507
19
-419
-384
-226
-232
-254
-229
-225
-216
-181
-143
-89
-24
14
13
-2
-10
-8
2
10
24
59
114
166
213
261
306
352
384
359
279
201
131
42
-35
-47
-22
-17
-40
-61
-58
-36
-36
-72
-94
-88
-99
-129
-139
-133
-126
-114
-101
-85
-60
-47
-65
-75
-44
-10
-20
-51
-73
-83
-81
-82
-98
-85
-49
-47
-32
17
-22
-51
119
308
447
771
922
379
-280
-313
-77
-70
-130
-113
-113
-118
-89
-61
-53
-48
-14
33
31
8
32
58
40
40
93
153
198
247
314
390
436
433
397
344
265
163
80
43
7
-49
-73
-62
-56
-39
3
76
283
619
865
1065
1504
1885
1510
503
-282
-514
-517
-521
-533
-558
-552
-491
-454
-482
-528
-576
-640
-693
-722
-760
-805
-821
-804
-768
-689
-549
-391
-256
-127
-2
76
93
87
76
46
10
-1
13
28
33
37
40
41
47
56
52
35
26
39
50
36
4
-37
-70
-79
-90
-117
-113
-76
-63
-65
-42
-23
-37
-50
-34
-11
-29
-77
-95
-74
-56
-48
-35
-29
-19
14
32
9
-7
9
30
35
29
27
37
26
-6
7
56
58
25
36
94
140
151
128
84
53
49
41
22
17
19
27
48
27
14
139
309
456
734
887
465
-121
-201
-21
-24
-65
-19
-15
-30
1
6
-20
-4
32
28
8
18
47
62
60
58
80
139
196
208
218
275
322
311
282
252
216
198
178
122
65
32
-20
-81
-101
-92
-80
-67
-61
-60
-51
-54
-76
-57
25
125
257
441
592
677
765
756
559
446
544
447
22
-299
-353
-374
-394
-351
-333
-353
-342
-328
-335
-331
-332
-365
-392
-399
-450
-566
-677
-748
-805
-826
-762
-642
-541
-473
-399
-323
-289
-286
-253
-200
-181
-187
-184
-174
-148
-98
-57
-50
-55
-43
-17
4
17
36
66
87
95
104
117
130
145
155
151
146
154
165
164
158
156
153
143
128
117
112
111
110
108
101
92
90
101
119
122
117
148
211
244
228
201
186
180
182
180
172
176
179
176
183
166
152
243
384
525
771
884
464
-138
-283
-121
-97
-159
-141
-124
-154
-163
-142
-130
-129
-123
-114
-108
-92
-76
-80
-84
-59
-19
17
55
98
146
194
216
205
190
174
134
78
24
-30
-78
-112
-136
-152
-159
-159
-154
-148
-141
-130
-123
-116
-100
-85
-85
-98
-119
-131
-110
-83
-96
-108
-59
2
1
-35
-58
-73
-88
-96
-96
-94
-115
-149
-129
-75
-116
-185
-65
148
282
493
651
283
-328
-450
-218
-159
-211
-182
-152
-158
-167
-182
-172
-142
-128
-106
-84
-91
-79
-26
12
43
103
171
234
305
364
410
450
447
390
317
224
104
10
-54
-118
-157
-159
-170
-184
-169
-150
-145
-132
-110
-84
-56
-56
-78
-71
-39
-29
-51
-83
-66
36
130
116
53
23
10
5
12
30
68
73
15
10
54
0
-30
135
314
438
618
542
12
-386
-279
-97
-118
-132
-82
-90
-127
-120
-108
-124
-132
-112
-94
-90
-86
-70
-36
-4
12
49
130
207
251
291
345
392
390
309
193
112
56
-22
-105
-148
-149
-156
-187
-196
-165
-143
-139
-118
-95
-95
-95
-90
-97
-99
-89
-101
-123
-101
-37
8
4
-31
-75
-106
-99
-81
-105
-135
-126
-118
-105
-77
-114
-115
66
260
403
634
628
99
-364
-309
-154
-191
-207
-157
-161
-176
-151
-128
-123
-122
-112
-88
-70
-61
-38
-7
9
30
82
150
213
275
333
361
358
350
320
238
131
47
-13
-59
-88
-108
-117
-103
-91
-104
-110
-85
-51
-26
-17
-26
-32
-15
6
10
2
-14
-9
50
108
92
52
38
23
13
22
5
-14
2
9
15
29
-27
-47
96
241
399
706
714
135
-337
-242
-68
-114
-150
-120
-125
-135
-123
-107
-85
-73
-78
-81
-69
-38
-3
11
18
45
89
141
204
268
319
360
392
400
368
304
227
141
55
-12
-62
-110
-132
-125
-140
-196
-242
-262
-278
-289
-288
-283
-282
-285
-276
-249
-235
-258
-269
-226
-160
-120
-111
-124
-158
-174
-144
-116
-114
-97
-73
-67
-37
-18
-45
14
171
275
416
565
319
-199
-341
-136
-92
-163
-111
-62
-101
-102
-51
-23
-21
-16
-3
14
24
34
51
56
52
65
91
118
161
199
182
141
141
161
144
101
58
10
-34
-53
-57
-53
-47
-53
-61
-45
-24
-19
-11
10
16
4
-9
-25
-35
-8
32
35
35
75
106
88
51
16
-5
2
-1
-33
-49
-53
-77
-74
-45
-68
-72
37
135
210
396
432
51
-329
-303
-146
-135
-159
-147
-150
-149
-131
-122
-120
-114
-107
-94
-79
-61
-31
7
39
70
116
169
220
274
332
381
411
420
401
356
302
239
169
119
93
69
57
63
55
29
16
17
25
35
33
23
15
-6
-24
-8
12
-3
-16
21
75
102
103
82
41
18
34
52
52
62
75
69
90
143
130
106
226
414
610
853
805
229
-304
-335
-233
-304
-403
-485
-614
-740
-858
-992
-1066
-1033
-949
-859
-763
-668
-578
-481
-389
-339
-315
-247
-126
-8
93
186
254
291
306
281
212
142
98
74
53
36
34
27
-7
-13
48
92
67
55
84
84
43
12
10
34
62
56
42
70
137
192
201
172
142
128
115
98
98
120
122
95
103
120
73
96
265
399
546
797
702
88
-324
-192
-39
-92
-103
-58
-61
-67
-56
-56
-51
-38
-31
-28
-22
-10
5
13
33
84
134
171
222
287
341
385
403
384
340
271
181
110
45
-42
-90
-75
-92
-154
-172
-148
-146
-160
-163
-169
-180
-185
-186
-199
-211
-202
-186
-187
-187
-143
-74
-47
-77
-117
-132
-127
-123
-129
-122
-90
-70
-71
-58
-63
-95
-40
89
193
387
600
390
-160
-412
-285
-196
-208
-181
-153
-152
-141
-135
-137
-126
-107
-78
-50
-39
-27
-8
5
29
67
97
138
210
285
332
352
368
379
336
246
186
157
105
57
24
-20
-40
-23
-30
-62
-77
-80
-83
-78
-70
-74
-105
-139
-141
-123
-111
-98
-77
-52
-15
16
16
-9
-33
-43
-43
-48
-51
-34
-16
-20
-1
30
9
15
129
250
349
432
279
-109
-293
-152
-37
-54
-57
-51
-68
-58
-49
-67
-72
-61
-59
-58
-62
-67
-52
-41
-55
-53
-23
2
28
75
118
137
143
145
128
73
-8
-77
-133
-187
-217
-214
-206
-200
-183
-170
-171
-155
-124
-123
-145
-143
-132
-149
-162
-132
-80
-47
-37
-13
44
87
74
42
26
18
15
13
6
12
24
12
15
46
24
23
161
306
425
647
656
164
-286
-218
-21
-31
-59
-16
1
-5
-2
10
32
29
-3
0
41
65
73
86
91
104
149
196
226
272
335
380
398
397
367
294
203
130
69
4
-49
-60
-49
-58
-93
-113
-94
-71
-65
-39
12
71
170
291
373
501
728
858
736
405
-23
-296
-247
-168
-320
-457
-384
-303
-333
-368
-366
-376
-412
-440
-441
-468
-549
-599
-580
-574
-587
-545
-463
-377
-258
-89
86
207
253
254
231
178
120
78
26
-41
-82
-96
-101
-97
-83
-74
-72
-82
-99
-102
-91
-91
-100
-96
-89
-91
-81
-64
-67
-76
-63
-54
-61
-47
-14
-4
-9
-2
14
28
33
34
43
45
20
-10
-27
-43
-45
-30
-37
-54
-12
71
110
97
76
64
60
57
55
72
88
70
78
114
81
84
245
401
592
994
1117
516
-124
-156
7
-22
-49
-14
-42
-66
-34
-29
-61
-69
-51
-35
-22
-23
-28
-4
34
47
70
144
216
247
279
330
361
362
350
328
286
211
121
54
19
-8
-43
-76
-90
-87
-85
-89
-87
-71
-41
-7
32
96
177
273
465
719
862
968
1248
1450
1154
523
26
-220
-344
-403
-428
-453
-470
-476
-496
-531
-563
-583
-599
-625
-667
-705
-737
-771
-784
-762
-726
-661
-528
-362
-225
-105
16
97
119
110
84
44
4
-28
-54
-70
-93
-114
-104
-72
-57
-60
-75
-102
-125
-128
-125
-126
-125
-118
-107
-97
-94
-102
-111
-111
-110
-125
-142
-142
-133
-133
-135
-121
-106
-108
-120
-119
-101
-72
-58
-66
-50
10
50
47
31
-19
-84
-91
-71
-80
-73
-46
-45
-32
-16
-36
13
155
293
506
703
465
-90
-315
-151
-50
-95
-109
-99
-116
-126
-120
-111
-93
-67
-56
-59
-46
-8
31
70
108
145
195
257
307
345
380
408
423
425
413
392
364
330
295
266
245
236
233
234
248
265
279
313
360
399
468
572
668
820
1070
1277
1441
1698
1810
1451
872
491
308
199
160
142
103
96
116
111
91
83
61
24
4
-13
-53
-84
-90
-152
-337
-601
-848
-1024
-1128
-1213
-1335
-1488
-1639
-1790
-1936
-2056
-2119
-2054
-1825
-1539
-1308
-1123
-948
-787
-621
-459
-336
-235
-119
-9
69
133
198
248
280
310
338
363
399
428
431
440
473
496
498
510
526
523
523
542
545
520
498
489
477
475
475
438
405
449
510
489
431
398
346
270
221
