# session 155
-151
-116
-110
-132
-164
-187
-190
-160
-96
-49
-40
-10
40
97
288
584
727
678
443
-104
-602
-557
-344
-476
-644
-558
-467
-480
-460
-424
-421
-399
-374
-397
-413
-360
-282
-212
-85
127
333
462
562
665
713
684
630
588
552
495
411
352
355
349
291
276
334
355
314
312
358
375
361
358
374
408
425
391
355
355
344
310
307
314
282
243
228
217
200
186
177
209
302
369
340
276
236
213
204
196
177
209
275
295
367
551
668
733
858
761
335
82
195
260
98
-122
-341
-547
-674
-741
-791
-815
-826
-847
-861
-869
-888
-882
-849
-837
-838
-816
-782
-753
-736
-742
-777
-852
-968
-1087
-1189
-1278
-1311
-1261
-1205
-1192
-1157
-1064
-979
-923
-825
-679
-566
-506
-448
-379
-336
-327
-315
-284
-235
-152
-67
-33
12
120
226
352
480
374
53
-115
-40
105
279
444
522
582
688
777
838
915
993
1056
1125
1196
1235
1229
1213
1222
1244
1245
1220
1170
1104
1025
923
814
739
695
665
668
690
687
690
745
809
823
810
834
894
932
929
908
847
745
669
619
530
425
361
293
194
142
146
180
324
460
213
-347
-692
-716
-740
-823
-854
-861
-813
-618
-380
-226
-103
-11
-88
-306
-478
-558
-620
-661
-638
-601
-613
-653
-689
-737
-768
-725
-633
-559
-520
-544
-641
-749
-830
-910
-973
-986
-990
-1010
-999
-930
-869
-868
-896
-895
-871
-861
-851
-830
-825
-800
-753
-770
-758
-547
-260
-37
164
180
-79
-226
-83
13
-38
-35
13
-6
-60
-88
-69
-23
12
63
146
206
253
329
376
372
412
503
556
570
579
555
511
495
485
451
418
394
379
395
417
417
445
501
501
465
482
525
530
502
437
347
293
276
273
355
515
626
730
929
1043
951
854
774
480
83
-115
-153
-188
-191
-150
-138
-148
-141
-125
-105
-93
-109
-129
-125
-112
-105
-101
-87
-33
62
168
270
368
452
513
553
583
610
609
575
559
571
545
490
476
444
295
144
109
58
-80
-167
-200
-290
-382
-421
-473
-513
-484
-448
-470
-558
-623
-527
-348
-229
-106
-87
-400
-736
-671
-436
-387
-429
-409
-376
-389
-445
-501
-486
-413
-376
-377
-319
-197
-116
-113
-129
-113
-37
78
135
89
7
-69
-160
-252
-308
-324
-326
-330
-330
-321
-324
-337
-329
-303
-268
-178
-36
69
103
132
201
291
405
547
666
778
1041
1440
1599
1223
534
-23
-282
-359
-382
-397
-405
-402
-405
-438
-489
-526
-542
-556
-581
-617
-651
-672
-664
-600
-476
-326
-170
2
163
264
304
321
338
349
337
310
299
298
285
276
275
268
268
274
256
226
202
172
171
219
221
144
84
64
40
38
1
-159
-267
-162
-50
-42
28
140
294
683
974
610
-21
-215
-131
-145
-165
-137
-150
-142
-90
-76
-74
-51
-50
-53
-12
36
62
92
127
163
222
285
300
276
254
228
174
103
31
-31
-69
-75
-69
-79
-102
-119
-120
-104
-92
-95
-74
-33
-46
-104
-125
-127
-150
-149
-125
-116
-86
-52
-69
-31
125
260
363
452
296
-72
-213
-81
-22
-76
-86
-69
-62
-52
-61
-75
-55
-35
-55
-82
-80
-59
-43
-23
7
41
77
114
141
149
144
124
87
51
40
36
7
-40
-76
-89
-77
-45
-17
-7
10
36
46
28
-10
-47
-73
-92
-98
-106
-131
-135
-124
-149
-132
-20
110
342
641
535
-11
-313
-177
-65
-86
-52
-6
-11
-13
-10
-3
31
62
73
90
104
97
90
98
115
132
133
121
104
57
-22
-96
-159
-236
-319
-380
-389
-356
-336
-338
-310
-265
-259
-263
-233
-183
-135
-111
-141
-197
-231
-259
-284
-272
-243
-211
-166
-154
-132
45
313
533
700
613
119
-332
-349
-233
-267
-290
-213
-153
-147
-123
-64
-23
-7
43
119
143
120
122
164
207
235
272
320
341
326
321
346
362
321
248
213
207
178
129
82
44
39
48
10
-29
12
74
66
25
-13
-67
-102
-63
30
101
131
213
429
728
934
814
374
-9
-131
-247
-454
-539
-497
-491
-487
-432
-392
-395
-417
-456
-504
-537
-563
-591
-607
-612
-605
-575
-513
-411
-283
-169
-54
105
255
335
380
414
417
406
423
484
567
638
765
1018
1264
1420
1637
1859
1747
1235
630
217
70
65
27
-63
-123
-151
-184
-216
-251
-307
-375
-434
-479
-515
-534
-500
-395
-259
-130
-10
87
140
158
148
112
76
56
42
18
-17
-51
-64
-74
-103
-132
-143
-160
-183
-189
-199
-233
-255
-252
-255
-260
-255
-252
-253
-247
-259
-303
-331
-316
-309
-340
-347
-300
-262
-272
-288
-279
-266
-270
-287
-303
-296
-252
-231
-250
-209
-109
-10
185
358
109
-400
-554
-375
-311
-366
-342
-288
-279
-273
-265
-273
-279
-262
-237
-227
-220
-193
-155
-119
-63
10
62
93
134
164
154
135
136
141
142
143
147
163
175
143
82
47
41
25
-21
-58
-39
-5
-31
-77
-63
-29
-6
69
174
205
173
114
29
-10
21
82
265
475
348
10
-48
55
-97
-358
-444
-463
-449
-198
227
509
574
595
641
666
684
734
799
810
718
653
817
1100
1218
1181
1155
1132
1117
1148
1123
1035
1045
1129
1159
1232
1389
1440
1350
1264
1153
931
689
476
234
7
-157
-329
-492
-568
-617
-690
-748
-818
-879
-830
-718
-601
-467
-553
-996
-1335
-1253
-1101
-1110
-1109
-1074
-1099
-1108
-1062
-1041
-1033
-986
-936
-909
-873
-815
-758
-705
-639
-549
-451
-375
-337
-319
-297
-293
-344
-408
-424
-430
-457
-444
-395
-386
-397
-357
-291
-255
-243
-216
-159
-99
-77
-87
-72
26
237
497
712
905
1083
1105
966
835
697
440
157
-42
-184
-266
-269
-256
-269
-281
-287
-307
-340
-373
-397
-412
-427
-439
-433
-414
-393
-351
-263
-147
-34
71
175
274
351
394
410
426
448
460
463
469
479
481
482
481
455
425
446
482
472
456
475
483
458
427
392
344
311
309
304
280
270
256
214
215
267
305
436
665
611
190
-86
-24
38
-15
-33
-26
-45
-53
-53
-63
-68
-61
-50
-30
-11
11
46
88
131
177
217
253
286
283
236
184
125
34
-53
-98
-125
-150
-162
-177
-213
-237
-219
-193
-199
-201
-165
-132
-145
-187
-234
-269
-272
-256
-262
-271
-248
-246
-291
-270
-163
-74
57
215
83
-310
-466
-315
-229
-265
-260
-226
-215
-203
-191
-189
-178
-148
-117
-100
-73
-13
53
100
151
211
260
306
331
297
220
144
59
-36
-99
-135
-169
-190
-188
-177
-164
-154
-146
-130
-112
-91
-41
9
3
-33
-43
-51
-75
-65
-37
-49
-49
-23
-31
3
139
256
338
370
141
-241
-331
-157
-84
-107
-77
-56
-79
-87
-79
-66
-38
-12
-2
9
43
91
129
167
226
278
311
339
333
272
200
134
53
-27
-82
-121
-144
-144
-137
-147
-155
-133
-107
-109
-109
-62
8
48
35
-8
-39
-53
-64
-62
-58
-75
-63
-34
-62
-51
74
167
269
474
422
-23
-295
-172
-73
-123
-119
-88
-99
-86
-64
-77
-79
-58
-45
-14
31
43
54
120
208
271
316
350
373
374
314
215
135
62
-5
-18
-20
-57
-71
-51
-42
-34
-10
1
2
25
69
104
103
62
17
-9
-21
-25
-35
-59
-52
-24
-29
14
171
340
561
846
770
199
-250
-247
-160
-187
-192
-168
-170
-175
-178
-182
-174
-167
-167
-163
-154
-140
-121
-113
-104
-74
-43
-22
7
38
57
56
24
-25
-52
-57
-78
-103
-104
-103
-124
-141
-131
-112
-98
-85
-65
-28
-4
-31
-76
-82
-76
-95
-108
-107
-119
-112
-101
-128
-120
-49
49
287
548
395
-77
-279
-165
-108
-135
-118
-104
-112
-104
-104
-121
-119
-106
-102
-95
-74
-43
-3
40
74
105
144
189
217
204
161
127
102
55
1
-21
-20
-25
-38
-49
-55
-54
-35
-8
-1
-1
37
86
93
68
52
40
21
18
29
15
-8
4
5
-19
18
105
227
467
594
283
-131
-164
-14
-11
-48
-17
-3
-14
-14
-20
-32
-32
-28
-22
-11
7
35
72
113
158
203
237
255
256
243
210
153
92
41
3
-22
-35
-45
-49
-56
-75
-90
-87
-76
-76
-85
-62
12
44
-25
-102
-115
-109
-112
-118
-137
-132
-91
-112
-160
-86
47
169
393
496
133
-318
-336
-177
-200
-256
-222
-203
-205
-182
-165
-168
-164
-146
-124
-86
-35
2
20
57
135
209
237
236
231
210
164
101
17
-66
-105
-105
-114
-139
-152
-143
-132
-133
-133
-136
-157
-161
-116
-59
-38
-53
-80
-93
-99
-106
-89
-58
-45
-27
-25
-57
4
171
246
235
214
23
-264
-273
-72
-4
-27
18
41
-4
-20
8
37
66
96
111
121
145
176
207
257
330
394
429
440
426
383
313
228
142
66
8
-30
-44
-48
-50
-44
-30
-26
-29
-26
-29
-41
-23
33
69
48
11
-6
-32
-68
-64
-45
-69
-75
-51
-81
-101
-29
44
206
526
540
43
-335
-269
-188
-261
-268
-226
-236
-231
-192
-190
-220
-223
-184
-151
-149
-147
-118
-67
-11
40
76
90
89
82
67
33
-20
-74
-110
-126
-131
-127
-112
-89
-72
-77
-88
-76
-58
-67
-87
-65
-17
0
-26
-60
-84
-101
-102
-83
-82
-109
-93
-52
-76
-85
11
121
275
480
387
-59
-306
-172
-61
-105
-101
-43
-30
-40
-35
-29
-20
5
37
59
78
103
151
215
251
265
321
410
438
382
319
286
245
182
128
90
63
56
54
36
24
27
17
9
31
44
23
36
106
146
111
66
68
109
174
267
396
504
516
474
425
331
316
511
595
247
-190
-296
-241
-280
-332
-328
-337
-360
-360
-363
-389
-427
-460
-476
-479
-494
-506
-495
-482
-464
-416
-349
-286
-227
-189
-169
-135
-94
-78
-75
-58
-43
-50
-59
-52
-42
-45
-52
-57
-63
-51
-20
-8
-14
9
55
66
40
9
-12
-28
-35
-29
-34
-54
-47
-36
-72
-57
61
155
260
414
297
-134
-347
-202
-102
-129
-107
-87
-115
-108
-91
-106
-101
-76
-59
-25
21
37
51
106
180
257
350
425
445
434
420
371
279
196
143
101
91
110
103
80
90
90
50
42
78
85
61
69
107
135
131
82
23
7
2
-25
-32
-27
-38
-24
-14
-38
25
181
300
413
448
157
-236
-272
-83
-30
-66
-56
-37
-25
-12
-19
-30
-28
-23
-4
38
84
106
119
155
216
277
329
363
365
336
279
188
89
24
-17
-72
-112
-107
-112
-150
-160
-140
-145
-151
-139
-163
-191
-140
-63
-47
-72
-107
-144
-154
-149
-148
-148
-159
-152
-111
-125
-149
-35
106
153
231
203
-139
-429
-347
-210
-235
-250
-225
-243
-252
-231
-231
-233
-210
-187
-184
-186
-175
-134
-80
-34
23
98
135
113
89
78
19
-86
-170
-224
-282
-335
-356
-349
-337
-328
-284
-169
-22
87
156
222
296
350
349
275
160
56
-22
-93
-152
-189
-236
-287
-303
-332
-398
-366
-249
-149
78
342
136
-429
-636
-434
-303
-294
-216
-86
39
138
186
227
309
381
399
422
498
586
658
729
782
818
894
1002
1086
1137
1148
1077
942
796
638
484
380
313
238
153
79
29
-20
-65
-39
53
78
-3
-82
-114
-148
-214
-297
-346
-357
-373
-399
-416
-433
-451
-481
-502
-449
-372
-295
-43
240
52
-476
-690
-562
-517
-576
-587
-607
-658
-674
-673
-699
-729
-732
-720
-718
-707
-658
-602
-569
-537
-490
-427
-318
-167
-51
-6
17
79
205
372
534
669
767
776
671
527
420
337
270
252
267
254
230
275
373
411
368
338
351
359
381
441
498
554
652
742
784
815
803
747
805
903
679
200
-65
-65
-87
-147
-150
-160
-196
-221
-271
-286
-139
70
135
64
-24
-106
-179
-216
-230
-237
-221
-190
-159
-118
-84
-89
-90
-14
135
317
498
661
814
922
881
699
516
386
271
188
143
82
23
6
-19
-87
-162
-235
-308
-346
-358
-395
-439
-446
-459
-536
-601
-571
-512
-418
-241
-268
-690
-1063
-1035
-919
-959
-999
-985
-1006
-1042
-1055
-1075
-1098
-1106
-1112
-1120
-1116
-1099
-1084
-1058
-1002
-930
-867
-805
-737
-675
-616
-529
-411
-313
-262
-214
-124
-20
59
144
256
349
403
457
529
604
665
695
730
817
909
929
905
902
918
929
943
952
940
939
986
1000
937
958
1129
1287
1398
1437
1187
804
757
965
1022
943
894
849
798
762
712
658
633
624
622
614
596
597
604
597
617
663
654
589
530
469
377
257
118
-5
-78
-137
-206
-238
-242
-275
-320
-322
-304
-317
-355
-367
-370
-465
-662
-821
-873
-899
-955
-999
-1025
-1058
-1062
-1031
-1022
-1014
-992
-1012
-990
-831
-637
-390
-116
-240
-797
-1111
-973
-846
-857
-816
-744
-693
-615
-529
-468
-420
-382
-347
-306
-267
-225
-163
-80
6
86
161
224
256
264
258
226
165
100
49
11
-10
-14
-10
-9
-9
-11
-22
-28
-16
-18
-66
-108
-97
-75
-82
-96
-99
-91
-71
-49
-20
23
51
68
90
85
100
205
302
395
591
626
272
-55
-12
112
111
127
176
196
252
348
414
458
509
559
604
641
656
666
701
758
809
849
893
927
924
886
848
818
772
714
666
619
542
421
279
146
27
-89
-190
-269
-328
-379
-437
-485
-470
-407
-383
-387
-332
-247
-211
-172
-73
10
33
75
129
115
112
196
279
394
577
474
-96
-627
-755
-771
-904
-997
-952
-831
-678
-542
-479
-490
-538
-591
-621
-628
-622
-600
-561
-508
-442
-366
-302
-257
-219
-193
-192
