# session 63
9
24
22
25
12
-6
10
-3
-48
13
158
328
589
673
248
-270
-327
-153
-133
-171
-145
-123
-120
-111
-107
-99
-80
-57
-33
-16
-5
19
60
99
145
214
285
329
357
373
353
289
205
112
18
-55
-98
-128
-151
-156
-151
-150
-149
-147
-152
-151
-140
-146
-152
-129
-116
-137
-126
-72
-46
-49
-54
-78
-106
-92
-71
-84
-102
-91
-51
-24
-67
-92
27
174
264
404
415
55
-310
-268
-86
-72
-95
-55
-36
-39
-28
-26
-25
-10
9
24
36
47
59
81
111
143
180
231
286
319
325
316
289
230
151
77
18
-30
-64
-83
-93
-96
-95
-91
-85
-76
-70
-72
-79
-76
-62
-63
-76
-52
10
44
24
-23
-70
-78
-60
-69
-96
-104
-97
-74
-71
-118
-107
13
125
271
440
273
-218
-443
-282
-178
-224
-225
-208
-232
-231
-197
-183
-187
-181
-161
-144
-137
-125
-97
-55
-4
61
137
213
274
311
328
319
266
169
63
-23
-84
-118
-138
-165
-193
-198
-177
-152
-123
-92
-77
-45
58
205
379
627
886
1066
1321
1650
1539
771
-34
-361
-417
-469
-491
-493
-523
-526
-502
-519
-555
-559
-570
-620
-676
-716
-746
-759
-752
-713
-607
-433
-248
-92
58
199
270
262
241
230
205
168
145
140
134
112
96
104
111
96
80
84
98
116
146
193
237
286
378
461
512
680
978
1215
1405
1507
1082
155
-499
-567
-453
-345
-170
-39
-47
-83
-45
32
69
43
-9
-53
-75
-81
-73
-22
68
121
139
208
314
365
379
427
467
439
375
320
279
250
204
128
83
96
104
72
24
-40
-131
-233
-337
-443
-536
-610
-674
-737
-809
-871
-900
-922
-954
-956
-894
-799
-718
-656
-584
-506
-464
-448
-412
-368
-340
-312
-269
-229
-207
-195
-172
-144
-134
-129
-103
-79
-78
-63
-5
62
87
72
52
51
63
77
79
70
89
129
126
139
255
391
546
810
867
431
-12
10
179
180
157
171
158
167
203
210
208
218
226
245
271
276
275
294
319
345
380
418
456
491
509
511
496
454
397
346
286
217
172
167
191
204
172
110
30
-66
-91
-14
104
298
567
769
936
1118
1008
458
-119
-390
-468
-493
-480
-482
-510
-507
-487
-503
-530
-537
-555
-596
-628
-645
-661
-662
-619
-539
-431
-295
-163
-71
-6
48
58
14
-30
-48
-63
-83
-92
-94
-106
-114
-105
-98
-97
-87
-78
-82
-85
-76
-70
-76
-79
-72
-57
-49
-53
-54
-49
-56
-62
-41
-21
-30
-34
-15
-7
-13
-15
-12
-3
-4
-23
-17
42
94
89
52
25
19
15
7
2
-17
-23
23
27
-20
71
266
390
545
630
265
-246
-281
-51
-24
-77
-45
-44
-61
-24
-12
-40
-23
11
5
13
55
82
111
152
161
191
296
382
385
381
396
375
324
275
211
109
-1
-66
-79
-89
-131
-167
-157
-129
-116
-101
-99
-122
-102
-40
-53
-113
-84
5
43
37
12
-54
-104
-92
-90
-117
-107
-83
-80
-80
-98
-63
108
276
385
498
350
-142
-416
-251
-103
-140
-156
-141
-157
-162
-153
-139
-109
-101
-109
-96
-84
-82
-54
-13
18
77
175
268
330
368
381
355
286
181
61
-44
-116
-158
-187
-209
-216
-215
-218
-212
-190
-182
-193
-186
-153
-130
-132
-141
-138
-93
-19
-3
-66
-103
-78
-80
-124
-134
-121
-121
-89
-44
-83
-104
36
191
275
440
483
88
-339
-305
-100
-90
-138
-105
-85
-119
-137
-103
-59
-44
-41
-21
3
23
47
74
101
133
188
274
347
372
378
378
349
284
194
98
40
14
-29
-69
-56
-19
-11
-11
12
28
46
132
246
353
570
856
1036
1274
1680
1735
1113
339
-103
-306
-400
-402
-413
-446
-423
-388
-418
-467
-475
-468
-487
-541
-603
-626
-618
-627
-631
-564
-440
-303
-162
-30
61
113
146
155
119
63
46
60
45
18
10
-16
-72
-95
-72
-60
-85
-107
-100
-88
-94
-113
-129
-135
-139
-158
-183
-191
-197
-211
-215
-226
-261
-274
-255
-256
-282
-283
-238
-177
-144
-146
-150
-143
-141
-141
-135
-130
-123
-92
-59
-82
-99
18
187
279
353
328
22
-294
-254
-53
10
19
60
58
48
81
94
75
89
130
142
145
181
223
239
261
310
362
406
453
497
523
528
515
485
439
382
322
268
225
194
173
160
161
166
165
180
209
222
250
335
448
608
843
1053
1256
1564
1700
1279
550
63
-89
-133
-165
-169
-167
-190
-214
-211
-206
-229
-266
-293
-319
-359
-422
-499
-568
-632
-696
-721
-701
-680
-658
-622
-621
-681
-759
-840
-927
-996
-1040
-1068
-1047
-950
-821
-711
-638
-583
-515
-444
-390
-333
-264
-227
-202
-132
-60
-45
-38
8
48
51
64
112
130
94
86
140
172
142
128
180
252
293
293
253
206
197
216
226
216
183
178
218
199
171
331
553
659
790
794
362
-80
-42
134
119
115
172
156
124
144
155
142
146
172
188
190
209
243
280
334
393
435
495
569
600
600
592
537
436
334
237
144
62
-19
-80
-98
-111
-146
-155
-123
-103
-119
-121
-79
-33
-36
-74
-66
15
86
73
4
-53
-83
-89
-71
-49
-66
-100
-82
-65
-127
-119
58
215
346
534
404
-171
-531
-382
-228
-277
-269
-214
-242
-259
-227
-249
-294
-264
-214
-219
-235
-220
-192
-160
-114
-53
28
119
190
221
220
185
106
-3
-115
-213
-288
-338
-369
-391
-402
-396
-381
-364
-349
-343
-342
-329
-301
-290
-304
-302
-253
-198
-184
-205
-243
-274
-287
-288
-277
-260
-273
-276
-232
-238
-252
-104
52
93
278
438
77
-447
-465
-218
-172
-224
-216
-202
-184
-146
-131
-131
-119
-102
-89
-71
-33
32
86
110
162
270
360
412
474
514
485
434
378
280
175
114
68
22
8
20
27
42
89
145
195
284
412
525
711
1027
1287
1479
1850
2163
1865
1087
445
146
36
27
58
58
33
38
75
92
73
58
41
10
6
30
25
13
53
145
266
408
530
584
576
549
518
461
380
301
223
133
36
-59
-139
-193
-230
-257
-273
-293
-323
-354
-383
-418
-451
-481
-517
-568
-607
-594
-544
-509
-495
-483
-478
-478
-468
-462
-470
-463
-431
-416
-426
-410
-370
-375
-431
-481
-502
-509
-505
-504
-528
-549
-511
-461
-486
-483
-330
-140
28
201
122
-309
-593
-466
-302
-306
-312
-277
-260
-257
-275
-303
-300
-283
-280
-281
-284
-295
-294
-281
-259
-192
-78
31
119
214
300
355
381
371
326
276
229
177
129
89
50
21
2
-16
-19
-2
7
-1
0
18
43
80
148
245
329
366
370
372
378
385
397
406
379
320
296
317
311
324
439
567
715
951
944
466
52
114
279
257
227
253
234
203
210
217
205
193
187
184
191
202
209
224
248
262
285
356
437
468
467
463
418
313
190
86
4
-70
-130
-156
-159
-175
-201
-205
-190
-187
-207
-220
-205
-193
-202
-174
-80
25
102
163
248
409
580
656
816
1231
1490
1082
262
-323
-511
-560
-603
-611
-599
-616
-650
-652
-645
-693
-754
-765
-770
-818
-859
-881
-915
-935
-904
-825
-700
-540
-379
-234
-107
-20
21
31
21
-11
-51
-74
-72
-65
-59
-44
-23
-7
-4
-4
1
8
10
-2
-32
-67
-111
-165
-198
-191
-179
-193
-208
-166
-76
-16
-17
-38
-43
-38
-36
-24
7
28
48
96
88
44
157
352
503
828
1120
746
18
-193
2
39
-31
-16
4
-5
-1
6
19
35
38
42
59
70
76
102
155
213
256
301
368
427
447
442
419
360
273
175
85
28
-7
-45
-72
-78
-86
-89
-75
-72
-94
-96
-67
-41
-37
-42
-37
-3
34
27
-15
-50
-69
-79
-72
-57
-66
-92
-77
-55
-85
-66
51
156
310
520
390
-136
-449
-321
-187
-223
-228
-177
-173
-187
-166
-140
-133
-118
-94
-80
-57
-18
15
48
105
166
215
271
339
386
386
348
294
229
145
59
-3
-43
-74
-91
-100
-112
-117
-114
-116
-127
-131
-131
-131
-112
-73
-45
-8
87
192
270
406
586
679
787
1081
1310
1082
489
-48
-311
-377
-382
-391
-410
-421
-413
-405
-420
-455
-485
-494
-503
-539
-580
-601
-627
-655
-638
-581
-502
-377
-218
-86
17
108
154
153
133
90
33
6
-4
-26
-31
-14
-23
-49
-49
-39
-36
-20
-3
-12
-30
-30
-15
-5
-6
-4
-7
-27
-27
-1
-4
-16
37
117
140
122
111
97
68
50
68
84
62
69
92
41
47
217
350
505
856
874
214
-341
-271
-108
-149
-152
-120
-148
-140
-104
-105
-93
-65
-58
-45
-24
-13
21
77
114
152
224
303
355
386
417
434
414
354
267
180
121
76
21
-28
-59
-88
-110
-120
-128
-134
-138
-139
-123
-92
-71
-71
-74
-52
4
46
35
7
-14
-35
-39
-14
4
-20
-49
-38
-34
-65
-26
77
169
399
696
528
-91
-409
-243
-118
-183
-200
-163
-173
-182
-160
-150
-157
-155
-139
-129
-129
-118
-77
-35
-16
9
66
130
177
211
229
216
168
97
16
-67
-137
-184
-212
-227
-231
-232
-228
-212
-208
-217
-195
-150
-135
-147
-143
-123
-109
-102
-88
-63
-50
-66
-90
-97
-99
-104
-98
-97
-105
-83
-69
-108
-70
85
188
329
606
547
-59
-501
-359
-149
-196
-225
-126
-106
-182
-186
-108
-73
-88
-76
-39
-12
12
43
77
124
183
248
331
431
511
541
522
469
390
288
182
98
34
-13
-40
-59
-87
-97
-84
-80
-83
-66
-46
-48
-48
-26
-4
2
18
78
163
232
281
340
452
607
721
824
1124
1583
1738
1273
481
-110
-319
-338
-357
-381
-372
-371
-401
-427
-431
-432
-436
-452
-499
-545
-556
-567
-605
-632
-620
-572
-483
-371
-262
-148
-41
16
20
2
-20
-43
-68
-94
-106
-108
-115
-111
-89
-75
-73
-62
-54
-53
-46
-36
-37
-41
-39
-37
-36
-38
-49
-60
-52
-34
-35
-35
4
60
81
59
30
20
16
0
-5
8
0
-12
-4
-35
-55
52
180
301
557
650
199
-326
-331
-108
-89
-141
-112
-90
-85
-51
-28
-35
-26
1
11
14
27
36
53
103
156
195
249
322
390
440
442
398
345
285
195
97
23
-38
-92
-125
-145
-161
-164
-155
-144
-132
-117
-110
-110
-98
-67
-39
-39
-42
-10
37
49
20
-14
-31
-39
-50
-48
-31
-43
-64
-43
-41
-48
44
145
230
529
796
457
-180
-352
-180
-148
-191
-156
-147
-179
-175
-154
-147
-146
-143
-129
-113
-117
-120
-92
-48
-11
37
113
195
259
299
310
281
216
127
34
-42
-94
-133
-157
-153
-118
-74
-41
-3
132
417
723
942
1267
1780
1954
1319
316
-297
-426
-411
-399
-385
-401
-455
-514
-562
-599
-640
-693
-742
-778
-820
-867
-880
-847
-775
-644
-448
-247
-81
46
119
140
152
150
118
95
84
56
39
51
40
25
61
83
43
30
71
77
49
56
70
50
50
96
121
92
68
83
92
71
52
36
0
-21
-3
-2
-39
-58
-49
-42
-39
-29
-26
-31
-29
-23
-32
-52
-50
-26
-25
-54
-49
11
66
69
37
1
-28
-42
-30
-20
-36
-38
-31
-77
-67
93
235
399
756
836
245
-348
-363
-197
-179
-122
18
143
283
446
543
526
437
345
266
193
149
134
120
114
132
162
194
227
261
282
266
218
167
107
27
-49
-110
-171
-226
-257
-268
-274
-278
-283
-281
-262
-240
-232
-234
-237
-228
-208
-200
-195
-120
50
255
434
531
512
425
294
144
188
429
369
-125
-470
-433
-384
-429
-417
-391
-405
-408
-406
-424
-428
-414
-409
-409
-383
-337
-307
-279
-219
-161
-128
-79
-19
10
27
50
41
18
22
19
-6
-16
-16
-26
-12
22
33
57
142
231
307
486
721
852
1006
1271
1241
716
156
-103
-217
-288
-274
-253
-283
-297
-275
-269
-285
-300
-309
-319
-332
-376
-467
-549
-560
-518
-450
-326
-150
10
146
287
362
321
280
315
321
252
202
193
173
150
143
136
133
137
128
105
93
100
106
91
70
67
71
62
55
54
44
30
20
11
9
12
7
1
9
18
17
18
24
28
24
20
17
15
10
3
-4
-7
-9
-8
-8
-19
-37
-44
-38
-34
-44
-52
-22
36
63
36
1
-10
-13
-14
-14
-35
-55
-26
-15
-56
-11
148
291
451
559
286
-227
-410
-251
-159
-196
-230
-252
-251
-221
-203
-185
-155
-138
-122
-94
-75
-61
-37
-14
21
86
162
225
276
320
348
335
288
249
222
169
89
19
-32
-78
-115
-132
-145
-166
-185
-191
-183
-168
-165
-182
-201
-199
-173
-168
-200
-199
-133
-79
-78
-98
-125
-143
-135
-127
-119
-100
-107
-104
-62
-90
-117
41
234
388
703
806
222
-412
-388
-149
-175
-227
-177
-172
-184
-149
-136
-163
-168
-140
-118
-110
-91
-56
-21
20
79
155
245
338
402
431
437
390
274
145
50
-38
-126
-172
-178
-184
-194
-198
-195
-174
-145
-132
-130
-121
-106
-76
-44
-46
-51
7
85
108
85
55
37
41
47
45
63
76
73
102
101
54
150
345
441
675
1049
861
117
-239
-53
39
-39
-26
7
-20
-38
-44
-43
-17
-3
-10
7
40
65
98
134
158
200
286
387
455
471
457
434
388
299
185
84
8
-53
-100
-128
-143
-159
-172
-176
-167
-160
-177
-204
-210
-208
-219
-238
-263
-272
-253
-255
-308
-370
-405
-429
-451
-460
-463
-485
-515
-523
-545
-588
-566
-482
-364
-158
-2
-77
