# session 11
-352
-392
-421
-431
-454
-516
-582
-626
-679
-748
-795
-835
-909
-990
-1040
-1096
-1169
-1223
-1271
-1349
-1434
-1498
-1557
-1629
-1701
-1768
-1855
-1952
-2005
-2025
-2084
-2173
-2204
-2197
-2249
-2352
-2434
-2499
-2579
-2643
-2688
-2756
-2799
-2689
-2338
-1777
-1191
-695
-171
274
275
40
163
578
810
851
954
1144
1288
1318
1334
1474
1663
1783
1896
2041
2139
2201
2302
2375
2340
2282
2288
2302
2266
2211
2149
2060
1960
1880
1822
1767
1701
1639
1582
1510
1425
1338
1258
1221
1199
1101
971
921
906
852
801
767
725
693
664
606
565
548
458
279
134
84
102
162
225
258
256
236
246
276
256
276
418
528
621
810
699
81
-371
-292
-202
-337
-440
-488
-478
-249
48
86
-86
-237
-323
-379
-413
-446
-480
-508
-525
-506
-471
-484
-502
-463
-437
-461
-467
-475
-557
-657
-724
-834
-990
-1097
-1149
-1184
-1188
-1183
-1217
-1240
-1190
-1134
-1168
-1252
-1280
-1228
-1166
-1156
-1145
-1060
-963
-944
-996
-1064
-1081
-1053
-1070
-1097
-1029
-936
-879
-817
-767
-667
-440
-218
17
314
220
-386
-725
-503
-335
-398
-355
-250
-270
-302
-260
-228
-233
-237
-238
-231
-203
-180
-169
-108
23
127
158
187
230
259
342
485
552
521
474
400
327
377
513
610
706
840
945
1052
1237
1428
1556
1635
1634
1561
1497
1426
1315
1261
1291
1298
1262
1246
1242
1243
1298
1383
1407
1354
1274
1205
1151
1084
1006
905
619
183
-39
-144
-675
-1414
-1637
-1429
-1308
-1238
-1024
-758
-500
-189
152
435
606
710
835
913
773
441
131
-62
-208
-342
-432
-475
-506
-527
-529
-531
-539
-523
-496
-506
-531
-517
-474
-434
-395
-335
-239
-124
-30
32
70
94
135
164
121
111
229
274
33
-376
-712
-847
-782
-642
-545
-466
-375
-329
-352
-394
-427
-440
-437
-445
-425
-290
-67
103
148
113
94
137
196
223
243
260
226
140
43
-57
-158
-245
-317
-375
-415
-446
-463
-467
-480
-490
-471
-442
-428
-417
-404
-396
-387
-367
-341
-320
-308
-296
-277
-253
-227
-207
-191
-171
-154
-149
-149
-142
-120
-78
-25
19
46
66
109
186
263
296
286
261
241
225
219
231
241
234
215
176
157
217
312
423
535
404
-9
-248
-139
23
129
124
36
456
1493
2057
1646
1108
936
807
639
566
497
404
369
357
325
303
295
306
321
254
121
69
112
126
76
32
8
-45
-109
-125
-144
-199
-189
-183
-283
-234
-135
-580
-1214
-1031
-327
-85
-205
-192
-131
-127
-89
-63
-94
-120
-130
-144
-148
-132
-133
-160
-159
-152
-175
-110
48
160
326
518
276
-322
-551
-336
-223
-286
-277
-229
-239
-249
-228
-216
-224
-216
-181
-161
-161
-141
-104
-81
-60
-24
23
88
166
225
250
249
241
220
151
45
-37
-90
-148
-200
-214
-199
-171
-130
-78
-12
85
275
571
874
1159
1516
1784
1571
858
119
-267
-367
-382
-359
-306
-298
-360
-424
-449
-471
-532
-605
-654
-688
-718
-745
-776
-795
-761
-670
-547
-396
-227
-80
36
142
213
213
192
212
233
202
157
138
129
115
99
81
75
82
50
-35
-93
-84
-74
-102
-111
-74
-44
-49
-50
-27
-16
-29
-30
-7
4
-1
11
27
7
-22
-10
26
31
-5
-35
1
95
156
145
116
97
83
102
123
87
65
108
90
45
177
375
484
702
868
486
-117
-221
-6
24
-34
-5
8
-18
-16
0
4
4
2
8
16
17
26
52
76
101
147
198
233
258
278
284
281
275
253
216
167
101
38
-5
-36
-62
-82
-91
-90
-86
-86
-76
-62
-66
-76
-64
-42
-34
-26
1
33
50
41
11
-19
-42
-66
-74
-71
-85
-78
-48
-79
-88
27
149
307
574
534
-15
-426
-335
-204
-262
-279
-241
-252
-259
-244
-245
-235
-211
-210
-210
-178
-143
-132
-134
-125
-95
-50
-5
37
81
118
129
111
68
8
-48
-102
-171
-238
-270
-266
-259
-264
-270
-256
-229
-212
-215
-224
-224
-202
-179
-188
-184
-109
-24
-22
-72
-98
-97
-105
-118
-115
-106
-106
-95
-91
-98
-42
73
190
362
453
156
-300
-382
-180
-110
-157
-141
-108
-114
-115
-102
-97
-87
-67
-54
-43
-15
14
31
59
105
147
192
246
301
350
378
374
358
338
302
253
200
144
106
106
119
117
116
134
157
173
183
190
203
227
261
304
324
311
315
357
380
351
316
307
304
302
313
322
326
358
383
369
415
538
640
770
877
666
252
140
325
420
404
433
462
455
465
487
490
491
507
524
530
533
553
566
563
598
646
579
431
401
522
629
644
656
683
622
535
515
92
-1246
-2943
-4178
-5148
-5969
-5797
-4529
-3335
-2759
-2345
-1923
-1624
-1361
-1097
-920
-770
-569
-386
-276
-203
-141
-87
-27
55
134
177
234
328
358
362
499
672
799
1040
1165
765
263
255
459
483
484
546
546
520
534
546
542
540
541
552
565
568
566
570
582
605
637
674
718
763
788
791
784
756
682
576
472
380
299
239
198
158
131
123
103
70
69
101
112
95
112
167
178
137
139
190
189
132
96
69
8
-19
19
22
-10
-6
-44
-87
49
221
304
531
680
224
-408
-486
-281
-266
-300
-275
-319
-380
-382
-384
-388
-357
-329
-316
-297
-282
-269
-232
-194
-175
-120
-37
-45
-129
-114
6
66
34
-12
-62
-125
-176
-207
-219
-217
-212
-203
-188
-170
-134
-88
-68
-49
8
57
62
79
145
212
236
217
187
185
192
181
200
232
220
235
278
221
166
253
339
471
768
747
136
-357
-306
-180
-230
-247
-223
-245
-255
-248
-254
-238
-207
-205
-206
-190
-179
-174
-178
-212
-253
-302
-400
-494
-486
-411
-353
-292
-221
-199
-223
-237
-250
-278
-272
-233
-221
-228
-203
-166
-156
-135
-88
-67
-71
-41
6
10
-1
31
83
107
106
87
48
34
88
144
127
93
120
136
89
129
282
385
552
842
750
157
-205
-58
74
14
-1
29
11
-9
8
41
70
79
84
92
90
103
138
156
167
206
238
260
330
399
373
313
320
333
279
205
149
94
50
24
-6
-41
-50
-29
-13
-22
-34
-24
-7
-13
-36
-43
-20
-3
-27
-63
-54
-13
-8
-60
-123
-155
-160
-158
-147
-128
-98
-50
-39
-67
-12
117
224
403
554
311
-153
-290
-149
-96
-118
-102
-102
-106
-85
-88
-103
-84
-54
-45
-50
-39
-6
-9
-74
-116
-76
-16
16
54
103
124
125
134
133
92
29
-25
-72
-117
-148
-165
-178
-186
-194
-204
-209
-214
-219
-217
-211
-213
-218
-211
-182
-147
-136
-145
-126
-76
-61
-99
-131
-124
-110
-106
-106
-113
-100
-62
-66
-90
-21
91
167
254
208
-164
-539
-527
-340
-296
-316
-291
-272
-256
-221
-196
-183
-160
-131
-105
-73
-40
-15
10
43
84
134
190
249
312
372
406
413
409
371
285
178
70
-47
-134
-142
-105
-78
-63
-43
-22
5
34
48
59
79
82
61
56
77
93
82
71
99
157
188
167
141
154
178
191
211
225
235
273
280
243
321
488
625
896
1159
841
159
-64
144
222
171
204
266
277
227
144
127
177
204
219
268
303
304
311
339
365
385
423
489
539
555
576
603
589
534
463
372
273
194
132
73
22
-15
-39
-49
-58
-86
-124
-151
-170
-188
-201
-209
-221
-252
-298
-309
-264
-223
-240
-304
-363
-395
-432
-469
-472
-484
-516
-525
-565
-593
-471
-320
-228
-33
4
-488
-1006
-995
-838
-897
-927
-866
-894
-951
-938
-914
-913
-929
-954
-944
-905
-888
-852
-744
-605
-464
-305
-149
-3
171
377
574
669
561
301
38
-190
-384
-483
-536
-630
-698
-694
-703
-745
-779
-822
-843
-798
-759
-776
-788
-775
-782
-803
-793
-739
-668
-624
-626
-644
-639
-634
-643
-611
-544
-517
-485
-418
-398
-342
-141
62
214
334
163
-266
-414
-191
-14
36
125
247
380
514
589
654
758
812
794
797
833
882
953
1022
1073
1155
1293
1443
1562
1656
1779
1961
2121
2173
2160
2153
2153
2146
2117
2101
2161
2198
2169
2267
2366
2094
1759
1923
2332
2500
2539
2657
2777
2871
2988
3096
3157
3217
3333
3476
3566
3591
3595
3597
3602
3612
3612
3590
3580
3620
3615
3478
3376
3407
3355
3231
3158
2699
1575
504
39
-285
-848
-1427
-2035
-2916
-3882
-4615
-5172
-5692
-6153
-6563
-6926
-7187
-7382
-7588
-7772
-7904
-8029
-8157
-8260
-8330
-8377
-8401
-8430
-8495
-8579
-8675
-8788
-8888
-8971
-9030
-9012
-9010
-9104
-8828
-7557
-5557
-3740
-2472
-1485
-613
104
698
1235
1702
2081
2406
2710
2979
3199
3398
3599
3779
3923
4038
4127
4174
4170
4171
4222
4245
4188
4175
4226
4181
4098
4151
4216
4261
4510
4676
4240
3566
3334
3411
3386
3289
3219
3129
3030
2937
2827
2748
2705
2594
2452
2399
2286
1949
1638
1590
1626
1585
1567
1598
1580
1516
1478
1457
1394
1286
1165
1026
878
758
653
549
486
461
419
361
349
442
623
800
992
1269
1365
879
20
-577
-740
-764
-803
-828
-854
-877
-852
-790
-774
-846
-956
-1041
-1106
-1187
-1257
-1254
-1201
-1182
-1186
-1140
-1056
-991
-922
-798
-682
-735
-992
-1246
-1300
-1232
-1205
-1217
-1214
-1215
-1219
-1200
-1176
-1165
-1150
-1113
-1071
-1088
-1169
-1202
-1129
-1037
-988
-955
-913
-863
-821
-797
-766
-722
-693
-662
-643
-689
-699
-560
-443
-508
-590
-543
-470
-437
-393
-337
-299
-264
-215
-164
-122
-81
-41
1
47
59
-30
-215
-404
-544
-621
-623
-633
-746
-837
-718
-466
-268
-144
-32
92
192
230
282
423
580
705
727
451
17
-101
116
288
334
394
457
494
534
566
594
637
671
688
719
755
773
797
843
859
834
847
906
932
968
1037
1004
953
1010
812
221
-103
96
230
80
-64
-167
-280
-268
-149
-97
-157
-221
-204
-159
-170
-206
-223
-245
-275
-302
-341
-371
-360
-307
-202
-64
40
88
114
138
161
192
231
253
253
277
307
287
326
482
602
746
963
806
187
-163
11
166
119
109
121
80
66
82
81
89
104
105
111
126
135
145
160
176
200
223
233
254
277
267
249
250
220
137
55
-59
-283
-500
-530
-439
-430
-527
-601
-586
-514
-436
-387
-363
-330
-292
-289
-287
-230
-177
-193
-203
-136
-53
-18
-13
-25
-45
-51
-48
-34
-18
-21
11
44
-47
-113
29
216
441
764
696
63
-353
-213
-70
-103
-65
-73
-274
-447
-435
-358
-345
-349
-285
-216
-266
-372
-409
-418
-437
-387
-251
-105
15
109
168
199
201
165
114
68
3
-108
-243
-345
-370
-350
-344
-341
-302
-259
-237
-202
-152
-132
-123
-88
-41
-22
-24
5
80
146
162
138
101
80
80
96
116
108
104
158
177
131
212
385
497
757
1062
780
87
-157
24
61
-11
13
33
20
39
49
48
74
94
84
80
93
111
135
148
134
127
171
249
317
361
385
392
374
316
217
93
-22
-99
-146
-188
-220
-226
-223
-215
-198
-177
-146
-112
-100
-99
-82
-67
-72
-87
-102
-91
-45
-18
-47
-91
-121
-146
-155
-132
-117
-131
-118
-86
-102
-77
74
210
325
492
405
-66
-372
-240
-95
-143
-171
-138
-143
-148
-120
-104
-105
-93
-84
-93
-93
-72
-54
-41
-18
8
40
88
145
207
263
288
281
271
243
175
106
63
22
-21
-42
-56
-73
-65
-45
-51
-65
-44
-22
-42
-67
-46
-2
11
2
17
52
71
79
78
41
-5
-19
-13
-20
-39
-35
5
16
4
79
207
287
386
405
106
-258
-260
-73
-38
-70
-50
-59
-93
-94
-99
-123
-134
-137
-143
-134
-115
-110
-110
-91
-67
-57
-31
26
63
63
79
106
93
57
31
-10
-71
-109
-128
-160
-187
-179
-161
-157
-159
-150
-132
-117
-116
-130
-138
-113
-69
-51
-68
-71
-36
-6
-22
-70
-105
-113
-121
-125
-116
-122
-113
-77
-109
-115
67
200
243
658
1165
896
175
-31
139
118
14
24
27
-3
-5
-13
-38
-41
-30
-31
-32
-13
15
27
26
42
80
119
162
223
283
330
387
431
408
328
235
131
33
-23
-49
-77
-102
-115
-129
-140
-141
-150
-186
-230
-256
-276
-307
-339
-352
-322
-257
-199
-172
-169
-172
-154
-108
-66
-38
-19
-2
13
2
13
151
318
420
623
767
399
-175
-281
-77
-28
-70
-95
-169
-209
-164
-128
-119
-98
-80
-70
-74
-111
-160
-197
-195
-134
-50
26
109
190
242
274
293
282
231
160
98
48
-2
-42
-60
-79
-103
-102
-78
-66
-74
-67
-50
-64
-70
-18
7
-43
-55
11
77
119
128
78
26
18
19
31
32
-42
-107
-99
-115
-85
103
278
420
611
451
-187
-590
-463
-324
-351
-309
-220
-194
-179
-154
-133
-109
-98
-102
-91
-71
-57
-36
-8
19
59
115
168
217
271
314
325
316
300
254
175
104
55
5
-45
-78
-101
-119
-122
-115
-115
-109
-88
-73
-64
-40
-8
8
1
-10
16
90
150
132
68
40
54
56
44
44
42
50
70
41
30
159
291
386
622
698
217
-310
-287
-73
-92
-153
-124
-120
-139
-137
-140
-146
-129
-106
-102
-105
-92
-74
-68
-49
-5
40
80
130
183
216
223
222
222
191
114
38
-14
-68
-123
-149
-159
-175
-180
-163
-154
-173
-189
-168
-142
-151
-163
-143
-123
-128
-125
-93
-55
-43
-69
-102
-109
-110
-123
-125
-128
-142
-116
-90
-121
-99
18
126
294
496
350
-123
-353
-217
-110
-134
-131
-96
-83
-84
-89
-87
-72
-62
-61
-53
-33
-11
9
26
50
88
124
152
194
251
289
297
305
312
289
236
183
137
100
81
62
33
35
66
70
54
68
92
87
68
