# session 132
11
308
544
852
913
311
-471
-736
-661
-669
-699
-667
-661
-661
-634
-628
-633
-619
-622
-650
-664
-659
-669
-706
-726
-696
-654
-622
-558
-450
-347
-268
-195
-124
-80
-77
-96
-108
-117
-139
-158
-160
-162
-166
-159
-151
-151
-138
-98
-38
6
6
-22
-45
-49
-29
7
26
16
26
70
71
50
137
266
332
456
545
267
-163
-230
-51
-12
-61
-44
-28
-50
-50
-27
-31
-65
-69
-19
22
20
24
70
126
170
222
289
350
377
378
383
380
336
262
180
101
58
62
76
86
93
73
31
24
63
77
42
46
113
142
103
70
52
28
22
38
41
32
35
45
18
-17
39
138
221
397
522
251
-188
-286
-146
-116
-143
-112
-97
-99
-80
-70
-71
-60
-53
-52
-33
-11
5
35
73
104
150
208
238
243
255
252
215
176
136
76
36
22
-13
-53
-50
-30
-33
-43
-37
-17
-3
-13
-27
-4
32
23
-28
-64
-70
-81
-97
-95
-98
-118
-129
-161
-207
-168
-79
1
207
410
180
-319
-494
-365
-322
-355
-321
-288
-293
-281
-254
-238
-224
-201
-173
-146
-123
-96
-62
-25
16
56
87
118
156
182
183
158
115
56
-12
-68
-91
-100
-125
-139
-127
-140
-183
-176
-120
-99
-119
-110
-59
-13
-5
-17
-18
-17
-42
-68
-55
-42
-53
-29
-3
-24
21
159
268
424
591
382
-114
-291
-129
-53
-70
-43
-54
-84
-57
-36
-47
-33
-4
12
32
63
90
114
141
184
239
287
336
384
395
367
338
291
196
90
28
5
-8
-20
-28
-30
-34
-38
-23
15
49
86
172
308
482
719
938
1029
1158
1478
1596
1085
280
-205
-336
-394
-445
-460
-462
-462
-471
-502
-532
-548
-577
-619
-659
-697
-737
-767
-779
-777
-747
-653
-508
-371
-252
-124
-21
14
7
-11
-45
-81
-91
-81
-84
-107
-113
-90
-79
-89
-65
-19
-18
-38
-18
11
1
-14
-10
-6
-5
-15
-43
-30
54
132
138
107
81
64
52
53
56
46
62
104
76
42
175
345
429
629
770
386
-172
-237
-33
-41
-125
-89
-48
-65
-75
-56
-34
-31
-28
1
25
23
31
65
104
151
212
279
336
366
366
350
316
261
198
130
59
6
-30
-62
-84
-95
-116
-132
-108
-59
-30
-21
2
51
102
120
89
46
27
11
-9
-11
-9
-13
3
-8
-45
16
131
212
445
713
486
-87
-312
-191
-156
-185
-149
-146
-175
-151
-127
-156
-177
-164
-153
-160
-172
-168
-130
-76
-33
4
42
75
106
121
97
48
-14
-96
-173
-214
-240
-259
-257
-246
-244
-240
-237
-235
-214
-181
-173
-178
-142
-78
-52
-76
-109
-125
-132
-129
-117
-118
-129
-109
-97
-134
-112
9
106
247
465
379
-97
-396
-289
-165
-185
-196
-177
-169
-149
-128
-113
-84
-64
-59
-35
1
32
73
114
147
214
306
363
375
396
423
408
349
288
230
161
118
122
120
97
103
136
142
121
116
136
148
133
120
139
167
182
207
265
367
494
564
554
517
429
347
493
709
512
16
-221
-186
-203
-257
-242
-238
-271
-280
-280
-300
-328
-353
-371
-382
-396
-402
-385
-362
-352
-331
-280
-222
-177
-124
-59
-10
0
-7
-2
3
-12
-31
-30
-22
-32
-51
-55
-41
-29
-5
60
137
233
430
651
777
992
1344
1356
795
136
-224
-385
-477
-497
-493
-504
-510
-518
-541
-561
-589
-644
-702
-748
-796
-834
-848
-849
-809
-696
-545
-375
-177
4
125
210
268
285
277
249
208
192
186
155
140
156
147
132
140
128
104
116
127
110
105
112
116
119
110
98
110
127
122
108
95
89
100
102
83
100
179
250
248
205
174
157
139
135
127
92
94
124
90
99
278
502
731
936
743
142
-210
-106
-3
-52
-71
-57
-68
-83
-90
-77
-63
-73
-84
-83
-74
-48
-33
-35
-1
54
95
160
227
231
215
217
182
120
77
14
-74
-132
-163
-190
-202
-205
-210
-203
-199
-216
-238
-251
-234
-172
-115
-130
-195
-235
-231
-225
-237
-246
-256
-253
-216
-217
-250
-156
12
95
232
374
123
-353
-461
-284
-244
-278
-241
-233
-254
-222
-188
-196
-203
-190
-172
-149
-122
-90
-46
10
68
134
217
299
359
389
382
328
250
177
116
55
13
13
21
-3
-7
39
75
116
220
309
387
620
943
1167
1406
1703
1673
1132
433
-73
-339
-431
-436
-438
-458
-465
-459
-465
-485
-506
-533
-577
-625
-661
-693
-708
-671
-580
-473
-350
-181
1
129
204
243
238
215
202
182
146
126
115
98
98
117
106
72
65
70
49
33
49
62
45
18
5
2
-3
-18
-43
-61
-50
-27
-30
-36
-11
13
6
-16
-36
-61
-70
-53
-48
-70
-75
-74
-115
-119
-33
33
140
401
460
24
-408
-386
-227
-225
-231
-184
-176
-178
-151
-136
-132
-114
-90
-75
-69
-57
-21
19
43
72
121
168
204
230
239
235
220
189
150
110
60
13
-3
0
-8
-27
-35
-25
-2
19
31
36
50
79
103
98
68
30
0
-7
15
33
15
7
49
57
19
58
157
252
411
469
158
-222
-229
-59
-44
-81
-55
-47
-59
-39
-23
-36
-50
-53
-53
-53
-54
-47
-25
9
49
101
169
237
279
292
289
261
204
132
58
-9
-54
-75
-84
-85
-86
-94
-94
-88
-91
-98
-96
-80
-25
41
36
-27
-65
-81
-104
-99
-85
-113
-125
-105
-135
-130
1
115
239
478
452
-64
-484
-424
-275
-290
-304
-276
-272
-267
-252
-255
-259
-233
-192
-178
-187
-169
-115
-64
-20
49
136
204
254
301
324
287
205
123
49
-20
-68
-109
-152
-161
-131
-119
-138
-140
-104
-81
-98
-92
-26
40
49
17
-24
-44
-27
-17
-47
-74
-64
-28
-21
-61
-20
149
271
327
387
222
-168
-314
-143
-47
-75
-46
-12
-37
-45
-19
-6
-2
17
39
51
65
87
110
141
187
239
291
344
379
380
360
326
265
179
100
48
20
7
-1
-8
-16
-32
-40
-12
30
67
126
217
358
599
872
1055
1268
1652
1923
1660
910
128
-326
-460
-489
-525
-542
-550
-577
-588
-591
-636
-685
-698
-719
-771
-813
-832
-844
-836
-789
-700
-588
-476
-348
-179
-31
24
13
-11
-36
-46
-45
-63
-86
-83
-74
-72
-60
-46
-42
-33
-20
-21
-31
-31
-31
-43
-59
-68
-68
-61
-63
-70
-44
15
42
22
3
-5
-25
-37
-28
-30
-33
4
22
-22
8
147
261
410
608
475
-16
-288
-166
-44
-53
-52
-37
-33
-17
-8
-11
-5
-3
1
18
20
18
55
104
129
171
243
294
321
352
363
339
310
276
217
146
87
42
12
-1
-11
-22
-29
-27
5
60
81
62
88
157
165
101
53
52
50
27
10
7
8
13
7
-18
-6
59
172
392
573
381
-60
-256
-168
-105
-112
-92
-74
-93
-118
-129
-130
-133
-132
-117
-105
-101
-78
-33
7
39
81
128
163
183
193
178
127
58
-7
-74
-140
-187
-212
-221
-215
-208
-206
-212
-214
-185
-127
-91
-71
-1
139
309
457
553
649
828
977
832
364
-114
-352
-413
-441
-464
-470
-467
-465
-476
-500
-520
-532
-547
-575
-604
-619
-632
-650
-641
-588
-502
-373
-210
-49
91
193
241
254
240
188
136
129
128
102
88
96
88
72
76
82
71
63
70
76
73
76
71
50
48
66
76
85
105
137
179
209
191
147
126
111
78
67
69
58
75
83
42
95
254
393
631
867
591
-35
-242
-35
43
-31
-43
-43
-59
-35
-19
-46
-54
-28
-10
6
26
28
36
78
131
182
246
303
329
340
343
317
262
191
105
18
-46
-86
-115
-131
-130
-121
-126
-134
-122
-118
-147
-164
-133
-86
-79
-118
-165
-191
-210
-212
-181
-157
-140
-61
15
43
215
519
691
839
1032
767
20
-432
-386
-342
-405
-390
-359
-375
-378
-373
-382
-381
-376
-384
-400
-423
-440
-440
-433
-423
-391
-335
-265
-177
-71
16
68
100
102
74
66
90
84
42
28
52
60
32
20
57
88
67
46
84
139
143
109
85
73
44
20
27
32
30
54
43
-4
59
179
238
464
792
606
-38
-338
-195
-126
-174
-142
-108
-131
-117
-68
-47
-42
-26
-8
5
25
50
81
127
180
222
260
301
337
362
369
341
290
241
192
130
74
50
47
34
4
-17
-24
-33
-43
-48
-56
-58
-36
-7
5
-1
-23
-55
-79
-81
-67
-60
-84
-99
-79
-101
-158
-124
-32
115
426
583
189
-335
-425
-305
-312
-328
-275
-250
-249
-233
-218
-205
-183
-158
-137
-122
-100
-69
-43
-15
35
92
130
149
159
166
166
144
93
32
-13
-41
-61
-82
-97
-89
-67
-64
-83
-84
-53
-25
-23
-19
23
76
89
65
43
31
25
26
29
22
13
27
31
-9
-6
75
142
242
387
275
-115
-302
-178
-105
-152
-144
-108
-106
-97
-84
-84
-72
-54
-50
-46
-35
-23
-3
28
53
84
141
202
245
281
297
279
246
204
136
70
37
22
7
-3
-13
-33
-61
-84
-79
-60
-60
-61
-33
7
41
47
1
-49
-45
-42
-72
-68
-51
-72
-76
-80
-120
-72
77
224
424
521
171
-319
-371
-172
-147
-192
-165
-177
-221
-210
-191
-203
-210
-213
-212
-177
-134
-129
-123
-64
28
108
170
222
257
277
285
266
204
127
63
4
-47
-65
-58
-66
-88
-102
-109
-103
-67
-24
3
65
209
429
696
902
1002
1199
1506
1467
877
173
-235
-374
-403
-406
-410
-410
-428
-473
-483
-458
-480
-544
-588
-620
-661
-697
-712
-706
-679
-622
-503
-332
-175
-42
93
191
215
199
165
115
78
72
70
63
62
59
58
68
75
67
58
62
67
64
52
45
47
44
23
4
18
37
16
-9
39
126
158
143
134
121
94
79
83
77
75
109
113
48
69
213
321
528
907
880
240
-230
-155
-39
-104
-135
-117
-128
-140
-146
-156
-160
-153
-131
-120
-128
-107
-70
-62
-36
34
73
82
118
156
162
159
134
69
0
-43
-75
-106
-133
-152
-154
-144
-139
-139
-128
-98
-67
-63
-70
-42
13
24
-24
-73
-88
-101
-125
-127
-123
-142
-136
-115
-159
-164
-27
103
230
467
461
-6
-373
-279
-133
-174
-191
-138
-124
-119
-95
-90
-99
-88
-57
-29
-18
-15
9
64
124
168
216
288
346
353
346
358
350
286
210
153
92
31
14
18
-9
-42
-49
-58
-83
-96
-77
-57
-63
-65
-21
34
37
0
-20
-13
-18
-35
-27
-8
-9
-6
-7
-24
26
129
194
334
527
383
-72
-278
-153
-85
-120
-100
-77
-103
-115
-113
-127
-131
-125
-129
-126
-110
-100
-82
-30
29
59
83
129
161
161
154
140
95
32
-24
-73
-116
-138
-144
-154
-158
-151
-147
-151
-148
-132
-113
-105
-114
-111
-74
-44
-63
-105
-135
-149
-159
-166
-158
-149
-149
-136
-134
-159
-96
69
203
383
585
396
-136
-365
-211
-120
-139
-115
-115
-137
-109
-84
-90
-81
-66
-56
-30
2
25
57
112
182
241
274
308
366
417
424
388
316
223
148
106
73
37
25
34
36
28
20
-3
-25
18
114
188
292
548
859
1092
1394
1767
1746
1100
277
-230
-402
-435
-439
-448
-463
-478
-491
-506
-524
-551
-598
-650
-689
-734
-779
-781
-744
-705
-638
-500
-315
-130
13
99
148
167
140
94
74
63
34
2
-5
11
19
6
-5
-14
-41
-63
-62
-63
-70
-72
-81
-93
-88
-84
-95
-98
-100
-121
-131
-111
-113
-150
-139
-48
34
41
16
5
-7
-22
-15
4
-7
-25
0
-3
-40
52
227
339
551
768
477
-131
-315
-125
-79
-146
-122
-99
-122
-111
-84
-85
-85
-62
-47
-45
-24
21
61
87
114
165
243
327
372
363
342
333
308
253
191
126
62
20
-5
-32
-46
-39
-36
-42
-38
-5
39
46
15
17
74
118
99
40
-19
-53
-62
-58
-22
56
148
254
373
440
433
383
344
473
711
600
83
-252
-205
-156
-219
-230
-201
-197
-203
-225
-248
-244
-253
-291
-307
-294
-293
-288
-258
-230
-214
-184
-148
-113
-66
-34
-31
-17
1
-10
-18
2
11
0
6
22
18
10
11
-2
-24
-24
-17
-34
-54
-41
4
39
24
-24
-51
-49
-49
-46
-34
-33
-31
-4
-6
-28
30
131
204
345
437
172
-241
-319
-158
-116
-161
-154
-141
-155
-158
-153
-152
-148
-139
-130
-119
-105
-78
-40
-3
48
116
181
236
275
288
293
294
252
174
110
65
30
18
21
20
17
29
41
38
58
121
177
261
453
651
775
970
1132
875
285
-149
-302
-369
-407
-409
-421
-443
-460
-482
-510
-541
-583
-628
-670
-721
-768
-780
-754
-699
-607
-465
-299
-144
-30
32
61
75
69
47
32
26
17
7
-3
-11
-12
-13
-19
-18
-3
2
-5
-7
-4
-8
-13
-14
-1
21
18
-13
-19
12
23
-12
-33
-5
23
8
-13
17
87
136
130
99
83
79
67
65
88
93
80
102
109
103
214
373
474
682
832
470
-79
-145
77
118
86
122
114
86
115
138
125
123
133
143
163
193
220
247
285
340
412
483
533
569
602
603
550
470
397
320
224
142
97
53
-4
-39
-35
-21
-14
18
107
230
376
580
798
1008
1291
1471
1165
451
-178
-507
-650
-701
-723
-763
-797
-812
-828
-850
-883
-928
-974
-1025
-1085
-1142
-1188
-1219
-1203
-1125
-1010
-883
-738
-588
-483
-453
-460
-460
