# session 147
-8
-14
-22
-44
-33
22
28
-29
-16
89
156
144
117
93
69
66
82
94
86
83
101
79
45
116
219
308
557
763
456
-85
-221
-83
-86
-135
-92
-92
-159
-187
-178
-178
-172
-151
-130
-121
-101
-41
18
32
55
134
206
216
203
214
224
179
91
20
-18
-56
-92
-94
-77
-73
-79
-74
-59
-41
-21
-10
-17
-15
15
35
7
-55
-100
-107
-114
-134
-136
-134
-142
-124
-117
-146
-104
14
131
266
275
-31
-353
-329
-186
-197
-226
-168
-132
-150
-160
-141
-124
-118
-97
-54
-24
2
67
149
211
260
305
342
374
379
344
300
255
182
96
45
38
51
56
53
60
77
74
51
54
81
76
45
51
81
73
24
-26
-54
-72
-93
-93
-64
-53
-55
-44
-70
-90
-3
106
196
341
320
-45
-341
-261
-121
-138
-145
-102
-110
-136
-128
-117
-119
-111
-91
-69
-43
-8
27
64
110
159
199
221
234
263
295
272
186
89
28
-10
-62
-107
-106
-88
-93
-107
-132
-166
-162
-131
-134
-152
-129
-88
-72
-84
-113
-144
-160
-160
-151
-150
-162
-149
-132
-154
-117
28
128
186
284
161
-250
-457
-290
-147
-173
-191
-166
-152
-144
-140
-129
-107
-105
-98
-46
7
27
54
109
176
252
332
397
432
426
384
322
241
147
67
15
-21
-49
-66
-71
-67
-65
-67
-38
30
83
131
279
570
854
988
1125
1414
1539
1129
413
-123
-361
-444
-468
-467
-467
-474
-481
-477
-481
-523
-582
-627
-668
-717
-757
-776
-783
-765
-687
-544
-374
-207
-59
43
85
91
80
61
52
48
32
26
49
80
100
109
120
142
169
187
195
207
233
253
249
242
244
225
198
212
231
197
151
156
187
185
140
87
65
60
48
47
44
21
13
4
-30
2
91
200
491
784
513
-134
-385
-248
-225
-293
-257
-224
-253
-257
-228
-212
-211
-205
-184
-164
-151
-119
-62
-11
36
104
170
205
222
233
227
195
145
82
12
-50
-91
-115
-123
-121
-125
-133
-132
-128
-116
-85
-72
-81
-55
-2
1
-49
-83
-93
-107
-106
-87
-105
-136
-99
-66
-117
-129
-30
78
200
287
101
-237
-308
-158
-119
-156
-117
-74
-81
-70
-27
-9
-18
-9
18
37
62
100
133
170
224
274
315
350
357
332
297
259
206
146
100
77
69
66
63
67
73
68
62
70
75
73
84
109
135
150
134
92
65
49
18
-3
-27
-96
-135
-105
-118
-144
-66
50
203
436
419
-13
-345
-270
-153
-192
-207
-168
-167
-176
-171
-178
-190
-192
-188
-177
-163
-142
-107
-63
-18
33
90
135
156
159
150
116
51
-28
-93
-138
-174
-198
-203
-195
-186
-191
-217
-225
-189
-162
-192
-203
-136
-65
-51
-72
-109
-147
-151
-132
-123
-130
-135
-117
-106
-124
-69
86
194
244
263
52
-322
-423
-233
-123
-137
-108
-66
-73
-93
-97
-71
-19
30
72
115
139
148
190
274
355
414
454
480
499
503
464
388
294
194
111
68
48
26
5
-2
3
3
-11
-10
24
59
87
174
344
566
801
980
1114
1343
1609
1544
986
273
-185
-349
-395
-420
-439
-467
-491
-489
-500
-550
-591
-603
-634
-686
-719
-739
-763
-759
-694
-586
-476
-356
-196
-36
59
78
58
37
36
38
29
20
7
-8
-1
13
3
-8
0
-10
-44
-58
-56
-73
-88
-85
-100
-134
-133
-101
-100
-123
-102
-33
26
31
-2
-20
-17
-26
-37
-31
-37
-47
-31
-47
-70
20
143
231
425
531
182
-265
-278
-108
-131
-178
-113
-81
-110
-108
-80
-76
-76
-44
-1
12
17
55
110
161
221
295
358
396
420
427
405
357
286
196
114
60
30
16
11
5
2
1
1
3
13
29
34
22
27
59
65
19
-33
-54
-65
-83
-93
-90
-94
-91
-78
-89
-87
-25
44
164
360
320
-77
-357
-261
-125
-139
-152
-120
-102
-90
-87
-93
-79
-54
-56
-63
-34
13
38
53
97
164
223
250
249
253
258
213
123
44
-4
-38
-57
-59
-50
-35
-29
-42
-60
-73
-73
-63
-64
-68
-33
27
41
5
-24
-33
-48
-66
-70
-69
-77
-73
-69
-96
-87
4
103
233
396
302
-97
-337
-240
-142
-169
-174
-155
-168
-180
-187
-200
-198
-186
-179
-165
-145
-118
-76
-21
34
90
145
200
238
248
238
214
165
108
69
35
-3
-19
-10
0
6
6
-12
-31
-25
-16
-37
-58
-15
61
80
25
-30
-40
-39
-48
-35
-11
-26
-33
0
-15
-36
66
201
328
510
439
-67
-447
-350
-196
-218
-221
-190
-199
-188
-167
-170
-152
-121
-116
-105
-64
-21
13
51
110
190
274
336
365
362
341
308
253
167
69
1
-27
-33
-17
2
-11
-36
-30
-3
13
2
-25
-16
50
113
116
70
27
15
-6
-63
-95
-87
-87
-77
-56
-97
-114
13
143
165
140
-27
-338
-457
-305
-194
-204
-192
-167
-163
-143
-127
-130
-114
-82
-73
-81
-65
-14
50
106
171
251
324
382
422
410
348
273
185
80
-7
-58
-93
-118
-129
-134
-116
-73
-64
-87
-53
16
8
-39
-16
38
40
13
-2
-4
-12
-44
-63
-44
-35
-34
-26
-51
-30
97
210
377
678
654
118
-268
-179
-72
-140
-173
-161
-190
-216
-217
-211
-198
-182
-156
-114
-80
-55
-10
54
108
148
198
257
291
284
253
220
182
121
56
22
7
-13
-34
-50
-52
-38
-46
-75
-77
-64
-86
-108
-75
-15
5
-33
-74
-68
-62
-99
-118
-100
-106
-116
-105
-132
-157
-109
-45
151
579
749
273
-266
-311
-176
-196
-239
-221
-215
-217
-211
-207
-190
-169
-165
-152
-112
-75
-53
-13
55
116
158
193
215
209
181
142
95
48
-1
-55
-100
-116
-114
-114
-113
-101
-92
-100
-101
-76
-53
-46
-25
23
60
63
51
39
26
11
0
-8
-14
-11
14
31
1
-7
53
110
211
400
373
22
-206
-122
-52
-83
-49
4
6
14
36
38
43
53
51
49
63
83
104
132
165
199
229
256
268
264
253
237
202
153
109
79
56
34
18
9
5
0
-8
-22
-37
-42
-28
-16
-16
-2
39
66
40
-22
-63
-66
-65
-71
-73
-84
-87
-78
-122
-167
-97
20
181
462
527
107
-314
-322
-211
-217
-224
-222
-251
-259
-258
-269
-255
-229
-216
-192
-170
-162
-136
-78
-17
42
102
146
171
177
164
136
89
20
-44
-77
-95
-104
-92
-84
-97
-97
-85
-95
-104
-87
-73
-89
-110
-83
-19
23
35
36
-5
-57
-33
11
-18
-64
-40
12
9
-1
92
225
280
325
297
3
-309
-268
-80
-52
-80
-59
-49
-28
9
9
8
36
48
45
63
86
104
138
184
231
275
313
346
366
355
313
251
171
85
18
-20
-42
-63
-87
-105
-111
-117
-120
-104
-69
-51
-67
-68
0
80
89
59
46
24
-21
-44
-31
-22
-35
-39
-32
-71
-112
-58
30
167
488
670
277
-269
-339
-161
-156
-218
-205
-193
-201
-198
-191
-176
-158
-151
-145
-147
-167
-157
-95
-35
9
71
143
191
212
215
196
156
98
32
-18
-50
-80
-101
-107
-114
-125
-126
-129
-145
-149
-137
-145
-159
-130
-85
-71
-73
-76
-96
-111
-101
-89
-83
-82
-77
-46
-30
-61
-31
85
188
298
350
135
-173
-210
-76
-37
-48
-37
-53
-66
-35
-21
-50
-57
-14
34
69
110
151
185
231
278
301
315
329
319
288
251
196
125
64
22
-8
-16
-9
-2
4
14
23
27
26
26
39
45
30
38
99
151
144
113
89
67
58
78
98
86
63
65
52
7
15
79
167
396
644
474
-17
-225
-61
107
164
159
93
17
-37
-89
-124
-145
-181
-203
-189
-170
-153
-119
-81
-40
24
108
189
243
251
211
135
35
-72
-156
-210
-256
-298
-319
-322
-320
-316
-317
-318
-288
-212
-133
-94
-70
-32
6
15
-25
-110
-182
-211
-238
-276
-290
-308
-345
-343
-339
-373
-326
-189
-82
8
-17
-357
-723
-700
-493
-457
-511
-503
-471
-468
-477
-441
-345
-260
-203
-136
-80
-46
13
94
170
256
344
404
436
444
426
397
360
310
265
222
181
164
166
151
128
133
143
135
148
193
241
311
417
553
793
1132
1354
1453
1717
2045
1899
1187
438
21
-141
-195
-198
-208
-245
-272
-280
-290
-314
-356
-394
-417
-460
-531
-578
-576
-542
-474
-373
-252
-108
48
167
230
256
251
222
208
204
181
172
193
199
179
145
92
40
7
-35
-89
-131
-160
-189
-216
-231
-236
-238
-240
-244
-258
-274
-274
-269
-278
-271
-223
-175
-171
-207
-244
-257
-263
-270
-271
-276
-272
-244
-251
-264
-177
-70
18
240
376
46
-400
-422
-233
-188
-182
-132
-135
-151
-114
-79
-66
-40
-9
21
66
115
150
186
226
264
320
394
443
443
420
398
380
354
302
239
199
176
147
126
119
101
79
73
68
46
25
24
20
-6
-22
6
42
41
10
-17
-23
-24
-33
-42
-46
-57
-53
-46
-76
-82
-13
67
196
363
263
-148
-401
-321
-228
-259
-290
-290
-294
-306
-331
-353
-362
-380
-394
-386
-376
-367
-346
-329
-310
-264
-215
-191
-138
-6
153
282
402
513
578
644
770
866
819
690
570
437
268
101
-36
-142
-215
-276
-347
-407
-426
-436
-490
-574
-640
-681
-728
-784
-806
-810
-843
-849
-783
-693
-522
-241
-14
188
452
413
-25
-218
101
437
566
695
861
968
1002
964
857
746
669
636
643
641
580
490
450
518
661
778
836
889
943
954
892
743
559
458
414
294
108
-45
-174
-313
-425
-473
-485
-509
-533
-507
-440
-313
-85
135
330
658
910
592
-224
-963
-1322
-1414
-1438
-1468
-1461
-1418
-1390
-1342
-1262
-1229
-1211
-1099
-947
-850
-767
-647
-528
-422
-282
-109
49
196
359
500
568
586
599
606
600
585
565
558
594
650
693
729
755
756
746
749
774
806
797
759
782
840
795
645
506
397
275
158
62
-34
-114
-161
-216
-288
-310
-269
-242
-267
-308
-331
-346
-362
-363
-355
-370
-366
-334
-362
-383
-275
-160
-36
248
326
-155
-632
-600
-440
-462
-464
-406
-418
-439
-399
-361
-349
-325
-280
-248
-237
-204
-139
-87
-29
78
179
231
279
324
327
314
300
249
174
123
92
79
85
71
40
53
100
123
130
151
176
198
214
207
199
224
251
232
173
115
80
61
47
37
24
10
28
50
24
27
119
218
369
571
479
33
-237
-131
-29
-63
-53
-11
-31
-54
-35
-12
-7
-20
-42
-43
-18
13
35
41
42
71
130
172
185
194
189
142
79
29
-15
-57
-83
-91
-90
-93
-114
-141
-150
-150
-166
-185
-181
-159
-148
-154
-149
-125
-116
-150
-201
-225
-228
-243
-252
-240
-242
-245
-221
-231
-261
-203
-117
-29
189
308
-31
-490
-556
-417
-411
-449
-440
-444
-453
-438
-428
-431
-434
-430
-410
-385
-355
-308
-235
-92
146
401
577
672
717
722
706
691
667
617
560
524
521
537
530
504
520
601
685
717
675
570
464
391
310
213
164
167
158
106
33
-24
-60
-109
-146
-138
-154
-208
-222
-259
-340
-281
-99
59
252
308
-94
-577
-597
-395
-352
-344
-277
-258
-280
-290
-292
-269
-229
-218
-211
-171
-117
-66
-21
35
127
222
291
397
530
555
477
411
343
234
168
186
202
185
206
281
345
391
444
459
428
446
511
559
652
810
953
1179
1509
1503
873
32
-533
-795
-905
-954
-998
-1044
-1072
-1098
-1129
-1156
-1185
-1222
-1267
-1326
-1391
-1433
-1448
-1439
-1375
-1234
-1046
-858
-695
-582
-524
-494
-476
-478
-479
-450
-414
-401
-383
-344
-317
-305
-274
-181
6
233
377
428
476
516
515
519
561
621
694
756
751
688
634
618
617
598
554
530
586
721
876
1014
1096
1065
972
927
909
869
873
903
853
768
715
630
550
536
499
519
683
583
28
-392
-353
-271
-350
-394
-385
-416
-448
-452
-457
-460
-445
-418
-391
-372
-351
-316
-276
-240
-202
-166
-128
-63
13
58
90
147
186
169
140
130
120
102
89
100
144
198
238
279
340
411
472
519
553
553
512
475
448
362
196
38
-61
-156
-270
-356
-417
-487
-526
-538
-587
-618
-572
-522
-406
-207
-282
-726
-1027
-971
-907
-963
-984
-973
-987
-986
-974
-976
-969
-955
-951
-932
-889
-853
-824
-774
-709
-648
-582
-490
-349
-163
19
170
296
351
313
275
292
315
315
308
301
300
289
247
204
191
199
226
258
260
273
373
506
574
603
645
688
699
657
593
550
498
439
418
382
328
396
566
730
923
964
582
116
68
253
299
272
311
349
348
352
369
382
413
471
519
527
494
449
443
490
552
610
659
679
672
636
552
443
343
236
123
49
24
23
32
43
44
50
75
86
24
-103
-214
-263
-292
-341
-376
-368
-360
-395
-455
-518
-578
-624
-662
-694
-707
-730
-761
-751
-757
-804
-741
-583
-474
-323
-212
-503
-966
-1020
-806
-754
-777
-711
-653
-626
-562
-507
-495
-476
-427
-379
-344
-291
-216
-151
-102
-33
64
146
194
242
285
269
206
156
109
34
-25
-22
-15
-34
-10
69
132
165
205
258
305
358
492
732
933
1065
1356
1743
1725
1129
388
-92
-275
-303
-297
-300
-299
-293
-299
-313
-329
-348
-368
-398
-443
-475
-468
-439
-395
-308
-167
5
168
279
335
379
405
376
326
318
328
302
260
246
262
275
266
248
245
248
236
222
216
201
170
143
131
