# session 235
-458
-247
-99
16
117
157
133
102
85
53
10
18
92
200
347
543
701
776
841
886
863
864
868
781
818
937
767
741
1037
688
444
1381
609
-2861
-3737
-563
1463
856
-173
-1474
-2105
-654
830
716
485
742
698
531
581
602
575
604
618
598
569
584
657
704
831
1105
1221
1048
564
-48
291
1057
-677
-3912
-3669
-361
1130
504
399
717
570
456
679
671
296
512
966
-533
-2900
-2439
-613
-1174
-1959
-211
1338
904
531
796
711
554
635
594
488
480
460
440
432
415
486
597
590
512
467
490
526
425
364
517
413
208
530
421
-137
797
987
-2529
-4345
-1110
-435
-4482
-5339
-2646
-2023
-1982
-150
798
287
283
549
422
405
513
484
483
546
577
614
662
690
718
742
736
695
617
544
511
457
356
336
408
378
305
341
301
261
426
298
77
619
406
-1745
-2464
-160
878
-827
-1783
-1478
-1408
-610
762
965
646
900
1022
984
1434
1743
1243
553
316
328
278
213
188
142
101
105
88
56
65
33
-15
52
10
-310
-435
-137
71
8
26
158
228
275
310
292
287
295
252
206
186
133
98
147
142
-31
-227
-294
-308
-328
-235
-97
-124
-123
24
-82
-152
299
-242
-3134
-5985
-6108
-5289
-5819
-5447
-2155
1037
1771
1790
1219
-1064
-2225
-312
1409
1081
746
1035
983
822
891
882
836
879
864
822
856
888
883
884
903
944
970
932
889
856
744
635
603
459
295
472
718
538
242
241
305
271
279
291
257
294
386
417
391
363
353
386
451
509
575
681
803
912
1053
1229
1250
950
509
227
90
-67
-206
-228
-206
-234
-276
-283
-285
-321
-381
-438
-480
-514
-555
-616
-671
-668
-603
-538
-489
-425
-362
-323
-280
-253
-273
-290
-320
-378
-359
-319
-378
-350
-284
-411
-340
-178
-587
-537
255
-1144
-4362
-4242
-805
752
52
50
489
351
323
490
427
406
480
419
417
537
574
731
1064
962
330
-71
2
82
18
-18
-14
-13
-10
-16
-24
-7
22
48
68
77
91
130
162
173
235
280
213
251
355
181
153
432
-201
-1517
-1408
-146
217
-100
-6
110
-24
-22
58
55
82
120
130
172
211
199
183
174
148
142
165
148
109
98
62
142
560
832
295
-524
-655
-285
-106
-130
-118
-93
-78
-55
-61
-87
-82
-53
-33
-27
-13
22
45
46
91
191
282
353
437
508
506
437
357
264
143
48
11
-11
-27
-25
-29
-44
-47
-58
-91
-115
-129
-150
-168
-165
-129
-71
-41
-71
-120
-147
-159
-144
-86
-24
40
171
327
416
465
455
356
407
650
560
12
-361
-335
-304
-360
-347
-327
-357
-364
-352
-372
-409
-425
-410
-378
-342
-312
-322
-348
-315
-249
-223
-185
-101
-71
-105
-92
-53
-53
-47
-17
-17
-19
16
31
3
3
29
16
35
119
47
-177
-148
108
183
157
185
114
194
430
-24
-866
-595
535
1079
1209
1629
1783
1227
514
87
-120
-207
-221
-221
-238
-263
-275
-294
-333
-362
-389
-447
-499
-508
-525
-563
-562
-493
-375
-248
-143
-2
202
297
286
443
610
523
704
1155
367
-1932
-3205
-1824
253
749
201
8
140
144
123
150
146
148
153
110
61
35
9
-2
10
29
51
86
135
185
222
257
287
281
251
237
229
209
198
197
201
211
193
152
156
191
196
183
175
174
181
158
109
113
146
131
99
89
64
34
16
-21
-63
-65
-58
-69
-68
-69
-107
-135
-121
-118
-144
-141
-94
-57
-57
-49
6
61
59
27
14
7
5
18
19
7
18
15
-11
22
102
239
511
689
437
-92
-384
-152
65
-441
-877
-494
-1153
-3664
-4639
-2280
184
511
231
417
497
414
468
523
528
581
622
622
646
655
581
482
441
420
353
263
188
135
110
95
91
115
89
60
156
147
23
291
282
-1283
-2973
-2248
-127
726
471
525
826
957
1077
1291
1585
1773
1478
789
234
-13
-128
-180
-196
-224
-250
-296
-369
-359
-338
-467
-504
-313
-332
-667
-845
-795
-792
-781
-639
-463
-305
-148
-22
59
111
123
80
19
18
73
79
7
-40
2
67
105
150
167
137
172
216
125
87
178
174
115
-154
-948
-1359
-518
400
331
96
253
278
119
174
380
513
684
902
763
241
-53
57
144
99
98
107
81
80
88
79
77
58
19
20
62
76
70
107
156
184
241
270
233
263
278
146
130
134
-115
13
300
-886
-2623
-2084
-148
343
-175
-137
30
-95
-67
77
107
133
143
77
38
46
33
8
-16
-28
-12
-29
-63
-2
62
105
365
620
321
-231
-355
-203
-196
-242
-223
-220
-213
-174
-176
-195
-175
-153
-152
-137
-109
-85
-42
9
32
47
73
84
86
107
114
66
-22
-85
-81
-37
-20
-40
-51
-34
4
74
179
268
291
265
225
188
169
163
150
110
54
10
-15
-29
-34
-54
-84
-68
-54
-98
-79
19
110
352
672
520
-58
-324
-186
-132
-194
-170
-135
-148
-143
-134
-134
-109
-77
-70
-79
-73
-5
107
181
220
275
306
290
278
269
222
153
99
71
62
63
63
39
-16
-42
-2
41
29
-6
-30
-48
-56
-68
-93
-103
-93
-100
-100
-49
18
88
207
349
479
618
746
835
874
741
414
116
-77
-280
-430
-438
-409
-424
-458
-445
-438
-585
-639
-421
-745
-1917
-2580
-2298
-2269
-2271
-1227
-42
264
356
254
-526
-842
58
866
834
725
797
735
658
674
652
652
712
720
811
1093
1292
1353
1526
1586
1171
580
232
86
48
98
110
48
0
-35
-77
-87
-94
-152
-219
-244
-259
-282
-263
-195
-122
-27
109
212
247
274
338
419
399
291
331
390
240
332
513
48
53
820
-755
-4219
-4134
-598
936
87
-11
451
267
101
373
368
-5
282
616
-1476
-4799
-4695
-1284
784
530
332
568
487
382
398
289
215
251
201
124
181
282
295
249
217
198
175
171
183
163
139
145
137
166
314
436
468
614
687
186
-425
-183
193
-1012
-3267
-3950
-2052
444
1257
555
47
227
360
290
339
443
492
569
653
696
737
774
772
726
647
553
454
352
261
187
123
77
52
32
15
6
11
34
63
99
155
232
380
639
882
1077
1445
1843
1663
832
39
-297
-378
-415
-418
-398
-372
-347
-352
-373
-372
-388
-449
-510
-535
-538
-537
-500
-413
-352
-349
-292
-148
-33
8
18
-3
-44
-53
-18
50
134
206
305
450
563
697
921
959
571
51
-240
-352
-438
-501
-525
-538
-556
-566
-561
-566
-601
-642
-679
-723
-753
-762
-761
-720
-607
-419
-205
-99
-62
116
174
-132
-138
162
-522
-1929
-2437
-2329
-2319
-1400
235
810
456
452
671
697
783
954
1049
1083
1059
997
876
613
374
359
409
357
296
279
256
233
225
215
208
211
213
214
220
232
242
244
252
281
302
288
277
289
265
194
132
86
34
3
0
-19
-48
-42
-2
32
40
34
44
64
56
29
21
19
-4
-29
-47
-74
-100
-109
-90
-57
-58
-78
-60
-56
-93
-62
29
105
198
167
-149
-413
-309
-142
-189
-278
-286
-271
-230
-175
-151
-133
-102
-76
-40
7
37
63
116
176
222
272
322
333
306
267
194
96
27
-44
-126
-132
-132
-186
-137
-115
-240
-98
37
-340
-107
571
-926
-3371
-2538
244
900
289
566
987
1029
1228
1483
1669
1789
1459
710
100
-158
-224
-222
-229
-264
-288
-298
-319
-343
-366
-406
-468
-531
-574
-585
-587
-584
-512
-365
-234
-112
45
139
196
326
286
87
333
838
693
179
128
231
137
228
319
105
136
281
-145
-327
59
-642
-1991
-1573
-167
-4
-396
-209
-59
-163
-96
-4
-20
24
86
75
59
74
103
142
177
202
210
183
136
106
91
72
77
101
87
70
95
74
52
170
273
326
605
804
395
-140
-199
-94
-87
-104
-226
-215
-6
-491
-1883
-2843
-2630
-2164
-2360
-2550
-1490
262
1022
832
813
951
902
931
1054
1042
1006
1034
993
877
769
674
578
487
409
347
300
268
249
233
214
198
182
154
120
96
77
64
82
125
139
120
98
69
33
7
-13
-42
-52
-43
-64
-96
-72
-56
-106
-93
22
173
473
805
658
104
-163
-52
6
-32
-38
-90
-179
-205
-207
-233
-235
-178
-100
-46
-25
-21
-12
28
87
137
181
210
195
151
110
55
-23
-90
-133
-166
-194
-213
-235
-257
-266
-263
-257
-242
-232
-243
-250
-228
-210
-220
-222
-192
-155
-119
-51
13
5
-42
-54
-65
-104
-116
-106
-138
-179
-177
-167
-168
-163
-167
-162
-118
-48
96
283
241
-71
-262
-177
-63
-18
43
111
167
232
283
295
283
256
222
193
158
141
190
238
256
325
358
324
430
460
242
421
412
-1632
-4263
-3730
-787
656
287
182
434
394
364
499
613
793
1132
1483
1682
1855
1916
1222
279
476
395
-2057
-3998
-2200
419
607
-11
121
144
-114
-166
-221
-368
-396
-370
-362
-299
-195
-87
34
143
217
257
261
241
219
195
159
119
103
113
119
111
117
129
109
73
54
55
58
28
-47
-99
-84
-59
-64
-59
-38
-46
-56
-23
-11
-55
-73
-94
-186
-164
-75
-612
-1966
-2813
-1934
-288
372
125
66
235
208
147
211
259
323
484
607
618
633
689
690
626
567
518
432
323
251
232
244
256
237
228
301
425
589
766
656
155
-225
-160
-16
-59
-117
-103
-103
-105
-75
-47
-41
-41
-45
-48
-27
7
14
-1
19
110
255
380
411
385
381
359
305
278
201
67
-16
-206
-420
-311
-377
-694
-160
95
-1983
-3713
-1862
772
1095
815
1338
1614
1309
835
266
-121
-196
-257
-364
-391
-410
-467
-504
-525
-549
-568
-587
-614
-651
-662
-630
-648
-709
-618
-362
-158
-46
65
127
107
88
83
51
27
42
40
-6
-23
-4
-28
-52
-32
-51
-28
35
-127
-162
224
-187
-1769
-2235
-696
525
363
190
467
572
536
584
622
657
697
649
560
508
457
394
345
308
277
254
232
206
179
156
139
119
92
86
110
125
105
83
70
46
21
10
-3
-12
-3
-1
-15
-11
-18
-40
-5
51
159
512
845
602
36
-154
-21
30
26
62
73
72
77
49
-3
-79
-176
-228
-203
-141
-76
-20
15
46
89
134
174
205
216
203
174
123
52
-16
-69
-112
-142
-155
-156
-151
-149
-150
-145
-154
-193
-229
-231
-209
-152
-72
27
215
479
705
929
1144
1032
485
-90
-388
-482
-493
-499
-551
-582
-555
-552
-578
-585
-634
-701
-698
-716
-752
-651
-646
-772
-469
-153
-779
-1339
-569
324
229
37
205
190
60
98
147
166
229
252
240
293
366
372
335
309
290
268
254
239
206
182
189
195
179
168
170
160
144
137
115
61
8
-14
-15
-21
-25
-13
7
12
-3
-12
26
104
155
146
112
92
92
100
104
102
99
92
82
83
105
103
32
-20
48
187
415
707
684
197
-194
-142
-14
-48
-86
-88
-127
-167
-171
-165
-168
-188
-219
-223
-193
-160
-134
-94
-36
15
52
98
156
196
200
177
139
92
39
-12
-59
-105
-139
-146
-150
-166
-154
-120
-92
-21
71
154
408
844
1168
1456
1861
1900
1394
773
-280
-2082
-3197
-2315
-661
-26
-227
-316
-253
-262
-242
-218
-293
-381
-413
-438
-463
-448
-365
-224
-64
93
238
334
350
295
198
99
43
28
19
8
1
-11
-19
-15
-10
2
26
37
27
25
53
70
46
32
45
18
-15
49
105
61
94
148
-98
-424
-374
-189
-240
-316
-248
-183
-137
-59
-21
-29
-25
-4
39
107
147
136
113
103
101
90
63
45
43
-1
-90
-117
-70
-83
-128
-52
71
189
484
721
386
-215
-381
-220
-166
-193
-171
-126
-64
-18
-16
7
35
-1
-27
21
73
114
167
174
143
169
249
360
510
623
622
575
531
444
326
237
171
101
51
40
20
-46
-105
-110
-93
-106
-150
-198
-206
-154
-86
-21
66
149
253
482
730
837
1014
1369
1404
831
145
-196
-294
-341
-365
-365
-362
-377
-403
-411
-435
-495
-538
-580
-653
-688
-652
-601
-541
-461
-392
-323
-219
-108
-35
-19
-58
-128
-212
-300
-360
-373
-359
-336
-308
-284
-266
-243
-221
-212
-204
-181
-159
-148
-124
-91
-77
-73
-61
-61
-68
-40
-15
-56
-91
-65
-42
15
125
112
72
159
53
-72
250
43
-1234
-1612
-341
446
119
97
442
547
697
781
416
104
214
322
245
197
189
149
124
119
108
111
119
98
59
44
59
82
116
170
218
253
303
357
372
348
313
282
244
177
100
65
53
14
-14
7
29
15
-3
-2
3
14
70
132
171
359
745
1066
1326
1721
1852
1273
442
-42
-250
-376
-412
-420
-455
-491
-554
-645
-682
-660
-663
-722
-798
-855
-909
-948
-929
-871
-782
-581
-338
-240
-154
233
761
1027
1183
1645
2124
1921
1045
152
-334
-466
-473
-496
-506
-477
-473
-506
-528
-541
-565
-605
-658
-697
-686
-615
-484
-310
-142
-17
72
124
121
84
75
115
144
105
49
54
85
70
48
65
75
53
39
32
15
9
17
15
10
15
9
-12
-7
24
27
-3
-7
3
-17
-12
27
16
12
48
-23
-61
90
54
-78
172
-10
-1138
-1512
-453
193
-131
-185
90
55
-60
-22
-15
-15
51
99
125
162
178
174
175
182
193
177
131
139
218
261
248
236
204
160
177
210
179
167
212
223
235
331
493
749
971
768
176
-152
77
