# session 241
-37
-52
-57
-59
-62
-44
-11
-6
-26
1
73
100
78
59
35
13
23
22
-4
8
27
0
17
75
34
-7
102
246
455
817
872
326
-209
-270
-189
-210
-195
-148
-151
-157
-146
-146
-144
-135
-129
-114
-87
-64
-41
-7
36
86
141
192
239
285
321
338
331
308
272
219
149
75
19
-14
-33
-46
-56
-75
-95
-93
-79
-81
-93
-96
-74
-49
-63
-96
-97
-81
-85
-89
-79
-63
-50
-49
-31
35
86
73
52
57
59
57
54
27
-3
-19
-46
-61
-43
-60
-86
-15
98
256
543
638
231
-229
-262
-134
-151
-178
-146
-143
-152
-138
-134
-135
-124
-113
-104
-88
-74
-57
-26
10
45
89
144
193
230
268
298
288
252
221
179
111
37
-21
-49
-48
-68
-101
-79
-59
-85
-54
-54
-168
-104
16
-385
-867
-571
-24
-10
-146
-82
-74
-125
-95
-90
-125
-99
-37
-5
-10
-34
-49
-40
-22
-8
2
17
23
6
13
39
-5
-23
126
309
456
642
578
76
-309
-224
-92
-136
-115
-45
-75
-112
-81
-67
-92
-93
-50
-17
-37
-63
-36
16
64
124
179
227
296
362
394
425
416
340
328
324
66
-243
-186
23
7
-81
-63
-58
-90
-88
-87
-107
-111
-108
-118
-134
-139
-130
-126
-135
-130
-108
-98
-114
-132
-104
-25
27
3
-46
-70
-76
-69
-60
-65
-58
-34
-37
-45
-32
-50
-54
40
175
414
777
781
200
-289
-246
-101
-128
-139
-106
-121
-125
-83
-60
-85
-121
-138
-135
-120
-90
-46
-9
17
44
86
135
184
231
269
281
268
241
197
132
63
11
-16
-28
-38
-49
-57
-59
-60
-66
-73
-69
-59
-62
-72
-75
-68
-61
-73
-97
-98
-80
-87
-113
-99
-35
24
25
-28
-73
-72
-57
-55
-56
-51
-53
-75
-87
-59
-43
-56
-6
87
180
410
634
415
-73
-244
-129
-107
-149
-130
-117
-124
-107
-98
-102
-90
-76
-69
-56
-38
-15
14
39
64
105
155
197
226
242
254
264
257
227
177
114
59
28
2
-31
-45
-34
-27
-45
-74
-75
-51
-52
-70
-56
-42
-65
-76
-52
-41
-53
-57
-55
-62
-65
-60
-67
-82
-77
-59
-59
-80
-97
-98
-91
-91
-102
-109
-116
-134
-131
-112
-132
-136
-52
35
171
485
631
265
-169
-192
-63
-68
-85
-61
-73
-87
-74
-71
-70
-60
-61
-58
-34
-26
-36
-19
19
49
87
144
186
211
250
285
276
246
217
161
77
7
-33
-55
-69
-84
-92
-74
-52
-58
-64
-45
-13
14
18
-4
-25
-30
-32
-37
-48
-65
-69
-54
-52
-67
-51
7
48
32
-3
-18
-22
-21
-14
-24
-32
-11
-6
-24
-27
-45
-58
31
163
318
592
690
265
-225
-246
-95
-122
-152
-97
-91
-114
-95
-85
-100
-94
-69
-52
-42
-32
-19
3
44
85
108
143
215
271
274
266
263
231
171
105
42
-21
-81
-130
-162
-187
-211
-215
-199
-182
-168
-145
-116
-97
-85
-69
-53
-42
-40
-53
-79
-78
-47
-44
-75
-57
25
71
34
-21
-36
-28
-39
-70
-84
-56
-36
-62
-77
-55
-66
-79
-6
111
241
371
285
-60
-272
-186
-95
-120
-123
-101
-110
-104
-70
-51
-41
-12
22
43
51
57
65
76
91
119
162
205
241
272
295
305
298
270
217
147
76
16
-35
-77
-101
-112
-124
-133
-134
-142
-157
-148
-122
-118
-125
-108
-84
-83
-91
-82
-62
-64
-94
-105
-81
-57
-36
8
49
47
22
7
5
13
18
10
12
23
7
-1
15
-24
-75
-16
120
360
708
720
183
-274
-240
-122
-169
-187
-152
-160
-161
-132
-124
-127
-110
-76
-42
-17
3
26
52
77
109
158
212
252
291
340
367
363
343
290
199
116
44
-35
-84
-98
-136
-183
-177
-157
-174
-189
-184
-190
-195
-182
-169
-155
-140
-136
-130
-107
-101
-121
-119
-64
5
39
31
13
6
8
4
-2
-3
3
-2
-16
-6
0
-47
-43
78
216
413
657
537
-8
-339
-225
-101
-124
-119
-98
-107
-95
-82
-95
-90
-63
-48
-41
-36
-30
-3
43
72
87
124
173
229
316
346
226
109
150
219
171
73
6
-39
-70
-92
-106
-111
-129
-164
-180
-169
-163
-158
-131
-102
-100
-114
-127
-135
-138
-150
-176
-179
-136
-77
-48
-62
-89
-89
-62
-42
-37
-28
-5
-5
-24
-4
10
-47
-23
155
326
519
717
490
-123
-403
-227
-127
-190
-188
-161
-172
-163
-148
-154
-156
-147
-134
-121
-115
-104
-75
-40
-2
49
112
181
249
302
343
364
344
294
244
189
119
51
2
-27
-48
-69
-80
-76
-70
-67
-68
-76
-71
-27
48
147
269
433
695
973
1090
1116
1132
882
368
62
-3
-203
-433
-417
-324
-338
-356
-345
-365
-382
-370
-364
-380
-409
-453
-492
-498
-493
-504
-490
-407
-293
-186
-78
44
160
234
238
198
163
134
96
54
12
-39
-75
-75
-65
-71
-90
-114
-134
-135
-123
-119
-118
-103
-82
-66
-48
-26
-9
3
22
42
48
42
47
63
64
52
55
63
40
17
34
35
-13
-17
61
129
131
102
57
26
46
66
26
3
28
19
-11
-8
-32
-39
64
162
250
447
452
34
-319
-260
-123
-126
-126
-87
-57
-31
-37
-65
-65
-54
-63
-70
-70
-71
-60
-39
-23
-5
29
81
144
205
252
282
293
282
254
214
162
102
49
13
-12
-44
-71
-68
-59
-69
-77
-67
-62
-63
-71
-94
-100
-74
-60
-72
-60
-16
21
38
27
-24
-58
-32
-12
-32
-23
3
-17
-7
44
-6
-87
-22
100
271
609
731
281
-223
-261
-138
-168
-204
-180
-187
-208
-207
-204
-198
-183
-166
-138
-97
-57
-22
15
55
91
129
180
230
260
276
284
271
226
152
67
0
-37
-71
-118
-146
-145
-154
-176
-169
-145
-148
-170
-170
-150
-131
-120
-115
-120
-124
-90
-30
-1
-20
-58
-87
-86
-70
-74
-62
8
57
41
46
80
54
27
94
217
437
710
639
140
-217
-175
-95
-134
-137
-109
-119
-122
-109
-112
-117
-111
-103
-87
-67
-52
-49
-45
6
87
116
111
158
231
262
279
299
279
224
170
120
65
12
-14
-16
-33
-61
-62
-55
-68
-67
-46
-34
-28
-28
-63
-103
-102
-80
-81
-86
-50
12
36
6
-41
-80
-111
-130
-138
-137
-133
-145
-146
-115
-112
-128
-54
68
214
483
629
298
-163
-229
-89
-91
-132
-102
-86
-102
-112
-116
-108
-90
-85
-92
-96
-86
-61
-31
-8
10
44
100
146
174
227
289
292
248
208
146
43
-39
-74
-99
-116
-111
-108
-122
-123
-105
-88
-78
-64
-42
-19
-15
-32
-29
0
-5
-53
-58
8
69
68
23
-18
-31
-30
-36
-40
-25
-18
-35
-24
24
3
-45
58
255
415
571
533
99
-298
-245
-61
-62
-100
-82
-70
-56
-54
-78
-78
-63
-67
-56
-30
-29
-29
3
35
53
93
162
223
272
321
342
312
256
200
142
79
4
-78
-130
-134
-126
-127
-126
-123
-132
-141
-142
-143
-149
-147
-135
-133
-143
-126
-80
-74
-101
-67
23
58
36
31
28
2
-11
-11
-15
-14
-24
-38
-12
-11
-72
-39
98
205
402
623
411
-120
-311
-154
-109
-178
-169
-138
-150
-163
-163
-161
-161
-161
-155
-141
-126
-110
-81
-34
18
66
130
223
304
332
324
313
290
239
173
103
35
-19
-50
-72
-90
-100
-105
-110
-108
-97
-86
-80
-77
-74
-77
-79
-74
-80
-104
-109
-89
-93
-121
-95
-9
41
25
2
-14
-41
-48
-24
-1
4
-22
-57
-35
-10
-50
-43
50
176
495
904
806
186
-210
-171
-122
-168
-163
-162
-219
-247
-221
-186
-161
-145
-144
-151
-150
-136
-113
-79
-33
24
81
139
197
246
280
302
304
286
255
204
137
77
36
5
-19
-33
-47
-61
-66
-64
-68
-83
-88
-63
-40
-52
-76
-87
-94
-84
-56
-61
-107
-128
-86
-38
-46
-57
9
84
68
11
-7
-7
-18
-15
9
41
67
78
92
108
80
49
89
200
420
679
599
116
-229
-184
-94
-129
-144
-129
-141
-144
-135
-135
-124
-110
-110
-101
-82
-76
-68
-43
-24
-7
31
76
114
157
201
222
221
210
191
150
89
30
-18
-65
-96
-98
-97
-102
-102
-102
-110
-109
-99
-84
-65
-64
-86
-98
-91
-98
-127
-162
-193
-198
-155
-103
-92
-91
-48
-4
-15
-53
-73
-76
-66
-54
-46
-24
-2
-3
14
37
8
19
130
238
419
708
661
143
-227
-173
-95
-139
-130
-106
-139
-142
-108
-104
-117
-109
-91
-84
-85
-75
-49
-24
-4
29
78
132
185
232
274
303
305
274
220
156
92
35
-3
-23
-36
-49
-59
-68
-81
-90
-89
-91
-95
-89
-82
-87
-91
-84
-80
-84
-88
-102
-123
-127
-112
-95
-85
-90
-95
-55
14
38
8
-18
-21
-26
-32
-28
-12
-7
-26
-23
11
-8
-27
93
247
379
627
711
252
-278
-315
-151
-136
-141
-116
-128
-126
-104
-99
-88
-86
-111
-109
-83
-97
-138
-132
-63
16
71
129
198
251
285
309
309
279
229
163
87
20
-30
-65
-84
-87
-83
-79
-75
-69
-58
-47
-47
-50
-41
-40
-56
-55
-34
-37
-54
-51
-29
28
100
150
294
605
862
962
1147
1400
1301
751
133
-237
-355
-365
-370
-373
-370
-383
-399
-401
-400
-397
-398
-420
-421
-384
-379
-432
-485
-513
-523
-498
-427
-330
-222
-110
-4
82
127
127
101
70
37
10
-4
-8
-9
-16
-23
-20
-13
-16
-17
-4
3
-1
-1
-2
-4
9
20
14
18
36
39
36
38
28
17
16
0
-14
4
14
-10
-16
1
-1
-20
-30
-34
-29
-21
-30
-28
22
72
46
-23
-51
-33
-19
-19
-10
6
-6
-36
-35
-44
-79
-35
65
128
293
513
361
-102
-293
-157
-86
-110
-80
-47
-46
-33
-26
-36
-29
-17
-19
-17
-1
10
16
27
45
74
132
192
207
215
283
346
318
263
252
225
150
76
27
-15
-45
-64
-83
-92
-86
-82
-92
-82
-40
7
61
131
212
397
702
925
1105
1446
1575
1041
277
-94
-165
-231
-287
-314
-352
-380
-386
-397
-409
-413
-420
-437
-455
-474
-494
-509
-514
-508
-483
-433
-357
-255
-144
-56
2
48
75
59
22
9
14
-8
-51
-63
-40
-29
-48
-63
-49
-25
-32
-60
-53
-14
-3
-19
-23
-13
-6
-3
-17
-47
-75
-95
-114
-119
-100
-73
-56
-55
-66
-80
-91
-98
-106
-107
-102
-100
-99
-92
-93
-105
-101
-72
-52
-54
-37
21
72
82
69
51
34
28
28
30
37
32
23
41
40
9
62
199
329
482
519
182
-251
-295
-117
-101
-168
-141
-92
-87
-87
-81
-76
-68
-59
-51
-42
-25
-1
28
67
116
165
209
245
273
310
357
385
381
357
314
258
198
133
68
19
-9
-29
-50
-63
-62
-60
-68
-72
-57
-42
-38
-24
24
105
194
317
567
878
1073
1267
1663
1900
1444
531
-138
-360
-404
-423
-422
-433
-454
-453
-460
-482
-484
-483
-510
-538
-559
-588
-615
-627
-633
-626
-602
-559
-478
-353
-218
-100
-10
34
30
-7
-61
-114
-145
-156
-167
-174
-166
-152
-139
-119
-94
-76
-59
-41
-26
-9
6
6
11
28
30
26
42
52
32
16
19
14
1
-2
13
25
16
10
23
10
-36
-45
-15
-18
-44
-22
38
75
70
48
31
18
0
-20
-23
-6
3
11
47
67
47
95
224
359
573
738
467
-63
-241
-91
-41
-84
-59
-36
-51
-48
-48
-65
-64
-51
-50
-44
-30
-19
-6
19
47
73
107
153
202
240
265
285
298
286
256
230
201
149
78
16
-15
-22
-41
-75
-83
-70
-82
-107
-101
-79
-66
-65
-81
-102
-99
-74
-48
-32
-12
57
170
221
215
324
531
645
794
1168
1392
1047
405
-64
-295
-398
-421
-426
-442
-443
-437
-439
-433
-416
-398
-397
-419
-440
-452
-473
-506
-537
-563
-571
-533
-460
-375
-273
-146
-11
92
130
122
121
117
72
18
5
9
-15
-44
-46
-44
-55
-57
-33
-10
-18
-44
-48
-21
5
8
3
13
31
42
52
53
43
50
82
90
61
46
73
103
103
82
51
26
29
42
39
37
41
33
45
72
39
29
142
258
372
602
631
197
-202
-159
-13
-28
-46
-25
-38
-43
-27
-33
-29
-7
-11
-29
-22
-3
15
41
59
61
88
144
181
210
264
312
318
310
301
265
197
117
47
-9
-55
-88
-104
-114
-125
-122
-109
-105
-110
-116
-131
-152
-164
-164
-151
-124
-120
-138
-112
-51
-35
-56
-61
-71
-98
-110
-112
-114
-97
-90
-99
-78
-81
-126
-66
89
233
473
643
300
-267
-385
-199
-168
-213
-182
-163
-165
-153
-149
-139
-122
-129
-127
-97
-77
-70
-50
-25
4
61
134
200
260
308
341
364
366
332
266
182
101
33
-29
-65
-79
-104
-116
-96
-96
-109
-98
-117
-140
-85
-73
-131
-92
-82
-162
-25
31
-470
-749
-188
265
85
-34
78
54
-7
33
53
39
30
32
49
38
45
158
298
469
679
563
32
-312
-202
-69
-105
-120
-90
-101
-114
-96
-69
-48
-48
-67
-70
-47
-28
-31
-30
-8
25
72
136
201
252
292
307
283
243
197
125
32
-46
-96
-127
-144
-148
-139
-126
-122
-112
-82
-58
-58
-51
-28
-24
-44
-60
-59
-41
-32
-65
-98
-54
27
56
35
-1
-40
-50
-28
-27
-44
-26
-18
-46
-37
-31
-68
-24
97
190
369
538
305
-155
-278
-127
-78
-86
-24
17
16
22
11
-11
-12
-8
