# session 50
-33
-11
-13
-30
-39
-27
-10
-8
-7
23
61
60
25
0
-3
-3
1
25
36
9
8
34
2
-10
99
208
316
551
590
139
-302
-275
-110
-110
-114
-68
-76
-94
-62
-39
-43
-33
-9
6
17
30
47
68
93
125
172
222
258
289
324
343
344
334
291
212
136
74
12
-35
-57
-76
-98
-105
-99
-94
-99
-109
-115
-117
-126
-146
-164
-156
-120
-82
-64
-50
-17
11
-5
-43
-57
-49
-52
-54
-40
-42
-53
-28
-15
-44
0
118
203
330
452
248
-171
-297
-141
-74
-105
-86
-68
-83
-85
-84
-83
-60
-48
-67
-67
-41
-32
-33
-12
27
70
110
140
178
229
263
268
250
205
141
73
-7
-78
-110
-123
-146
-160
-152
-145
-147
-140
-125
-125
-136
-131
-104
-68
-50
-63
-58
-8
26
2
-36
-58
-71
-77
-79
-74
-65
-73
-75
-50
-55
-62
40
186
308
453
414
16
-322
-256
-97
-101
-118
-93
-101
-111
-101
-101
-103
-98
-89
-68
-50
-46
-24
18
40
54
99
158
209
260
313
352
365
346
296
217
122
43
-2
-33
-60
-66
-62
-71
-75
-58
-64
-90
-89
-97
-142
-144
-97
-101
-143
-125
-55
-9
-3
-19
-48
-73
-70
-56
-59
-59
-48
-43
-27
-18
-50
-12
143
289
480
704
529
-58
-363
-202
-80
-125
-112
-70
-94
-112
-93
-88
-93
-71
-46
-48
-49
-29
-8
22
71
113
150
200
260
332
396
404
370
330
256
142
51
-3
-56
-92
-102
-123
-155
-158
-137
-129
-146
-165
-160
-149
-160
-160
-127
-132
-185
-172
-81
-26
-36
-55
-72
-86
-88
-100
-111
-90
-83
-93
-63
-69
-122
-29
172
316
519
647
275
-281
-364
-167
-146
-181
-133
-132
-163
-141
-119
-128
-124
-109
-104
-95
-82
-77
-64
-29
18
66
126
203
280
337
363
356
326
284
218
130
55
8
-25
-54
-71
-79
-83
-80
-64
-53
-56
-53
-49
-63
-68
-42
-36
-59
-50
-13
7
30
53
21
-36
-43
-27
-44
-59
-52
-61
-57
-33
-63
-74
40
151
256
513
615
215
-240
-262
-124
-125
-138
-109
-121
-140
-125
-107
-104
-101
-88
-70
-58
-45
-22
0
26
69
115
161
218
267
297
323
331
302
255
197
117
40
-7
-26
-38
-57
-80
-86
-79
-83
-94
-87
-83
-109
-139
-141
-126
-117
-113
-107
-106
-97
-62
-37
-59
-95
-109
-117
-120
-103
-97
-124
-131
-75
-36
-72
-58
70
185
300
410
233
-192
-359
-204
-116
-146
-130
-107
-109
-83
-61
-65
-49
-19
-6
5
23
31
36
47
64
86
122
169
211
238
260
275
270
243
196
127
56
4
-28
-49
-63
-70
-76
-79
-74
-69
-69
-58
-38
-37
-54
-59
-55
-53
-33
-14
-10
19
71
79
42
8
-20
-36
-28
-18
-29
-53
-61
-41
-53
-93
-34
101
205
363
473
203
-243
-343
-182
-128
-148
-129
-126
-133
-111
-100
-109
-108
-93
-77
-61
-45
-24
-5
10
42
93
146
203
269
325
360
384
386
348
270
169
73
13
-15
-36
-61
-80
-88
-93
-100
-95
-85
-90
-92
-74
-73
-104
-108
-79
-87
-127
-109
-36
0
-28
-71
-98
-102
-96
-113
-135
-128
-117
-103
-77
-99
-99
62
256
388
570
539
36
-404
-330
-146
-171
-204
-166
-160
-157
-134
-136
-146
-128
-103
-91
-72
-40
-13
7
41
91
138
188
261
328
359
364
352
312
233
118
1
-72
-107
-139
-166
-174
-172
-170
-157
-135
-114
-100
-83
-58
-46
-54
-54
-32
-19
-30
-28
14
76
103
76
50
63
57
1
-25
13
24
-10
-6
-3
-46
13
165
262
488
814
610
-83
-388
-193
-112
-172
-118
-89
-162
-167
-107
-101
-127
-129
-114
-93
-75
-66
-49
-17
13
47
107
181
239
278
313
338
331
283
202
115
40
-24
-68
-94
-118
-130
-114
-106
-130
-134
-101
-81
-82
-81
-96
-110
-81
-59
-99
-132
-90
-26
-9
-43
-88
-105
-106
-121
-120
-87
-90
-138
-132
-83
-92
-86
21
131
261
434
345
-66
-312
-229
-145
-144
-113
-96
-111
-103
-97
-103
-86
-65
-63
-64
-61
-53
-13
48
78
84
122
191
250
301
344
354
331
293
230
141
52
-18
-65
-96
-122
-135
-129
-120
-121
-110
-88
-79
-77
-73
-69
-64
-58
-47
-25
-14
-8
25
67
67
41
32
23
-2
-7
15
22
3
6
45
47
11
51
156
240
375
481
249
-183
-308
-149
-84
-118
-100
-78
-62
-17
-10
-43
-34
-4
-17
-31
2
39
44
46
72
112
156
204
250
289
318
323
300
265
213
134
54
-8
-63
-109
-132
-138
-147
-154
-148
-139
-138
-136
-126
-122
-130
-129
-112
-95
-83
-74
-69
-56
-30
-32
-76
-119
-133
-143
-167
-182
-176
-172
-175
-173
-198
-212
-122
11
134
304
298
-97
-451
-361
-145
-124
-144
-109
-96
-91
-67
-55
-54
-54
-52
-34
-13
-1
24
61
83
107
165
238
302
365
419
436
424
400
346
250
155
80
-7
-89
-110
-98
-120
-153
-149
-133
-134
-123
-94
-79
-85
-99
-101
-74
-52
-72
-77
-13
61
86
78
52
16
7
12
-3
2
29
15
-1
15
-16
-24
124
308
501
742
627
14
-397
-263
-102
-140
-137
-97
-116
-117
-93
-103
-126
-131
-107
-61
-41
-50
-36
-6
14
61
145
211
249
300
364
403
391
319
218
134
68
-10
-94
-149
-158
-140
-139
-167
-181
-168
-146
-122
-104
-108
-119
-115
-109
-103
-105
-131
-133
-63
3
-2
-31
-56
-87
-101
-99
-92
-84
-107
-124
-85
-93
-135
1
223
326
457
524
134
-399
-435
-175
-120
-196
-185
-142
-137
-150
-146
-124
-122
-139
-129
-93
-67
-54
-40
-7
50
117
186
265
333
371
395
403
357
258
152
58
-31
-97
-125
-146
-170
-169
-152
-143
-127
-94
-66
-46
-32
-33
-34
-17
-1
1
-10
-21
7
74
113
102
74
42
11
1
3
-9
-36
-67
-71
-55
-84
-89
47
202
356
683
843
360
-260
-324
-135
-138
-171
-121
-113
-116
-86
-86
-100
-81
-65
-69
-62
-42
-26
-8
18
49
92
149
212
267
314
348
349
313
258
181
82
-6
-57
-90
-116
-132
-135
-130
-127
-132
-127
-102
-83
-87
-85
-68
-75
-109
-109
-77
-94
-145
-126
-45
-11
-36
-61
-79
-103
-123
-125
-100
-84
-132
-163
-108
-92
-121
-34
89
192
468
659
270
-298
-357
-146
-130
-179
-134
-117
-144
-138
-120
-117
-109
-104
-106
-82
-37
-11
2
30
59
88
144
216
271
305
324
329
321
283
200
103
26
-34
-78
-94
-91
-96
-100
-85
-70
-68
-58
-33
-16
-18
-31
-42
-43
-40
-47
-63
-77
-74
-50
-25
-25
-13
42
79
65
43
24
-4
-16
-19
-33
-48
-64
-59
-28
-46
-80
-5
113
243
480
553
154
-293
-297
-120
-110
-148
-111
-83
-82
-69
-53
-50
-50
-47
-30
-1
19
35
62
83
97
143
210
259
304
367
406
392
364
340
284
191
111
63
20
-14
-18
-13
-24
-34
-33
-35
-39
-40
-44
-54
-68
-79
-83
-72
-63
-77
-84
-43
-3
-16
-49
-81
-132
-168
-216
-382
-595
-654
-557
-453
-413
-368
-239
-86
47
239
319
11
-382
-385
-182
-136
-159
-119
-101
-118
-97
-64
-57
-37
4
26
34
59
83
98
126
164
199
247
307
359
412
459
475
469
440
345
213
124
72
16
-18
-19
-33
-57
-49
-27
-23
-31
-35
-33
-23
-14
-30
-56
-52
-36
-60
-93
-67
-7
27
36
24
-26
-72
-82
-113
-163
-147
-112
-137
-130
-86
-126
-120
60
258
494
760
566
-89
-407
-224
-128
-203
-168
-108
-136
-151
-136
-144
-143
-123
-109
-90
-66
-58
-41
-6
20
54
122
191
247
310
367
389
386
358
289
196
110
35
-29
-75
-106
-123
-126
-123
-123
-123
-121
-114
-98
-87
-84
-89
-106
-125
-113
-93
-122
-160
-124
-41
-7
-40
-86
-105
-97
-95
-109
-101
-79
-82
-84
-74
-82
-30
105
204
366
671
653
104
-315
-240
-116
-156
-148
-103
-116
-115
-88
-87
-74
-42
-31
-25
-8
2
11
42
85
118
143
182
243
298
331
353
363
349
300
215
128
74
37
-16
-56
-50
-32
-37
-47
-40
-23
-13
-13
-7
6
6
-3
-8
-15
-15
11
40
51
72
101
68
-28
-111
-146
-143
-125
-158
-297
-454
-471
-373
-343
-364
-270
-126
-2
238
384
44
-429
-462
-269
-238
-250
-199
-180
-176
-138
-116
-118
-107
-79
-50
-39
-38
-16
26
57
86
136
199
256
315
376
421
435
425
393
334
250
163
95
58
33
-1
-26
-21
-16
-29
-31
-21
-28
-41
-42
-50
-65
-60
-41
-46
-72
-61
-7
32
31
5
-47
-83
-66
-55
-83
-83
-54
-53
-49
-41
-63
-15
134
262
417
548
302
-205
-363
-154
-61
-124
-119
-79
-89
-102
-85
-67
-63
-68
-66
-42
-9
8
13
35
75
114
149
190
233
272
308
325
313
283
230
142
52
-8
-51
-84
-101
-102
-104
-110
-105
-83
-67
-63
-55
-54
-63
-58
-35
-14
-5
2
23
50
54
29
5
-6
-16
-28
-43
-47
-35
-30
-30
-38
-82
-98
-11
96
197
311
204
-189
-427
-317
-197
-211
-200
-172
-188
-192
-172
-167
-159
-136
-123
-120
-104
-81
-65
-44
-12
25
67
118
173
232
288
326
342
331
279
199
122
63
15
-29
-61
-71
-69
-72
-82
-78
-57
-47
-58
-68
-70
-66
-49
-36
-47
-51
-10
44
45
-7
-57
-76
-83
-98
-111
-107
-100
-93
-60
-64
-109
-24
168
285
451
630
354
-230
-392
-170
-111
-181
-142
-97
-124
-135
-109
-82
-72
-76
-61
-28
-17
-6
40
72
61
73
151
240
295
329
358
370
364
328
233
101
-2
-59
-101
-129
-139
-151
-168
-163
-133
-104
-103
-116
-117
-112
-105
-82
-69
-97
-104
-36
46
65
30
-13
-32
-26
-29
-50
-56
-54
-67
-52
-36
-82
-73
79
241
423
619
436
-145
-444
-277
-161
-212
-183
-131
-163
-177
-148
-138
-136
-126
-125
-119
-98
-82
-64
-28
13
53
101
167
246
320
369
389
385
350
278
179
85
12
-38
-72
-100
-116
-107
-80
-37
7
63
247
582
832
990
1448
2070
1973
949
-68
-405
-369
-379
-437
-469
-499
-534
-564
-586
-597
-616
-661
-701
-720
-737
-752
-752
-732
-678
-574
-436
-296
-170
-52
49
105
123
121
91
49
33
34
20
-13
-33
-16
18
25
7
0
7
9
4
2
7
6
-12
-19
0
6
-18
-29
-17
-16
-15
6
21
21
34
54
56
57
74
89
92
100
110
104
94
103
116
108
90
85
98
102
79
72
126
186
183
140
110
92
66
54
72
67
23
23
42
13
40
152
289
538
708
379
-166
-309
-185
-162
-167
-139
-154
-151
-118
-123
-127
-102
-95
-90
-60
-33
-13
23
60
74
88
135
203
248
266
287
307
300
274
245
203
149
104
60
-4
-58
-72
-79
-107
-123
-102
-88
-110
-131
-121
-112
-123
-130
-119
-114
-120
-98
-50
-39
-78
-119
-143
-155
-161
-168
-160
-131
-119
-124
-124
-129
-102
8
130
225
280
103
-312
-530
-381
-221
-225
-231
-199
-188
-171
-135
-114
-107
-97
-80
-53
-22
-1
14
38
70
106
147
190
235
282
323
340
324
280
222
154
79
8
-38
-62
-77
-86
-86
-82
-76
-72
-68
-61
-52
-44
-42
-48
-47
-20
7
8
28
89
112
81
73
77
40
13
36
45
15
-3
16
31
-16
-53
39
169
266
449
525
159
-309
-358
-181
-136
-157
-149
-152
-143
-124
-134
-133
-100
-86
-90
-69
-40
-32
-15
30
75
111
164
237
313
373
406
420
423
392
319
226
136
53
-14
-53
-74
-92
-100
-91
-86
-94
-91
-72
-70
-86
-97
-99
-97
-95
-100
-91
-44
17
34
-9
-62
-69
-61
-92
-122
-111
-115
-140
-113
-95
-145
-96
89
216
368
588
426
-148
-435
-271
-157
-202
-203
-181
-180
-164
-154
-158
-157
-162
-153
-115
-85
-68
-46
-25
5
64
135
201
268
319
345
367
369
307
204
109
11
-91
-157
-183
-195
-197
-204
-225
-222
-190
-178
-175
-147
-122
-128
-132
-102
-71
-86
-116
-82
2
51
49
27
-7
-35
-39
-32
-16
-1
-14
-17
3
-34
-57
82
264
428
685
716
195
-335
-335
-166
-182
-202
-155
-152
-156
-128
-122
-127
-106
-84
-76
-66
-51
-36
-19
3
38
93
156
214
275
337
375
372
342
296
222
123
37
-12
-38
-50
-53
-45
-5
51
107
279
606
866
1056
1486
1920
1645
713
-66
-356
-437
-450
-382
-338
-375
-422
-463
-511
-539
-564
-609
-644
-672
-714
-742
-731
-681
-592
-492
-395
-268
-119
-4
54
70
66
66
63
39
17
17
19
13
9
7
0
-6
-5
-1
-5
-23
-47
-51
-27
-11
-22
-20
5
8
-6
0
14
19
24
18
3
-1
-4
-22
-26
-14
-17
-23
-3
22
19
10
24
45
49
45
57
75
71
53
46
58
71
59
42
72
139
172
148
114
98
89
75
75
87
73
56
68
60
52
136
278
458
645
531
42
-292
-202
-80
-120
-128
-88
-104
-117
-96
-102
-126
-115
-92
-93
-100
-97
-83
-49
-14
3
36
97
150
185
220
247
252
243
220
180
134
87
39
-10
-50
-72
-81
-93
-111
-120
-117
-114
-112
-111
-121
-140
-139
-114
-99
-110
-106
-69
-34
-28
-41
-61
-84
-94
-92
-91
