# session 257
90
22
173
152
-86
235
174
-2670
-6302
-5628
-1899
-626
-1502
-1400
-961
-708
293
945
584
553
907
879
876
1141
1305
1445
1809
2185
2013
1167
392
207
209
131
118
102
60
75
40
42
88
-119
-159
215
-490
-3133
-5840
-6203
-3828
-824
232
-645
-1642
-1741
-770
543
933
647
719
910
787
662
610
515
549
708
805
935
1209
1426
1548
1815
2071
1846
1195
603
281
145
84
14
-63
-87
-88
-129
-186
-203
-213
-265
-306
-300
-314
-363
-351
-240
-104
-22
-29
-53
58
284
413
369
279
218
172
131
102
93
107
129
122
66
37
91
52
-103
-37
24
-834
-2483
-3254
-2127
-223
865
1117
1269
1266
855
413
232
164
122
103
35
-40
-32
-6
-36
-79
-84
-27
11
-120
-262
-215
-312
-524
-282
-356
-1705
-2610
-1464
-28
94
-57
249
455
458
493
488
439
413
399
427
475
470
439
419
391
356
349
386
421
401
357
321
319
383
351
169
219
385
-253
-1762
-2776
-2226
-660
483
628
472
530
575
526
525
487
369
299
317
357
348
312
354
428
447
449
419
421
561
528
324
474
480
77
568
635
-2626
-5845
-4122
-974
-910
-1443
-690
-291
-17
671
685
372
606
734
539
609
754
664
618
680
645
601
636
628
612
645
588
583
774
753
643
949
905
495
1167
946
-2864
-5770
-3304
-307
-1236
-2834
-2533
-1478
-179
877
1045
924
522
-274
-90
943
903
394
993
929
-1062
-1952
-229
1165
882
629
855
843
697
700
827
751
190
-180
413
1227
1098
770
1448
1045
-2553
-5367
-3323
-69
152
-1029
-1434
-931
322
1167
868
629
924
951
773
788
775
693
739
832
892
968
986
918
898
923
828
662
609
538
343
375
500
175
165
702
-944
-5131
-6416
-2675
195
-1284
-3136
-2233
-65
1569
2291
2218
1786
1331
865
492
336
302
248
169
134
146
127
63
37
54
24
-54
-115
-181
-223
-176
-168
-196
-31
110
65
293
472
151
509
910
-1648
-5223
-4752
-1862
-930
-693
571
1060
561
543
730
634
675
775
672
563
540
521
507
487
469
486
465
372
331
406
462
368
263
348
484
456
416
419
308
332
488
268
226
728
-72
-2295
-2470
-47
933
-1121
-3365
-3280
-1323
327
560
353
503
549
379
368
397
310
274
278
234
240
274
236
229
303
325
304
340
396
469
573
604
595
640
620
584
661
549
336
450
300
-95
439
282
-2748
-5334
-4107
-1869
-993
-70
771
530
302
587
564
343
341
342
302
311
270
253
339
368
320
303
293
334
461
551
731
1057
967
313
-92
71
235
170
123
175
245
252
211
201
177
162
170
-33
-114
316
-144
-2311
-3436
-1644
424
657
407
554
463
269
340
326
115
-31
-72
-80
-88
-118
-118
-67
-38
-45
-45
-24
35
90
101
189
305
207
117
258
200
68
291
105
-214
597
76
-3585
-5161
-2220
-663
-1775
-777
1204
700
-159
373
515
25
-22
151
269
476
548
447
436
477
446
418
427
451
480
480
501
604
675
654
667
720
721
681
632
583
503
348
300
361
91
-210
211
318
-1342
-3252
-2859
-659
978
1364
1539
2016
2192
1641
788
172
-123
-221
-196
-122
-94
-133
-182
-206
-229
-240
-224
-268
-375
-380
-344
-471
-505
-270
-222
-238
176
238
-88
660
728
-2555
-5142
-2496
1069
567
-1518
-2105
-1717
-752
473
830
488
291
97
-135
-57
164
297
424
543
593
612
611
589
565
544
534
517
464
427
455
477
452
492
621
685
713
791
789
885
1270
1277
739
589
249
-1658
-3547
-2982
-1002
50
19
-245
-471
-596
-572
-492
-406
-290
-160
-69
-50
-76
-80
-56
-32
3
83
178
241
296
345
355
385
429
361
297
387
411
339
355
299
287
486
274
-15
547
318
-1820
-3004
-1881
-769
-328
231
333
23
119
271
153
186
328
308
256
251
225
204
203
204
206
198
210
238
208
196
299
383
511
863
995
482
-85
-109
58
36
-24
-4
34
67
77
43
21
68
107
68
83
155
89
61
187
80
62
508
-90
-2288
-3271
-1628
107
311
98
140
98
9
8
-14
-59
-76
-92
-102
-88
-63
-40
-31
-19
34
101
120
74
16
4
21
33
33
7
-14
10
-5
-38
79
244
358
624
788
344
-246
-277
-71
-97
-175
-165
-160
-150
-136
-145
-125
-99
-118
-115
-64
-45
-55
-16
48
78
99
138
165
178
212
249
246
211
169
117
48
-23
-81
-114
-131
-155
-185
-197
-181
-153
-146
-165
-160
-99
-34
-18
-29
-37
-52
-79
-94
-73
-50
-60
-57
-34
-58
-38
88
206
421
801
801
203
-243
-157
-50
-130
-130
-59
-68
-100
-75
-34
-15
-14
-15
-12
2
29
43
31
8
-20
-26
21
83
108
117
130
115
59
-2
-45
-79
-107
-124
-133
-127
-107
-102
-85
-12
73
185
427
732
987
1300
1593
1426
762
125
-187
-306
-355
-358
-358
-378
-404
-417
-428
-452
-475
-485
-518
-575
-606
-610
-608
-577
-493
-383
-275
-159
-39
35
42
39
54
35
-13
-21
-5
-16
-20
2
-11
-39
-13
29
32
29
44
49
54
72
82
82
85
87
89
97
92
65
39
30
33
36
32
30
57
103
125
110
79
50
29
27
33
19
16
43
28
2
70
158
276
615
881
550
-47
-223
-96
-82
-125
-96
-85
-116
-125
-115
-114
-121
-118
-103
-88
-81
-63
-30
-7
19
69
113
126
139
162
170
163
139
85
19
-32
-73
-107
-119
-118
-125
-136
-140
-156
-182
-175
-149
-159
-171
-117
-47
-34
-56
-81
-114
-138
-119
-81
-86
-107
-61
-22
-83
-81
61
206
410
605
363
-179
-353
-186
-142
-187
-155
-144
-166
-170
-201
-215
-145
-93
-123
-132
-69
-15
-6
17
85
153
194
240
292
307
290
267
204
95
8
-33
-67
-91
-88
-75
-67
-66
-72
-75
-68
-50
-36
-51
-59
-1
87
123
106
79
68
72
70
75
99
134
228
426
625
758
917
1117
1201
992
487
9
-113
-49
-95
-125
-49
-78
-132
-65
-164
-293
-74
-251
-1186
-1420
-502
8
-281
-379
-248
-297
-310
-189
-117
-57
52
140
197
234
234
240
275
287
244
189
199
259
260
253
338
350
255
295
342
282
457
514
140
459
676
-2161
-5678
-4220
-180
277
-1184
-1014
-763
-378
1265
744
-2327
-2519
273
1211
462
602
935
695
639
741
674
646
627
553
591
637
546
511
598
595
571
697
719
662
891
876
512
1068
1177
-2025
-5153
-3019
671
204
-1872
-1818
-773
126
542
-116
-496
45
-156
-592
256
1032
774
663
829
691
631
730
638
581
679
641
578
649
599
496
564
569
689
1117
1002
620
930
-83
-3190
-4026
-1608
-748
-1849
-1256
349
618
378
564
631
514
500
498
467
460
476
539
611
617
599
636
689
652
580
603
574
408
379
368
121
239
568
-1008
-4661
-6316
-3611
-280
-162
-1664
-1848
-791
248
745
689
502
514
550
512
519
532
507
530
573
525
481
585
750
947
1209
1206
744
293
227
375
415
264
291
467
184
167
846
-662
-4781
-5716
-1985
35
-1213
-944
891
1145
649
886
1010
837
912
969
857
819
785
691
655
629
551
504
494
497
531
539
541
610
630
723
1115
1341
1415
2234
2574
-257
-4966
-6699
-3923
-528
-119
-1405
-1395
-239
325
274
293
280
130
52
25
-70
-152
-156
-144
-118
-41
65
222
423
540
596
698
722
675
704
588
438
652
572
166
765
667
-2711
-5394
-3047
-46
-741
-1890
-1202
-589
216
1723
852
-2491
-3178
-266
1534
979
700
1014
900
779
882
828
803
922
872
792
884
783
626
862
783
394
1032
937
-2404
-5008
-2577
951
1485
1082
722
-784
-1636
-409
756
679
546
701
622
429
386
452
549
541
423
454
569
477
501
717
486
411
1107
503
-1679
-1662
569
1065
604
1126
-655
-4941
-5694
-1911
990
987
20
-1014
-1696
-1213
40
897
925
621
663
843
669
825
1359
607
-885
-369
1601
2393
2235
2178
1611
666
317
260
24
81
180
-204
-69
444
-902
-2980
-2137
155
-208
-2347
-3217
-2691
-1659
-491
135
86
18
99
144
234
347
387
481
561
412
249
333
480
504
464
445
484
463
363
412
418
207
325
459
-7
220
783
-1325
-4141
-2688
528
264
-1717
-2015
-1136
40
1037
1065
741
864
888
629
592
696
633
549
603
665
787
1214
1556
1155
403
140
300
355
244
286
431
217
129
714
-159
-3852
-6093
-3398
-93
-793
-2875
-2542
-634
680
1030
966
961
1066
1059
968
912
825
725
709
688
590
538
552
526
511
538
520
502
493
428
468
525
394
522
699
220
371
1087
-1279
-5238
-4117
119
119
-1848
-350
1814
1684
1684
2500
2348
1437
722
240
69
142
121
60
81
65
44
69
6
-82
-74
-127
-238
-240
-324
-416
-262
-429
-688
48
-171
-3360
-5327
-2565
249
-847
-2662
-2372
-1047
175
785
610
451
647
633
422
398
434
396
430
497
473
464
566
638
591
544
559
549
484
429
431
472
450
370
400
367
-65
-214
752
1421
-142
-2573
-3081
-1713
-362
195
278
288
350
350
302
306
308
306
350
354
307
335
418
454
465
519
616
699
707
709
719
564
433
549
345
-84
297
427
-1463
-3459
-3031
-1423
-450
39
224
122
163
291
238
199
257
227
142
132
153
148
160
166
124
136
221
206
165
287
395
453
711
824
339
-180
-151
-22
-120
-49
133
-117
-765
-1447
-1794
-1232
-73
402
112
61
289
344
352
395
375
405
482
479
474
517
510
443
359
286
261
252
218
198
168
139
210
111
-441
-629
208
464
-1134
-2762
-3041
-2529
-852
791
-683
-2999
-1615
1018
1004
234
555
689
430
514
641
614
740
1080
1448
1385
676
161
406
417
22
480
656
-1335
-2869
-1276
671
578
111
299
541
532
-251
-1672
-2356
-1718
-365
820
1078
691
590
778
790
720
697
595
467
423
434
442
408
374
395
371
336
413
366
262
453
361
41
727
648
-2666
-5185
-2663
262
-1124
-3196
-2304
-364
580
771
638
524
667
718
582
679
842
582
246
302
374
276
383
427
22
-163
252
525
409
361
370
366
436
395
437
613
281
217
1075
-160
-4289
-5567
-2045
185
-1340
-2403
-1174
311
890
831
619
586
627
584
584
698
798
796
863
1155
1414
1552
2029
2671
2492
1440
539
191
56
22
23
-77
-82
-35
-220
-243
-102
-487
-516
191
-1075
-4035
-3847
-836
-312
-2201
-2572
-1234
-92
365
357
262
379
498
475
406
288
182
191
249
277
274
268
319
410
496
618
744
833
999
1233
1370
1367
1142
646
203
125
223
100
-157
-23
195
-193
-178
585
-501
-3432
-4118
-2142
-811
-452
73
194
-27
68
28
-266
-202
115
302
498
730
766
655
607
606
551
468
433
435
422
416
442
418
369
415
434
365
420
426
248
390
516
87
370
856
-1596
-4911
-3679
-307
-518
-2615
-2855
-1930
-840
329
652
320
391
611
546
511
543
494
470
485
471
495
561
559
513
549
613
607
625
602
436
456
562
250
247
779
-327
-2951
-2942
135
1354
-518
-1704
-1442
-1809
-1906
-364
911
696
402
575
592
544
589
548
540
536
325
204
437
629
526
459
586
621
567
690
725
507
645
861
-136
-1879
-2564
-1955
-898
106
523
309
190
308
287
222
254
242
228
294
330
309
334
419
464
408
357
383
344
257
271
240
185
305
226
-9
297
296
-833
-1097
121
-148
-2251
-2860
-1289
157
532
483
457
478
446
331
256
292
355
369
337
310
361
398
306
345
539
447
412
730
478
265
1217
414
-3352
-4489
-1427
-231
-2055
-2526
-1389
-527
277
775
527
400
594
554
479
611
738
912
1232
1468
1624
1990
2297
1912
1029
419
178
36
66
55
-155
-48
35
-457
-221
329
-1755
-4486
-3059
-123
-817
-2784
-2162
-500
75
88
145
232
419
575
537
481
561
595
419
280
386
447
369
448
466
276
425
551
138
446
768
-2132
-5783
-4221
-112
92
-1603
-1145
-340
-379
244
899
622
393
545
553
515
534
476
452
501
499
480
532
601
581
494
477
537
561
605
835
1186
1334
883
43
-112
429
31
-1055
-793
-219
-1560
-2866
-1652
237
542
111
119
285
321
407
492
452
435
513
556
566
628
666
639
620
597
525
440
381
357
339
287
250
225
161
165
158
0
116
390
-341
-1661
-1471
162
1114
972
924
1285
1504
1253
656
111
-124
-165
-203
-226
-170
-137
-190
-176
-139
-245
-300
-318
-526
-468
-304
-849
-831
106
-1479
-4836
-4221
-1080
-1116
-2017
-149
1329
616
125
258
160
215
351
406
613
525
426
914
395
-1515
-1695
298
1111
439
480
777
440
530
764
226
494
1143
-1420
-4878
-3186
652
-40
-2646
-2364
-1317
-1336
-441
1016
1118
728
969
982
602
753
1075
963
1342
1950
771
-1187
-890
735
1014
577
734
894
723
664
757
738
594
706
883
532
574
1293
307
-2184
-2819
-1881
-1395
-343
1243
1448
848
641
295
-125
-7
278
364
433
495
486
496
513
451
384
415
446
410
418
444
466
625
619
296
382
587
54
205
1084
-715
-3955
-3434
-978
-1478
-3141
-2986
-1828
-288
1016
831
172
383
593
330
285
402
337
289
327
315
284
285
297
304
300
329
383
381
408
519
500
421
528
536
453
614
345
-160
477
186
-3396
-5880
-3707
-1395
-1646
-1156
438
549
-175
-28
