# session 171
-27
-12
-6
-3
14
26
8
-5
13
18
-4
-6
25
43
33
21
19
21
27
30
21
23
53
85
80
52
32
19
4
-11
-23
-22
-16
-24
-16
15
5
5
104
215
364
668
779
347
-156
-212
-75
-70
-98
-86
-88
-86
-76
-88
-93
-75
-71
-70
-56
-55
-63
-47
-25
-21
-12
17
49
90
138
168
177
200
236
239
210
185
153
87
16
-28
-64
-113
-153
-158
-133
-120
-135
-143
-122
-97
-74
-36
52
266
550
746
962
1312
1371
772
-12
-387
-442
-448
-403
-334
-332
-361
-380
-405
-417
-410
-418
-429
-415
-422
-467
-501
-509
-513
-499
-466
-433
-372
-251
-112
2
102
182
202
168
133
106
59
11
3
12
3
3
14
-5
-27
1
47
56
52
64
65
48
52
77
86
80
85
93
99
118
134
125
110
110
112
100
81
70
69
69
57
37
26
28
26
22
26
27
26
38
53
52
51
62
60
33
11
16
31
23
4
30
107
146
104
58
60
71
69
65
54
46
45
40
41
23
-4
58
177
321
632
869
513
-134
-325
-163
-134
-186
-163
-158
-176
-154
-144
-167
-168
-152
-162
-180
-171
-152
-158
-170
-154
-119
-96
-75
-37
13
63
107
142
179
205
195
169
156
124
58
10
-12
-46
-90
-109
-114
-136
-160
-161
-151
-154
-163
-166
-159
-136
-117
-126
-142
-134
-117
-109
-101
-92
-90
-72
-18
28
8
-55
-79
-55
-40
-48
-53
-41
-29
-40
-45
-17
-16
-32
32
141
275
484
507
120
-251
-214
-65
-91
-132
-92
-72
-88
-89
-79
-75
-77
-70
-53
-39
-36
-31
-18
7
41
79
117
162
218
270
305
334
359
361
341
312
254
167
99
64
30
1
-9
-23
-43
-40
-33
-38
-28
-10
9
71
139
181
328
582
764
936
1193
1198
722
133
-182
-253
-252
-275
-327
-353
-351
-362
-378
-389
-416
-440
-441
-446
-465
-479
-495
-517
-533
-533
-517
-478
-411
-321
-212
-95
13
88
123
125
103
70
46
29
9
-3
-4
-12
-25
-24
-18
-27
-38
-34
-23
-19
-30
-41
-30
-13
-22
-45
-49
-41
-36
-36
-32
-14
-2
-13
-23
-23
-18
-3
5
-9
-9
19
36
48
82
101
91
101
131
124
82
61
74
90
95
101
130
174
189
162
128
108
95
92
86
67
60
59
40
41
55
24
57
217
364
543
780
645
63
-278
-139
-20
-82
-94
-64
-79
-83
-71
-90
-103
-75
-53
-65
-72
-55
-32
-9
3
2
22
70
102
125
184
250
269
258
259
258
229
174
99
27
-23
-66
-110
-138
-163
-198
-216
-214
-220
-222
-211
-215
-228
-225
-211
-211
-230
-246
-240
-228
-237
-244
-205
-144
-123
-145
-164
-168
-178
-182
-166
-166
-177
-159
-141
-147
-122
-107
-134
-59
111
239
429
595
304
-247
-383
-177
-131
-197
-155
-112
-141
-130
-72
-56
-77
-70
-51
-48
-27
8
15
20
56
92
117
159
223
294
363
412
440
461
444
360
259
212
187
133
71
31
-2
-27
-29
-23
-32
-49
-58
-63
-67
-51
-20
-5
22
103
212
353
561
788
1016
1327
1562
1375
779
180
-147
-245
-256
-272
-302
-314
-310
-312
-327
-341
-343
-346
-366
-383
-400
-443
-484
-504
-532
-560
-561
-545
-500
-407
-308
-219
-107
7
70
81
77
67
35
-19
-60
-76
-91
-100
-90
-81
-76
-58
-43
-54
-71
-67
-57
-65
-80
-82
-76
-73
-65
-48
-31
-29
-32
-16
9
22
27
29
20
8
4
-2
-11
-25
-38
-38
-35
-43
-44
-26
4
42
65
51
23
9
11
13
2
3
36
42
1
5
55
38
24
139
278
381
528
510
138
-185
-117
40
21
-15
17
16
-23
-38
-33
-37
-50
-56
-59
-67
-68
-52
-35
-23
2
38
76
118
163
204
244
286
317
331
336
324
287
237
187
135
92
68
44
16
16
38
57
92
158
265
459
690
890
1133
1309
1031
347
-187
-347
-359
-346
-306
-306
-351
-383
-410
-445
-469
-485
-504
-520
-532
-541
-550
-564
-578
-589
-588
-549
-470
-380
-287
-189
-101
-43
-15
-15
-35
-59
-82
-97
-96
-92
-103
-110
-98
-77
-65
-60
-49
-30
-20
-4
33
42
53
175
317
351
470
772
938
755
380
0
-260
-313
-239
-183
-177
-193
-206
-197
-185
-194
-202
-194
-195
-218
-237
-240
-253
-284
-305
-299
-260
-191
-119
-55
41
192
343
436
476
478
447
411
383
341
280
229
196
167
137
113
97
78
59
48
25
5
28
37
-10
16
129
192
287
428
284
-106
-236
-80
-22
-69
-57
-40
-56
-48
-30
-32
-33
-25
-25
-23
-16
-7
15
49
78
113
164
199
217
248
276
264
228
193
147
87
30
-22
-74
-104
-110
-125
-142
-132
-126
-155
-182
-180
-181
-186
-178
-177
-187
-178
-139
-99
-90
-123
-161
-172
-181
-199
-199
-193
-197
-183
-165
-167
-144
-123
-152
-101
66
203
364
532
321
-196
-384
-196
-112
-163
-142
-115
-135
-133
-123
-123
-102
-85
-95
-90
-64
-46
-29
-1
18
41
91
154
204
245
284
309
322
331
320
280
227
158
77
28
22
9
-22
-31
-21
-24
-20
4
11
-3
6
36
44
19
-4
-6
-8
-22
-25
2
35
32
-13
-59
-70
-55
-35
-19
-10
3
21
0
-25
21
45
-5
38
178
293
522
757
505
-65
-250
-78
-37
-113
-96
-56
-69
-80
-70
-78
-89
-78
-75
-100
-108
-99
-122
-159
-151
-113
-77
-27
49
118
151
168
193
197
146
64
-9
-64
-108
-140
-155
-154
-153
-156
-162
-169
-172
-172
-168
-156
-139
-132
-130
-123
-119
-109
-74
-39
-39
-39
4
45
28
-19
-46
-59
-73
-65
-42
-54
-76
-55
-46
-70
-57
-44
-80
-43
87
211
364
422
132
-244
-266
-95
-56
-67
-34
-28
-27
4
15
8
22
39
39
39
46
61
74
90
126
171
180
176
216
280
318
344
363
346
306
266
210
139
84
49
21
-7
-28
-34
-33
-34
-24
-7
1
2
5
11
16
14
3
-19
-37
-32
-12
-13
-28
-16
15
31
26
1
-38
-58
-46
-36
-57
-84
-89
-96
-108
-81
-64
-113
-122
-56
13
186
422
296
-190
-442
-326
-244
-279
-269
-242
-245
-228
-206
-205
-198
-180
-169
-160
-150
-138
-120
-96
-69
-40
-3
46
100
146
188
234
268
276
262
232
182
119
58
11
-22
-41
-57
-74
-83
-81
-78
-79
-85
-87
-71
-58
-68
-69
-48
-42
-64
-76
-57
-24
-19
-29
8
74
84
48
37
36
15
17
47
50
39
56
64
54
78
81
39
81
206
322
508
616
294
-183
-251
-63
-29
-72
-46
-31
-45
-40
-39
-56
-67
-66
-60
-55
-47
-27
4
26
34
50
91
141
190
239
283
318
344
350
331
294
236
156
87
42
-2
-40
-56
-68
-90
-99
-95
-91
-91
-106
-130
-140
-144
-160
-175
-183
-198
-200
-188
-192
-201
-187
-166
-146
-121
-124
-161
-187
-193
-200
-196
-188
-192
-185
-175
-193
-191
-165
-179
-148
-13
102
254
510
464
-29
-359
-242
-117
-164
-175
-136
-140
-144
-125
-122
-131
-131
-124
-112
-94
-75
-62
-57
-40
14
78
109
139
206
269
303
339
367
355
323
275
203
142
105
64
28
36
67
64
29
26
72
97
75
74
112
135
157
204
265
408
624
749
861
1111
1143
653
83
-143
-208
-287
-306
-300
-327
-326
-295
-283
-283
-283
-284
-279
-286
-317
-340
-345
-358
-381
-388
-371
-337
-279
-196
-95
21
139
215
238
237
212
162
127
108
74
44
42
42
26
3
-22
-38
-47
-65
-77
-66
-55
-66
-90
-110
-118
-105
-87
-99
-124
-125
-113
-118
-126
-126
-125
-116
-106
-104
-105
-103
-97
-86
-81
-84
-74
-54
-38
-25
-16
-15
-22
-26
-16
-6
-18
-26
14
64
63
29
5
-6
-9
-8
-9
-5
-5
-20
-16
21
17
-39
-4
149
298
445
521
271
-156
-264
-79
-4
-50
-35
-5
-9
9
32
19
8
17
20
22
36
53
73
98
116
123
137
164
203
239
264
289
313
322
313
288
249
206
168
125
75
35
9
-10
-25
-32
-31
-29
-28
-28
-25
-19
-17
-24
-27
-20
-26
-56
-80
-72
-53
-56
-71
-66
-33
-2
1
-28
-70
-97
-100
-95
-93
-98
-123
-163
-183
-164
-157
-204
-217
-133
-21
148
372
318
-124
-458
-413
-299
-305
-313
-289
-270
-252
-247
-254
-246
-230
-226
-228
-221
-198
-171
-147
-115
-79
-44
14
91
150
195
250
293
308
311
295
240
156
73
11
-30
-63
-92
-106
-106
-110
-119
-114
-108
-108
-89
-58
-16
78
192
309
529
786
926
1121
1417
1317
654
29
-174
-195
-240
-274
-283
-288
-287
-292
-293
-281
-281
-304
-327
-352
-383
-402
-416
-441
-456
-447
-424
-377
-291
-184
-67
60
161
221
274
320
372
480
563
600
837
1246
1411
1299
1140
778
182
-224
-292
-269
-260
-249
-264
-286
-281
-259
-256
-290
-313
-303
-331
-387
-392
-384
-420
-432
-373
-298
-235
-162
-79
-13
24
33
9
-23
-36
-43
-73
-109
-127
-119
-86
-59
-78
-113
-95
-39
-20
-59
-109
-132
-130
-124
-120
-116
-108
-94
-80
-68
-48
-36
-42
-24
4
-19
-5
117
239
388
605
530
39
-299
-200
-60
-82
-98
-79
-88
-93
-90
-99
-90
-76
-90
-98
-66
-35
-30
-24
1
43
97
139
169
225
301
342
345
351
359
335
273
202
152
127
95
53
36
37
18
-10
-20
-19
-23
-31
-41
-57
-79
-83
-57
-48
-74
-66
-11
9
-20
-43
-44
-43
-44
-43
-38
-29
-16
-5
-11
-10
11
-7
-37
32
150
271
480
557
208
-208
-232
-95
-97
-113
-79
-88
-111
-98
-87
-91
-96
-104
-106
-104
-109
-106
-91
-84
-77
-46
-7
31
76
106
117
141
166
156
127
91
24
-49
-91
-122
-154
-162
-160
-171
-180
-175
-171
-165
-141
-104
-62
-17
40
159
362
570
749
979
1176
1030
491
-35
-239
-250
-278
-318
-322
-330
-348
-343
-330
-336
-350
-377
-415
-429
-423
-428
-438
-440
-438
-416
-363
-275
-158
-48
50
164
258
278
260
240
190
128
109
120
118
101
93
102
110
96
77
78
86
80
75
77
74
64
58
58
52
36
20
12
7
-4
-12
-4
8
7
5
11
15
15
21
24
22
27
34
33
26
8
-17
-25
-10
-9
-25
-5
58
95
76
44
24
9
3
5
-4
-15
-23
-39
-29
-5
-48
-61
75
226
380
622
567
5
-415
-311
-162
-209
-214
-179
-214
-232
-216
-231
-238
-212
-201
-207
-200
-180
-162
-142
-107
-57
-3
53
114
165
209
266
315
325
314
308
286
238
176
110
52
8
-31
-58
-73
-83
-75
-47
-10
52
141
273
524
827
1014
1220
1551
1531
816
-29
-373
-351
-326
-353
-378
-386
-376
-393
-440
-459
-449
-458
-475
-492
-536
-578
-582
-579
-602
-600
-531
-423
-311
-189
-65
29
93
135
131
89
52
26
-2
-18
-20
-28
-34
-15
13
25
34
46
49
48
51
50
50
64
79
75
61
58
66
77
78
67
70
89
89
64
46
43
51
61
48
20
10
10
8
17
16
-20
-52
-59
-60
-54
-39
-26
8
50
42
-4
-34
-49
-51
-34
-36
-70
-88
-83
-76
-71
-97
-123
-48
82
200
397
512
218
-225
-299
-120
-58
-80
-62
-49
-47
-39
-53
-76
-79
-75
-73
-71
-71
-62
-43
-28
-19
-3
22
58
98
121
141
186
225
221
215
222
197
151
113
64
35
57
53
-1
-17
18
27
-1
-13
14
48
58
79
138
222
382
630
838
1014
1228
1200
702
102
-168
-202
-228
-249
-241
-241
-254
-264
-269
-274
-287
-313
-333
-343
-359
-380
-398
-415
-432
-437
-417
-361
-277
-189
-99
4
95
134
131
111
74
36
15
-2
-25
-39
-45
-42
-25
-17
-33
-43
-40
-45
-50
-30
-4
-10
-37
-40
-22
-25
-45
-54
-64
-86
-90
-71
-59
-56
-52
-56
-62
-63
-64
-69
-85
-114
-132
-115
-89
-89
-93
-54
5
24
3
-14
-20
-24
-23
-26
-34
-29
-34
-65
-69
-62
-106
-108
6
149
368
647
545
-30
-408
-294
-154
-213
-244
-208
-215
-236
-230
-219
-211
-198
-180
-142
-107
-104
-101
-62
-14
23
70
123
161
194
238
286
327
361
380
382
375
348
287
223
181
146
103
68
55
43
18
9
30
38
51
135
237
344
576
862
1037
1243
1482
1298
616
4
-246
-331
-361
-332
-337
-376
-354
-320
-349
-369
-342
-346
-384
-392
-386
-405
-431
-448
-475
-501
-467
-363
-252
-165
-64
55
142
173
174
167
140
85
24
11
45
57
20
-6
3
4
-12
-18
-16
-19
-8
23
51
114
273
456
565
674
808
774
517
271
167
111
28
-77
-172
-219
-222
-218
-220
-232
-261
-297
-318
-323
-330
-353
-367
-342
-311
-331
-392
-444
-461
-453
-447
-434
-384
-314
-247
-166
-80
-29
3
48
65
35
27
60
76
72
78
84
86
94
96
91
98
104
83
61
68
78
71
66
68
62
49
44
47
45
35
30
31
21
7
7
10
4
7
17
18
20
29
26
15
16
27
26
16
14
30
46
33
8
16
36
9
-37
-13
50
47
14
51
119
135
113
85
67
83
103
82
70
100
121
129
131
92
99
231
382
568
859
857
295
-165
19
