# session 230
-312
-372
-450
-467
-477
-557
-468
-294
-504
-584
-170
-702
-2193
-2096
-443
135
-335
-269
-9
-82
-38
57
51
174
162
23
234
173
-259
147
-456
-4195
-6062
-2276
488
-1858
-2934
-206
1348
811
697
798
584
79
-1010
-1279
77
968
591
442
679
625
574
680
676
652
684
657
646
738
815
775
763
914
976
846
750
90
-1928
-4469
-6079
-5852
-3287
163
1717
1224
815
1236
1231
-480
-2732
-2601
-181
1345
1168
992
1093
923
823
880
826
825
780
622
801
871
456
860
1463
-294
-2295
-606
2183
2019
709
680
933
793
781
799
707
704
716
596
503
651
720
422
527
959
-62
-1855
-1409
615
1196
657
639
746
580
586
636
493
396
426
436
391
344
355
387
317
230
266
298
293
353
291
214
439
382
35
523
370
-2761
-5699
-4167
-747
382
241
664
582
-857
-2572
-2833
-1113
561
439
8
229
-44
102
900
-1079
-4617
-3753
151
1182
171
357
780
548
570
723
669
756
876
869
922
874
734
899
1012
712
628
586
62
299
870
-1223
-4307
-3245
508
1232
-994
-1936
-771
207
211
302
756
1027
1284
1821
2181
1959
1317
595
98
-39
41
112
83
48
71
14
-78
-32
-159
-394
-91
-375
-2994
-5686
-4646
-1222
392
-16
118
891
404
-1375
-2549
-2208
-1035
211
960
675
138
726
1043
-930
-2568
-946
1149
992
481
833
924
743
821
836
745
774
783
742
734
685
677
730
664
685
822
561
420
915
333
-1596
-1860
-161
791
781
318
-1119
-1834
-510
615
175
-317
-26
-165
-1772
-3204
-2091
249
960
510
592
850
713
617
677
660
671
739
671
589
673
670
592
758
777
572
881
680
-1320
-2622
-1012
942
1035
548
488
712
789
-124
-1394
-1455
-703
-121
419
717
558
499
647
679
723
869
973
1058
1187
1392
1689
1817
1483
873
412
231
202
217
223
208
176
115
102
135
10
-142
-43
-155
-500
-116
-246
-3275
-6244
-4150
106
563
-1029
-888
-419
-505
-836
-3222
-5194
-2093
1555
-278
-2865
-1079
1375
1366
978
1240
1221
1063
1134
1151
1073
1024
1027
1088
1018
908
1111
1156
756
987
1408
-541
-4341
-6077
-5104
-4754
-5667
-4763
-1535
649
-17
-1923
-2651
-1266
350
382
340
1095
1341
1620
1736
-325
-1985
23
2098
1283
653
1528
1832
1552
1730
1958
1977
2090
2187
2164
2157
2141
2036
1855
1632
1435
1287
1109
925
876
884
772
697
727
628
599
728
518
462
969
336
-1606
-2461
-2428
-2698
-1556
764
1159
-11
-361
-194
-300
-228
-62
-123
-143
-50
-48
-100
-109
-124
-205
-319
-350
-298
-341
-484
-470
-265
-110
-1
160
224
283
484
462
336
532
338
-72
635
548
-2498
-4909
-3806
-2066
-1120
-34
95
-169
691
-119
-3115
-3131
21
1182
283
302
704
509
465
609
686
962
1227
1332
1508
1482
1360
1563
1059
-519
-1034
22
591
351
133
-75
258
516
-1197
-3066
-1972
304
614
-915
-2753
-3291
-1945
-526
-415
-745
-803
-700
-397
-66
76
209
388
511
612
648
613
664
743
699
670
758
801
763
804
922
980
1031
1218
1415
1515
1702
1860
1681
1284
683
42
206
591
-386
-1718
-1763
-1315
-1075
-1227
-2225
-2455
-784
334
-203
-466
-157
-220
-281
-60
65
170
378
506
552
577
548
507
478
441
464
580
728
853
903
971
1295
1720
1788
1622
1534
1083
232
-3
161
-323
-302
497
-1129
-4312
-3281
391
-154
-2690
-1796
-867
-2255
-1832
-757
-2585
-3272
-510
979
212
309
943
848
800
918
757
682
755
645
555
665
676
573
623
629
501
619
633
245
544
897
-1452
-4882
-4211
-192
1682
890
512
461
180
848
741
-1710
-2476
-221
-158
-2358
-1618
864
1020
254
510
668
464
583
715
675
723
769
741
745
734
660
560
439
354
333
302
271
293
321
328
353
411
481
482
416
385
329
267
366
331
88
361
437
-1818
-5531
-6909
-4978
-2494
-1382
-1136
-722
111
788
855
735
832
899
835
851
898
854
808
806
785
741
708
683
671
700
757
798
792
778
816
867
842
769
721
649
542
499
496
447
436
457
377
361
484
400
282
510
251
-1248
-2829
-2967
-1664
-94
633
451
139
245
478
286
185
718
365
-1407
-1759
78
1102
706
752
943
420
89
362
534
479
520
584
528
531
616
475
393
803
452
-1997
-4725
-5151
-4600
-5603
-5886
-2163
1748
592
-2213
-1541
-5
-473
-328
1221
1657
1096
1096
1247
1127
1191
1292
1198
1205
1320
1302
1241
1328
1515
1651
1762
1958
2087
2126
2414
2593
1981
1303
1099
511
245
1041
198
-2635
-3201
-1331
-852
-1931
-2766
-3083
-2937
-2598
-1976
-668
220
-66
-280
98
337
390
141
-1321
-3451
-3548
-587
2120
1237
-1242
-1188
907
1755
1237
1135
1360
1269
1171
1210
1173
1079
1051
1066
945
790
987
896
-1307
-5400
-7039
-3519
214
-793
-2499
-525
1598
1037
271
334
151
41
250
301
371
530
569
752
1084
1349
1768
1968
1276
460
444
644
620
599
385
355
818
184
-1600
-1559
225
481
-246
420
800
-806
-2359
-2500
-1864
-508
912
1111
700
760
874
723
637
587
483
421
357
299
337
380
339
316
388
411
298
277
442
509
498
606
572
527
895
972
699
1380
1709
-211
-1529
-657
-1271
-3129
-2077
202
80
-771
-549
-418
-583
-454
-408
-522
-446
-338
-372
-418
-414
-344
-200
-78
-18
58
178
226
92
-60
21
177
160
158
211
55
55
340
-520
-2905
-4040
-2200
155
657
268
279
388
356
406
459
435
426
429
423
415
408
425
428
429
447
419
498
629
151
-718
-980
-951
-742
372
329
-2201
-2729
142
447
-2326
-2131
527
991
161
350
607
453
590
758
712
806
1025
1183
1306
1365
1347
1331
1298
1198
1070
931
758
601
494
377
303
322
234
106
218
170
-250
-551
-1383
-3040
-2927
-427
633
-233
374
557
-3171
-6090
-3312
606
976
242
582
759
556
620
668
675
827
919
1163
1398
708
-64
511
515
-1573
-2501
-533
955
387
-220
-319
-611
-754
-602
-510
-367
-131
-17
88
334
580
751
869
887
847
824
777
726
659
510
465
519
394
411
545
121
156
1065
-353
-3995
-4074
-331
1269
382
463
43
-2580
-3888
-1628
708
511
398
1288
-369
-3597
-2774
962
1777
643
1543
2137
-440
-2373
-591
1464
1230
778
1114
1124
934
1014
964
851
933
919
828
844
826
927
1054
784
929
1591
548
-1737
-1849
-429
-339
-566
114
231
-305
-222
219
391
489
615
654
657
775
896
706
588
887
737
377
1068
650
-2874
-5223
-3796
-3310
-4753
-2937
1280
1806
-1357
-3168
-1753
670
1989
1998
1127
429
1030
1059
-1342
-2715
-505
1503
1038
656
1112
1042
826
1000
939
791
1024
877
397
946
979
-2300
-5726
-4388
-655
1035
706
-1507
-4849
-4619
-76
2194
-456
-2758
-1574
229
764
1173
798
-1452
-2681
-588
1859
2054
1605
1795
1826
1627
1675
1628
1451
1560
1551
1327
1574
1523
845
1592
2354
-374
-2603
-513
-464
-4406
-4030
591
1691
634
1280
95
-2891
-2164
664
763
395
1253
-175
-2708
-1804
881
1755
976
-472
-1049
456
1844
1480
1127
1416
1278
993
1052
1027
875
837
782
720
733
636
558
720
672
482
894
1129
771
1652
2147
-1829
-6268
-4260
344
739
-807
-649
-325
-678
-545
-190
-189
-147
24
54
-7
-29
-54
-147
-221
-196
-216
-233
-112
-152
-133
462
176
-2628
-5871
-6128
-3253
39
1255
732
823
1260
-322
-2588
-2361
-536
440
687
838
747
731
1020
1277
1396
1449
1381
1248
1103
893
737
757
817
785
650
492
506
571
378
315
544
88
-945
-913
48
260
-141
-111
11
-107
-26
-1
-214
81
352
-789
-2037
-1096
671
311
-1438
-1573
-83
691
453
434
607
582
672
814
719
618
661
713
739
648
514
594
606
422
692
695
-1652
-5405
-6402
-3354
217
1283
739
610
781
-17
-1575
-2514
-2289
-1210
119
756
584
501
705
819
886
862
829
1016
886
615
1178
1223
-387
-776
1210
2065
908
453
901
902
767
788
695
746
838
647
621
669
297
507
983
-1566
-6084
-6255
-2484
-1395
-2284
-570
1344
1081
1289
1183
-1207
-2065
342
1745
1012
850
1254
1054
865
1012
975
822
858
887
821
960
1027
683
915
1422
-800
-5183
-6025
-1983
1629
2095
1663
1924
2427
1945
-501
-3182
-3352
-2240
-2491
-2612
-707
896
645
550
767
-307
-1168
-173
793
498
256
451
391
272
383
480
553
708
822
879
943
933
875
875
825
730
741
634
464
656
629
180
452
217
-2131
-2732
321
857
-2394
-2581
-301
-1332
-2818
-767
1073
539
309
733
602
523
757
746
692
813
816
722
789
970
1118
1330
1535
1162
320
244
843
-13
-3133
-6234
-6194
-2689
532
757
377
935
-1
-2264
-3259
-3340
-2654
-216
1317
528
990
1918
-1074
-4141
-1687
1904
1760
800
1185
1259
892
929
1040
909
741
853
958
616
778
1349
-128
-2613
-1902
875
1470
648
787
939
559
707
780
282
611
1065
-325
-1647
-1158
-1191
-1902
-1006
333
457
-94
-1274
-1958
-569
919
697
378
704
710
557
654
694
662
697
711
702
682
672
769
838
778
810
879
804
847
879
557
545
724
-27
-332
786
-24
-2946
-3069
-1232
-1777
-2228
15
1390
773
892
1555
1547
1749
2233
2027
1314
721
343
191
182
152
153
207
196
159
153
116
100
81
-8
11
-15
-303
-69
232
-2187
-6351
-6209
-1593
-670
-5147
-6297
-1267
1945
-421
-3029
-2680
-1389
-296
637
825
608
742
904
871
957
1083
1091
1120
1179
1194
1203
1207
1163
1114
1110
1113
1064
1008
1031
1108
1115
1025
990
1041
928
736
943
1146
-341
-4101
-6698
-4129
-259
-2210
-5903
-3376
404
-775
-1627
-152
-1038
-1946
485
2044
1118
978
1525
1273
1140
1395
1334
1259
1454
1562
1556
1667
1804
1789
1768
1836
1711
1499
1567
1384
898
1224
1218
-1171
-3198
-1483
1092
1110
460
852
854
472
865
772
-28
772
1236
-2109
-5152
-3820
-2118
-2328
-2275
-2519
-2920
-1286
509
254
-123
350
537
555
896
1310
1488
1116
488
389
646
646
562
633
653
592
582
577
519
491
570
611
510
516
614
484
452
693
476
-458
-2044
-4069
-4864
-3899
-3095
-2312
-332
944
448
180
580
563
450
619
655
595
618
580
567
727
858
802
715
711
712
711
761
767
689
670
696
670
670
633
600
1002
1279
174
-1157
-449
763
-690
-3486
-4330
-3711
-3258
-2173
-455
192
-77
30
310
308
355
512
594
666
736
772
850
939
950
940
973
941
830
777
707
584
629
662
504
578
584
161
435
929
-242
-1183
-174
-620
-3023
-3082
-1660
-2585
-3660
-1693
845
1158
501
442
583
525
473
424
357
337
266
167
184
219
147
83
103
128
178
337
513
617
725
822
884
992
930
701
819
834
321
696
1214
-1562
-5804
-5896
-2615
-941
-1727
-2532
-1597
509
1484
953
744
1079
1008
836
907
789
649
807
726
523
954
1002
-268
-829
437
1303
875
689
944
875
773
868
832
748
815
887
1004
1321
1582
1383
694
145
457
789
-487
-2709
-3874
-3889
-3705
-3274
-2140
-474
762
917
688
794
917
866
897
943
910
944
1008
996
982
1004
982
909
872
855
773
717
733
635
585
747
552
289
900
395
-3529
-7092
-5280
-619
1391
705
489
1088
-201
-3660
-4404
-973
-325
-4554
-5526
-954
2054
1430
1099
1948
2249
891
-2094
-4336
-3273
-251
1467
1402
1164
1241
1218
1150
1147
1109
1085
1087
1061
1057
1071
1075
1080
1033
1018
1082
980
934
1153
279
-2261
-3895
-3498
-3509
-3829
-1884
776
1179
567
715
859
670
673
664
554
628
695
585
518
517
462
445
507
521
468
452
535
584
465
469
720
737
820
1478
1354
135
159
631
-1176
-2502
-868
-424
-2674
-3588
-2512
-1406
-205
629
339
68
387
547
524
609
619
538
539
614
688
720
699
638
543
459
442
455
421
360
359
403
374
330
397
406
316
383
356
63
239
643
265
254
918
-670
-3296
-1866
1139
-218
-2618
-950
1450
1283
833
1202
1140
787
613
361
164
158
114
69
107
91
41
41
27
37
94
21
-68
29
-10
-175
0
0
-347
137
505
-1651
-5181
-7297
-6998
-3899
-381
-895
-3796
-3535
-1092
-817
-1514
-261
1437
1624
1537
2103
2413
2444
2951
3481
3248
2443
1590
982
727
656
615
594
476
435
600
383
80
589
285
-2000
-2967
-1022
392
151
157
239
480
1287
138
-2469
-1714
1063
-2
-3653
-4386
-1860
560
1220
889
730
823
770
701
760
753
656
615
632
617
562
549
607
659
656
618
588
650
734
653
566
649
619
517
626
558
467
855
604
-45
967
991
-2831
-5007
-2509
-1505
-3069
-1957
620
995
647
984
1200
1213
957
393
247
461
429
361
447
411
323
370
401
340
300
304
324
365
389
382
386
414
461
517
567
607
587
510
491
434
255
240
276
-255
-1360
-2552
-3505
-4070
-4237
-3496
-1501
215
294
-97
132
381
350
352
346
296
307
330
327
314
302
341
424
512
573
378
-235
-753
-560
0
265
345
405
302
411
720
118
-1222
-1339
232
1262
-99
-2298
-2702
-2100
-2293
-2009
-546
185
-5
275
747
821
920
1092
1054
957
926
831
682
606
582
570
620
595
478
574
663
484
653
813
209
493
1429
-868
-4579
-3494
397
1327
458
159
-484
-845
-176
-55
-653
-674
-317
-192
35
524
788
570
296
332
452
444
442
496
550
624
677
646
596
604
632
637
649
665
643
630
678
743
801
798
728
786
845
622
583
773
-58
-2000
-3468
-3705
-2738
-871
367
118
-305
-93
110
119
198
350
639
930
921
862
1034
1160
1215
1392
1426
1423
1712
1659
1349
1769
1066
-2527
-4362
-509
