# session 204
80
52
-33
-18
6
-70
26
108
-117
20
244
-413
-221
949
-1559
-6579
-6055
-797
1141
-132
-73
540
210
77
236
99
59
192
173
132
200
225
136
113
272
405
489
780
928
425
-165
-161
32
-29
-102
-52
-25
-24
-20
-37
-28
14
39
90
142
98
106
241
205
182
644
445
-2591
-7431
-8829
-4649
-726
-1414
-2213
101
1631
846
582
1029
884
738
886
832
766
837
811
763
788
803
849
915
937
1053
1275
1419
1602
1953
2072
1654
1047
622
374
243
236
272
236
159
170
204
109
17
-7
-133
-173
-77
-317
-491
-85
-463
-2130
-2598
-734
816
214
-184
1268
404
-4727
-6880
-2638
361
-1014
-1204
914
1678
-22
-2708
-3412
-898
1431
1303
771
978
1036
942
1053
1129
984
735
672
791
791
738
829
945
911
733
726
867
592
502
1195
640
-1643
-1991
275
1386
732
608
932
785
624
692
716
641
529
506
574
598
585
523
499
613
498
364
901
462
-3146
-7170
-6648
-2224
1117
1459
1025
1478
1772
849
242
1010
558
-2255
-3770
-2525
-1441
-964
455
1479
890
291
605
962
967
913
909
923
917
948
1053
1018
950
1256
1214
-654
-3668
-4568
-1920
1090
1579
1386
1547
-1314
-6806
-8035
-3049
1325
1201
292
1014
1494
1156
1147
1313
1220
1190
1221
1112
1027
1027
998
950
913
883
902
984
1018
974
961
894
726
810
945
591
567
1146
7
-3765
-7313
-7909
-5120
-529
2479
2107
241
-1273
-2476
-2839
-1497
519
1450
1294
1129
1184
1148
1094
1101
1049
1014
1033
979
921
958
992
1018
1046
1016
1131
1323
1187
1070
1146
737
710
1593
62
-4736
-7657
-7287
-7155
-5893
-1093
2311
509
-2017
-1626
-628
-364
509
1461
1329
1040
1256
1307
1104
1057
1111
1134
1118
1056
1012
978
891
839
867
873
821
775
810
852
760
726
928
988
1000
1521
1591
401
32
924
-925
-5905
-7978
-4489
241
1832
-32
-2115
-1260
973
1361
690
792
986
792
821
943
903
964
1040
1004
1070
1080
991
1147
1039
578
1093
1114
-2683
-6857
-4624
1008
1509
-2078
-2499
297
1525
952
885
1155
1042
992
1098
1051
988
1054
1076
1014
1048
1099
1006
1004
1073
892
904
1125
734
739
1656
432
-2822
-2968
204
1876
1126
588
1617
2364
-324
-4979
-7318
-7218
-5635
-2531
-664
-849
151
1869
1741
1210
1593
1655
1391
1492
1510
1362
1431
1518
1466
1448
1465
1530
1584
1404
1419
1817
806
-2296
-3839
-1516
1105
1624
2007
1412
-2460
-6381
-6866
-5905
-5753
-5999
-5861
-5328
-5524
-5786
-2887
1586
1779
-1563
-2463
-16
2309
2984
2809
2681
2761
2772
2661
2576
2511
2417
2327
2252
2178
2125
2090
2029
1935
1839
1728
1684
1833
1992
2070
2412
2604
1728
848
1367
1187
-1955
-5748
-6935
-6004
-5830
-7143
-6207
-1408
1143
-1468
-2090
1721
2390
-1448
-2421
733
2610
2116
1917
2238
2144
1982
2001
1926
1812
1743
1589
1418
1390
1358
1199
1163
1193
962
1032
1472
124
-3221
-4136
-976
1557
1375
1325
1391
779
1677
1834
-2200
-5211
-4202
-4683
-5542
-1550
2475
1842
891
1660
1705
1444
1973
2290
2000
1483
850
433
377
344
257
260
299
290
242
179
152
168
184
162
82
25
51
-41
-152
59
82
-292
128
776
-981
-4862
-7692
-7411
-3879
427
1890
931
572
900
742
595
716
642
552
614
585
557
668
722
689
697
713
763
829
766
760
860
724
695
919
555
406
1385
374
-4041
-7233
-7363
-6589
-3066
2229
1012
-5381
-5199
568
1183
-1509
-119
2321
1794
1210
1831
1872
1806
2333
2349
1671
1250
1256
1316
1287
1233
1249
1174
1054
1256
1189
711
1313
1569
-1495
-3933
-1147
1181
-2391
-7074
-7962
-5535
-1438
1170
496
6
1766
2855
2101
1768
2312
1824
304
-3
1133
1670
1275
1110
1186
1127
1104
1125
1166
1297
1488
1799
2086
2277
2823
3316
2897
2262
1403
-1250
-3897
-2619
998
1395
-2527
-6346
-6317
-3202
-52
1303
845
192
893
930
-1732
-3284
-1332
-1132
-4367
-4705
-916
1280
725
515
850
708
627
779
755
722
772
772
817
818
722
839
906
682
945
1313
813
1167
2430
660
-2768
-2161
555
961
776
-244
-4220
-5880
-1553
1899
456
-30
1946
-59
-5051
-5009
-1400
-912
-1426
360
1275
459
519
1034
1010
1321
1802
1787
1733
1780
1609
1439
1365
1215
1182
1168
910
1028
1218
-673
-4010
-4537
-1563
1077
1764
1316
573
1260
2216
-81
-2759
-1287
1202
1812
1139
-2955
-7909
-6135
-1089
-1022
-2191
290
2005
1056
866
1441
1228
1051
1246
1224
1151
1182
1186
1179
1121
1064
1006
807
777
852
424
374
1108
40
-2812
-2885
128
1407
95
-613
199
878
389
121
1172
160
-4745
-7243
-3335
1038
1479
711
394
-48
58
564
472
258
404
475
431
500
613
566
449
773
1204
1052
1481
2332
315
-3249
-2606
857
1449
485
990
1051
561
1336
803
-1943
-2126
616
1513
953
1265
-468
-5245
-7973
-6537
-4451
-2843
-76
1868
567
-1330
-1314
-564
363
1529
1785
1316
1273
1365
1219
1206
1290
1273
1240
1242
1245
1165
1134
1285
1275
1307
1804
1783
1526
2775
2666
-1738
-4111
-130
1549
-4043
-7689
-3879
633
1152
565
829
932
779
884
959
847
786
793
792
806
813
815
858
925
1027
1160
1148
1027
1094
1154
943
890
836
329
394
794
-644
-2300
-1376
-1295
-4663
-6478
-3812
-700
61
-358
-740
-798
-675
-691
-712
-544
-388
-313
-182
-30
54
123
244
353
357
336
396
428
412
498
563
540
674
737
600
865
1070
608
837
1012
-1553
-3802
-1729
950
1377
1531
-353
-4334
-3750
803
1024
-2472
-2564
761
2777
2453
1811
1878
2103
2001
1861
1799
1416
848
701
850
854
750
491
295
680
283
-2871
-6303
-4855
310
1626
-2420
-4457
-1898
140
732
1785
115
-4344
-4482
325
2120
-704
-1869
386
2131
1888
1466
1784
1931
1393
1611
2352
-178
-5100
-5175
-82
2616
1913
2079
2358
2007
3099
2967
-295
-1612
-14
-3
-1258
-2301
-3780
-3521
-1204
-180
134
1475
1974
1358
1365
1590
1386
1321
1333
1163
1101
1130
1058
1035
1103
1118
1154
1298
1374
1405
1524
1381
990
892
525
-218
182
94
-3318
-5524
-2085
357
-3333
-6427
-4038
-138
1218
-1033
-4459
-3851
-346
-274
-2346
-1258
1107
1300
918
1168
1128
1094
1182
917
1193
1525
-224
-2390
-1641
742
2021
1448
-1780
-5819
-5754
-1600
1775
2471
1414
-224
-429
968
1733
1540
1519
1576
1618
1744
1409
828
810
1133
1279
1328
1323
1267
1316
1375
1345
1329
1153
796
677
391
-902
-2452
-2812
-1903
-410
616
-362
-3097
-5334
-5720
-3907
-709
249
-2580
-4556
-2684
-470
-349
-466
41
281
315
502
656
775
928
1042
1180
1376
1543
1660
1702
1843
2384
2858
2494
1747
1355
1004
828
1317
873
-1999
-4938
-4711
-1713
1143
1718
703
230
-116
-1468
-1620
200
759
-137
277
1356
1469
1546
2041
2208
2184
2336
2440
2386
2326
2357
2369
2299
2379
2465
2250
2318
2475
1048
-1165
-1157
606
1186
421
-16
159
-74
-1563
-3641
-4788
-4342
-2430
-468
-892
-2920
-2826
-842
-560
-1890
-2389
-2172
-2104
-2086
-2377
-2445
-1348
-547
-1458
-2293
-1665
-1038
-1208
-978
-162
125
-77
-358
-1445
-2792
-2521
-1191
-549
-86
887
1559
1616
1317
799
729
1145
558
-1363
-2470
-1464
70
609
793
1215
1261
823
463
299
214
143
87
344
915
1224
1191
1311
1483
1415
1552
1712
587
-1170
-862
1101
1782
1690
2123
454
-2997
-2673
1065
2215
1381
2093
1211
-2771
-4181
-1829
-464
-31
1211
816
-693
316
2241
2056
1443
1884
2107
1953
2166
2348
2498
2976
2170
-940
-2974
-1098
1382
1205
837
1452
-541
-4614
-5051
-1418
1271
1378
667
-50
-527
-59
1410
1424
-2114
-5008
-2752
430
182
-592
180
1194
1173
-1086
-3104
-1537
-314
-2139
-1827
1204
1895
1075
1350
1297
1294
1788
-330
-3425
-1987
1475
1782
1480
1939
-658
-3840
-2115
1416
2047
1275
1020
1489
1776
-1296
-6154
-5695
-902
828
258
781
-745
-3598
-1774
1917
463
-2717
-1352
1591
1839
1512
2148
1786
766
808
876
628
1357
911
-2308
-3469
-269
1301
-2243
-6593
-6962
-3259
529
1797
2186
1542
-1064
-1339
1287
635
-1868
-329
2013
1468
1258
1556
188
-274
1316
1945
1371
1377
1535
1394
1379
1309
1371
1570
1184
1270
2199
598
-3284
-3213
1264
3630
2974
3226
3399
1679
1245
2152
-42
-2726
-863
94
-4097
-6031
-3623
-3676
-4209
-521
1040
-2492
-3609
-1425
-1195
-1147
944
1771
1004
1218
1723
1540
1690
1965
1627
1698
2106
288
-3291
-3343
1174
2751
-2434
-6688
-4062
575
2677
2852
632
-2134
-1119
1395
1709
1345
-537
-4328
-3985
841
2852
1637
1670
2340
2052
1929
2155
2062
1932
1963
1949
1855
1808
1912
1907
1726
1962
2082
196
-3214
-4605
-2534
74
637
83
-203
-286
-169
-146
-509
16
1000
-681
-4519
-6581
-6095
-4545
-2383
-174
807
-439
-2460
-2260
-1016
-1574
-1621
562
1621
830
851
1327
1044
1096
1412
991
1180
2065
611
-2051
-973
2066
421
-5154
-7057
-2972
813
383
-146
1310
1779
1828
2272
327
-1774
-809
-729
-1873
-169
712
-1853
-1822
1402
2239
1365
1749
2117
1783
1782
1864
1710
1689
1695
1620
1578
1494
1528
1623
1326
1227
2025
2608
2210
1883
1880
1332
633
774
1133
729
638
1403
843
-790
-986
-2097
-5850
-7072
-4569
-3022
-1885
-577
-3388
-6966
-3644
1776
446
-3777
-3089
719
2366
1989
1841
1908
1730
1643
1611
1451
1383
1412
1369
1353
1355
1275
1230
1161
1037
1178
1249
861
1000
1516
366
-1400
-365
1925
115
-5599
-7801
-2960
1520
-128
-1692
359
-1012
-5838
-4969
1010
2962
-769
-4043
-2711
1117
2833
2036
1662
2092
2045
1857
1944
1879
1727
1723
1735
1730
1670
1563
1608
1615
1462
1568
1579
1175
1557
2173
69
-4462
-7654
-7343
-4607
-2978
-3852
-3251
-235
-645
-5419
-7594
-3637
1911
2621
-1537
-3583
-380
2828
2779
2261
2557
2444
2363
2549
2098
2104
2929
893
-4618
-7114
-3208
1696
2869
2185
2205
2407
2155
2067
2196
1933
1840
2553
2052
-1196
-3981
-2860
685
2622
-115
-5798
-6983
-1606
1462
-2145
-4671
-1477
2178
2626
2152
2341
2401
2228
2269
2313
2212
2181
2210
2238
2302
2261
2173
2211
2047
1812
2044
1821
786
841
963
-2567
-7388
-7391
-3406
-444
999
1674
-879
-6146
-7955
-4173
-1208
-3068
-4483
-966
3444
4168
2839
2192
2011
1725
1632
1669
1594
1528
1520
1368
1190
1286
1245
875
980
1084
353
642
1604
-631
-3408
-1157
1149
-2628
-6958
-6036
-2031
1685
1722
-3598
-7910
-4589
1500
1931
-2342
-4663
-2589
1006
2822
2646
2343
2550
2532
2317
2352
2332
2185
2276
2167
1807
2117
2199
1334
1992
2658
-1854
-6340
-2299
2527
-1620
-6867
-5561
-3208
-2017
600
47
-5545
-7194
-1314
3415
1190
-3432
-4113
-606
2617
3088
2575
2580
2618
2517
2393
2281
2418
2304
2098
2927
2935
129
-1799
30
2011
1712
1327
1780
1744
1211
1484
2063
110
-4729
-7974
-6039
-970
2213
1554
816
2545
2041
-2359
-3162
875
821
-4097
-5187
-965
2516
2922
2446
2412
2381
2218
2215
2068
1867
2117
1953
1411
2258
2021
-3133
-7830
-4826
1245
2783
1603
1313
21
-2596
-2056
1389
526
-5094
-7425
-5863
-5542
-3903
898
1830
-2824
-5099
-1799
2120
3220
2874
2857
3042
3225
3501
3205
2447
2196
2023
1893
2622
1821
-1922
-2813
1827
3199
-2996
-5828
567
3816
-3006
-6750
-671
2271
-2712
-3964
710
3038
2818
1556
-3787
-8055
-4168
385
-2246
-4603
-595
3360
3129
2468
2896
2757
2456
2661
2549
2295
2510
2267
1809
2666
2111
-3267
-8090
-5577
-304
597
-654
-1012
-2887
-4686
-1223
3618
982
-6179
-6643
-316
2098
-2257
-5342
-2647
1696
3377
3191
3272
3267
2490
1982
2202
2228
1993
2058
2066
1869
1889
1718
1425
2000
2113
84
-1333
410
2404
1916
1045
1887
2312
-142
-3331
-3650
-1184
1575
1914
-1440
-5674
-7722
-7878
-5707
-2052
-1949
-4743
-3480
1173
2942
2107
2055
2375
2138
1995
2106
2148
1963
1613
1572
1911
2056
1957
1943
1866
1711
1746
1723
1544
1649
1628
1204
1698
1866
-2448
-8469
-7699
-1765
208
-961
402
2106
1748
502
-3508
-8378
-6560
-733
-937
-4974
-3829
861
2554
1828
1780
2005
1748
1617
1631
1459
1365
1466
1457
1398
1489
1452
1342
1511
1454
1228
1647
1454
544
1772
1998
-3529
-6390
-582
983
-5736
-5446
1303
636
-1875
1265
61
-4863
-2347
785
-2765
-2539
3430
4619
1943
1868
2423
1740
1721
1998
1757
1672
1610
1539
1627
1153
989
1808
-235
-5956
-7292
-1291
2297
-1449
-4749
-3809
-3445
-3575
-1025
-339
-5209
-8223
-3622
1129
-1028
-4026
-1197
3005
3468
2647
2930
3059
2749
2807
2880
2653
2559
2565
2398
2393
2494
2155
2016
2351
1851
1603
2874
1480
-2564
-1161
2741
-1662
-7216
-3216
346
-2415
-1332
1367
-2113
-3272
546
-577
-2953
1091
4148
2471
2586
2842
-1760
-5491
-2571
2202
3383
2694
2772
2845
2521
2787
2988
2549
2818
2076
-3066
-7874
-5455
-796
-1315
-3540
-3370
-2580
-1064
739
-1412
-6665
-7974
-3093
1582
620
-2811
-4045
-3496
-1479
2263
4590
4001
3361
3922
3931
3140
3478
4064
607
-5487
-6317
-1141
2862
3639
3220
1420
47
1404
3128
3163
2373
2066
3250
2783
-1962
-3879
149
384
-4151
-3409
1589
3599
2662
69
-1809
831
2792
-1808
-5465
-1770
2716
2914
2085
2311
2500
2420
2516
2930
3037
2336
2079
1637
-2746
-8467
-6638
781
1595
-3694
-3380
750
-1851
-7155
-5930
-2906
-3499
-2507
-25
-3137
-8445
-6938
-1426
-806
-4209
-4011
568
3670
3471
2951
3076
2885
2612
2597
2512
2274
1998
1969
2159
1911
1693
2099
1710
1139
2413
1772
-2693
-3226
1132
103
-5912
-6600
-1466
2833
2269
-2883
-5876
-3053
-1609
-3621
-1829
2758
3404
1761
2284
3358
1121
-3689
-5260
-1214
2902
3073
2219
2536
2504
1855
1648
1557
1568
2199
2016
941
1698
1963
-2697
-7058
-5606
-3735
-3512
-620
71
-5636
-7525
-1613
577
-3172
-2566
2567
4361
3222
3205
3542
3166
3038
3203
3087
2775
2719
2880
2598
2414
2920
2459
1826
3424
2742
-2394
-2993
1207
-863
-5758
-3674
-234
-519
-159
260
-527
-42
-607
-2325
113
4558
4587
350
-3940
-3816
1272
5157
4456
3118
3205
3278
3185
2762
2493
3300
1764
-2809
-2435
2648
744
-6023
-4874
-30
-1371
-2825
-886
-3766
-8686
-5159
1600
249
-5358
-5155
-484
1907
2409
2648
-408
-4491
-2918
1446
1828
383
637
674
94
179
-181
-594
191
-1152
-6047
-7216
-180
