# session 183
7
27
38
42
54
76
97
110
119
125
139
169
206
249
303
357
403
442
474
506
539
545
502
443
398
356
303
246
192
141
90
42
10
-3
-6
-7
-13
-49
-95
-102
-89
-100
-116
-122
-149
-173
-159
-151
-162
-124
-55
-54
-103
-112
-108
-149
-184
-186
-188
-182
-164
-166
-148
-122
-172
-201
-72
109
296
506
431
-14
-285
-160
-51
-101
-101
-64
-84
-102
-89
-84
-85
-88
-101
-100
-76
-57
-54
-43
-16
25
91
139
131
138
216
282
285
276
270
255
240
184
68
-28
-59
-82
-127
-152
-151
-158
-162
-125
-78
-64
-54
-28
-20
-36
-56
-76
-86
-85
-95
-110
-94
-52
-19
39
147
240
336
540
760
856
996
1259
1266
808
235
-112
-244
-278
-288
-321
-344
-324
-313
-344
-361
-349
-345
-350
-360
-381
-382
-373
-401
-438
-455
-485
-505
-456
-385
-341
-289
-200
-90
7
52
64
89
105
76
42
42
48
33
20
26
33
34
41
46
46
60
87
95
91
105
119
102
80
80
80
68
60
56
48
45
44
35
25
23
18
9
7
3
-5
-8
-5
-2
4
8
-13
-51
-51
-8
2
-28
-5
67
71
16
0
18
16
11
9
3
13
15
-10
4
45
22
15
113
199
280
448
432
61
-241
-197
-95
-114
-124
-97
-88
-74
-53
-49
-45
-31
-21
-19
-13
-5
0
4
16
29
29
31
57
89
105
114
130
150
161
159
157
153
119
57
5
-24
-48
-79
-101
-96
-81
-87
-104
-97
-79
-89
-97
-47
43
166
367
599
775
871
770
486
408
586
450
-81
-394
-320
-234
-248
-258
-272
-296
-297
-301
-320
-332
-339
-344
-337
-328
-325
-317
-303
-279
-245
-220
-212
-194
-144
-84
-65
-86
-95
-88
-86
-64
-35
-59
-84
-40
-10
-33
-33
-57
-95
-43
-70
-157
9
-3
-340
56
365
-1507
-3442
-2047
500
872
364
672
1016
1043
1183
1359
1500
1548
1210
622
233
102
65
68
71
50
31
5
-35
-63
-89
-133
-169
-198
-244
-296
-341
-389
-425
-434
-445
-470
-448
-332
-184
-85
-23
52
141
217
252
247
237
209
131
66
58
38
-4
8
58
60
32
42
74
79
67
66
60
41
34
41
35
26
27
29
36
47
30
7
25
43
8
-29
-23
-16
-35
-51
-48
-41
-35
-27
-27
-39
-36
-14
-19
-54
-58
-26
-8
-23
-51
-54
-23
-27
-58
-29
-25
-57
30
11
-179
39
272
-472
-1158
-466
357
177
-48
138
140
19
50
62
26
36
41
63
132
154
121
102
97
96
109
109
94
93
90
81
86
72
60
122
227
378
602
595
155
-243
-207
-68
-105
-136
-97
-115
-140
-87
-58
-109
-109
-63
-103
-97
-3
-79
-74
169
-41
-229
507
103
-2478
-3271
-723
1008
455
221
638
543
391
512
472
366
369
316
235
218
191
143
129
121
99
92
89
70
59
59
53
60
64
26
-10
-10
-15
-17
-4
-16
-11
37
20
-56
-79
-78
-94
-99
-122
-125
-83
-124
-129
-6
-152
-258
276
-134
-2683
-4166
-1944
847
993
90
80
344
325
337
372
343
365
391
356
348
372
365
345
331
296
257
252
269
280
277
263
257
293
362
412
427
415
420
477
480
388
341
245
38
83
140
-255
-158
318
-1273
-4062
-3727
-730
585
36
21
366
278
237
323
259
229
276
226
157
163
167
139
129
156
189
177
130
103
92
72
72
82
63
59
77
54
37
54
18
11
145
295
474
717
601
30
-305
-163
-63
-145
-140
-80
-101
-134
-125
-119
-135
-137
-112
-98
-105
-92
-72
-68
-26
57
107
129
173
214
227
240
260
266
253
228
192
140
78
17
-31
-59
-73
-82
-85
-86
-91
-92
-81
-81
-91
-83
-71
-74
-85
-95
-102
-98
-108
-134
-118
-78
-78
-79
-37
-1
-13
-72
-109
-61
-49
-101
-56
-55
-155
-23
-15
-348
12
364
-1366
-3155
-1666
927
1248
428
178
75
-21
102
128
54
87
104
65
67
67
37
30
34
27
31
37
30
38
71
95
108
143
190
217
235
268
304
327
331
305
261
217
161
84
26
2
-14
-26
-25
-37
-58
-52
-41
-54
-64
-55
-43
-44
-60
-57
-14
17
14
21
41
29
-6
-33
-51
-51
-39
-36
-28
8
35
22
0
-15
-32
-34
-14
-7
-19
-15
3
1
-5
5
-10
-22
44
133
261
529
645
271
-206
-286
-162
-152
-188
-184
-174
-173
-189
-197
-159
-135
-167
-184
-145
-94
-69
-80
-109
-127
-142
-150
-120
-68
-26
23
86
137
173
202
214
200
166
113
59
19
-10
-36
-59
-74
-76
-79
-87
-76
-50
-28
27
98
157
314
575
742
899
1220
1309
801
112
-261
-366
-369
-326
-320
-339
-297
-237
-233
-256
-299
-348
-312
-229
-266
-370
-349
-272
-301
-351
-306
-241
-210
-151
-61
3
57
124
164
174
192
209
193
158
133
115
91
53
13
-1
2
-13
-33
-30
-20
-12
11
42
53
47
50
64
67
47
36
52
58
34
16
23
27
8
-9
2
15
-13
-55
-46
1
13
-21
-33
7
5
-53
-33
1
-38
69
125
-167
-42
431
-471
-2041
-1562
121
387
-109
30
188
51
83
156
134
195
239
171
138
149
132
126
128
101
78
68
42
37
38
-5
8
134
261
435
642
487
-33
-304
-186
-103
-119
-84
-86
-140
-127
-105
-139
-144
-111
-127
-160
-143
-110
-106
-116
-106
-69
-31
4
67
142
205
285
364
400
409
408
370
301
242
197
139
65
16
8
8
-5
-10
-2
2
2
0
-13
-16
-7
-24
-54
-45
-32
-68
-106
-101
-84
-82
-94
-99
-65
-15
-26
-91
-127
-113
-107
-139
-167
-143
-101
-113
-159
-159
-132
-153
-145
-30
99
280
571
543
-21
-463
-375
-219
-238
-249
-307
-404
-332
-198
-202
-233
-206
-195
-191
-162
-150
-150
-126
-96
-69
-18
61
148
233
300
343
372
384
372
341
304
252
172
81
27
24
30
28
38
38
-1
-26
-7
-8
-50
-57
-23
11
70
158
252
411
608
739
911
1132
1006
435
-67
-213
-255
-307
-259
-181
-186
-215
-222
-242
-269
-285
-305
-324
-333
-343
-361
-388
-425
-456
-461
-444
-401
-322
-219
-106
17
125
201
260
288
263
217
179
133
94
87
85
75
77
78
54
39
49
52
39
28
37
62
61
21
3
20
14
-4
19
55
44
3
-13
1
3
-17
-24
-10
6
9
-2
-22
-35
-39
-47
-54
-47
-38
-41
-46
-43
-38
-40
-51
-74
-99
-100
-80
-78
-101
-83
-21
3
-25
-47
-59
-70
-65
-63
-62
-37
-41
-76
-53
-27
-65
-21
128
233
394
596
418
-123
-378
-193
-97
-214
-184
-114
-237
-168
-5
-296
-227
381
-628
-2785
-2419
9
807
183
234
497
325
301
413
365
362
424
416
427
479
483
465
449
402
342
296
251
206
166
119
87
89
86
56
38
40
29
14
20
22
3
10
81
212
401
621
804
914
902
727
591
671
629
170
-291
-359
-277
-287
-301
-294
-320
-324
-291
-289
-326
-364
-394
-429
-467
-492
-497
-479
-432
-362
-291
-237
-204
-183
-164
-142
-115
-88
-71
-60
-49
-58
-89
-106
-108
-123
-144
-149
-141
-123
-104
-120
-164
-160
-108
-93
-116
-108
-83
-71
-45
-15
-17
-20
8
24
12
7
-3
-41
-56
-21
-8
-48
-67
-36
-25
-53
-53
-18
-12
-20
23
84
91
67
81
138
195
211
180
137
120
124
125
117
115
118
97
63
65
60
16
59
198
319
542
809
609
-6
-296
-154
-79
-131
-127
-138
-186
-181
-159
-167
-165
-159
-170
-165
-141
-154
-179
-139
-55
-20
-26
5
68
115
153
189
204
217
244
240
188
134
92
44
7
8
27
39
47
47
24
-1
-8
-13
-18
-11
1
45
128
198
319
558
766
951
1304
1496
1039
281
-132
-233
-303
-337
-335
-368
-374
-322
-321
-383
-398
-356
-354
-405
-430
-418
-418
-427
-420
-421
-422
-374
-293
-225
-140
-19
91
155
176
181
181
151
82
26
8
-5
-21
-24
-28
-36
-29
-15
-15
-16
-7
-5
-17
-23
-28
-47
-62
-49
-38
-55
-66
-53
-47
-55
-62
-64
-58
-65
-85
-74
-74
-75
18
15
-123
8
79
-252
42
492
-1094
-3092
-2035
296
586
6
203
345
186
257
296
184
200
243
193
173
183
162
142
122
99
96
72
51
121
232
377
651
778
395
-115
-183
7
51
8
13
7
-25
-41
-33
-14
-27
-70
-75
-47
-42
-42
-18
10
23
38
78
137
197
259
309
310
280
277
294
290
267
236
186
120
70
43
34
37
24
-8
-11
7
28
100
201
291
497
803
990
1132
1336
1222
603
-31
-316
-369
-340
-303
-317
-344
-362
-412
-461
-451
-422
-431
-459
-460
-455
-485
-491
-453
-532
-715
-709
-500
-379
-358
-266
-143
-73
-10
49
59
30
-1
-24
-51
-88
-111
-101
-88
-95
-99
-82
-68
-72
-69
-39
-14
-22
-35
-30
-33
-49
-42
-18
-18
-27
-11
-9
-41
-48
-22
-22
-44
-45
-28
-18
-17
-24
-44
-55
-34
-9
-13
-19
-8
-7
-17
-20
-27
-33
-7
32
36
11
38
150
259
271
220
175
142
123
119
111
110
122
117
122
152
135
118
228
375
520
754
768
278
-203
-198
-51
-71
-96
-80
-117
-143
-120
-114
-128
-131
-124
-120
-130
-136
-110
-86
-91
-88
-56
-20
3
23
59
102
135
164
187
188
181
167
119
48
-9
-56
-104
-136
-148
-155
-158
-155
-155
-161
-146
-106
-69
-16
76
171
320
585
820
984
1265
1453
1085
376
-71
-201
-277
-331
-339
-357
-371
-355
-355
-377
-384
-384
-396
-404
-405
-413
-422
-435
-457
-454
-423
-413
-393
-311
-209
-129
-38
56
108
119
111
89
69
69
76
77
76
78
78
78
78
73
60
49
48
54
58
51
44
45
45
40
40
45
45
45
42
33
26
24
12
-1
-4
-10
-30
-42
-29
-7
-10
-44
-65
-43
-18
-29
-62
-86
-80
-50
-40
-54
-30
30
49
10
-34
-54
-45
-13
-11
-59
-81
-54
-48
-58
-48
-64
-67
35
194
374
518
363
-76
-311
-189
-68
-79
-77
-59
-72
-79
-79
-94
-108
-113
-117
-114
-106
-100
-92
-79
-62
-35
0
32
60
91
125
156
183
207
240
272
261
221
200
181
130
73
38
15
-7
-30
-41
-30
-8
43
135
216
336
588
827
943
1102
1200
871
275
-100
-184
-170
-175
-192
-137
-159
-452
-653
-440
-239
-340
-429
-384
-381
-409
-405
-409
-407
-370
-330
-299
-251
-182
-106
-35
32
89
128
148
137
88
40
19
8
8
19
12
-3
-5
-14
-25
-23
-25
-25
1
29
39
52
56
27
17
68
117
99
50
30
32
24
-6
-43
-72
-92
-114
-127
-122
-107
-89
-75
-68
-55
-39
-38
-49
-51
-46
-41
-35
-46
-77
-91
-81
-88
-116
-121
-79
-22
-8
-41
-68
-71
-89
-113
-108
-96
-100
-93
-60
-47
-98
-110
26
194
331
522
512
51
-369
-304
-128
-166
-206
-159
-149
-154
-127
-102
-77
-34
-2
8
11
10
3
4
15
34
62
103
156
213
269
327
380
410
418
421
408
378
353
317
240
164
128
92
40
13
10
0
-16
-14
11
38
60
120
230
377
599
861
1094
1364
1529
1151
329
-218
-273
-267
-366
-409
-410
-452
-483
-485
-501
-521
-520
-508
-499
-497
-495
-491
-496
-505
-504
-489
-452
-388
-307
-206
-79
29
89
126
146
119
67
26
9
4
-30
-68
-39
-12
-68
-94
-53
-73
-98
-26
-15
-104
-96
-57
-95
-43
-4
-113
-24
69
-215
4
541
-586
-2302
-1527
431
637
78
266
379
141
147
218
142
123
145
129
130
121
88
93
126
124
96
111
170
193
161
130
115
101
89
63
62
110
93
17
39
86
72
125
155
197
564
751
405
381
63
-1886
-3158
-1469
446
279
-140
189
248
89
177
217
165
198
206
173
186
200
192
190
187
201
241
262
271
320
375
374
355
360
357
342
320
258
180
148
141
91
1
-36
14
27
26
165
231
214
561
838
684
1174
1598
-309
-2558
-1688
247
221
-312
-14
79
-147
-114
-93
-195
-189
-176
-233
-252
-263
-310
-337
-341
-367
-400
-405
-372
-310
-234
-152
-71
29
132
169
161
185
160
65
70
80
-23
63
146
-146
17
426
-1167
-3806
-3401
-478
777
204
147
447
313
248
358
301
233
262
244
205
205
193
167
149
129
114
108
101
95
91
83
79
75
59
55
80
95
98
123
131
91
69
94
97
54
11
8
49
92
86
58
50
35
7
3
24
50
73
78
93
143
145
114
187
309
433
685
800
382
-154
-213
-47
-53
-102
-76
-70
-82
-75
-68
-58
-50
-53
-48
-36
-36
-35
-25
-20
-13
0
9
33
83
113
109
123
169
200
202
190
177
176
175
139
78
21
-45
-76
-44
-70
-199
-260
-209
-191
-230
-236
-212
-195
-189
-186
-175
-166
-166
-154
-147
-168
-167
-124
-100
-122
-151
-172
-183
-173
-155
-141
-127
-105
-88
-70
-37
-31
-51
-1
104
186
300
354
105
-242
-266
-103
-80
-108
-64
-57
-94
-79
-35
-13
-5
-16
-31
-9
19
11
4
35
63
65
78
122
170
205
238
279
325
364
382
378
360
321
261
204
164
129
93
63
