# session 225
185
6112
5788
3626
4075
4106
3021
4395
6892
6947
6043
6281
6575
6394
6377
6390
6318
6350
6378
6437
6446
5937
5134
4776
4762
4609
4404
4278
4091
3896
3788
3644
3459
3310
3140
3039
2993
2701
2517
2710
2360
1981
2816
2323
-421
-175
2432
-375
-6096
-6120
-3469
-3715
-3012
282
1569
709
680
974
695
633
758
634
535
542
487
430
389
288
160
76
40
10
-24
-35
-38
18
232
459
551
730
936
638
92
19
-229
-1139
-1104
-448
-2857
-7596
-9116
-7860
-8325
-8175
-4651
-2494
-3501
-3634
-3025
-3107
-1733
235
27
-769
-455
-239
-337
-79
171
240
381
452
395
397
452
468
485
499
490
583
643
416
399
727
488
328
1134
195
-3374
-4533
-1664
419
340
723
1269
871
782
1168
805
553
1272
730
-1965
-3791
-3188
-1646
-104
926
896
624
827
994
962
1008
1034
999
1016
1040
1050
1088
1133
1168
1200
1212
1232
1310
1390
1401
1443
1559
1572
1549
1631
1448
1133
1379
903
-2138
-5556
-5967
-4378
-2762
-558
1331
1484
1921
1876
-2883
-7496
-3868
1230
-801
-2404
1089
966
-2854
-1678
2209
2417
1278
1736
2025
1125
-9
-390
296
1209
1482
1352
1201
1090
1118
1022
766
1165
1367
-1482
-6179
-6576
-1717
1220
-1010
-2909
-997
1468
1933
1606
1577
1618
1611
1599
1516
1418
1410
1456
1455
1405
1376
1382
1385
1368
1312
1258
1258
1202
1095
1103
1030
849
978
994
646
1070
1393
-349
-1496
226
688
-1882
-3490
-3341
-2864
-1043
1024
1099
662
963
1276
1984
1963
-1685
-6919
-7510
-2693
1045
189
-962
718
1953
925
831
1824
-644
-5676
-5952
-981
958
-2561
-4689
-2007
1308
2050
1633
1664
1824
1727
1618
1587
1505
1387
1354
1348
1231
1155
1182
1066
1032
1182
898
735
1346
533
-2159
-2525
58
1393
1381
1403
-1507
-6528
-7082
-3103
-1437
-3535
-4416
-1892
981
1651
1237
1185
1271
1504
1333
-478
-2106
-1004
902
1304
1122
711
408
1211
501
-2645
-2780
40
-711
-3093
-1502
865
715
787
1578
1358
1018
1217
1186
1086
1190
1162
1110
1198
1209
1149
1156
1158
1122
1099
1089
1053
1010
1064
1098
930
914
1149
1012
852
1328
1004
-1693
-5746
-8134
-6230
-2165
-1056
-2210
-2039
-2054
-2788
-1077
1913
2706
1856
1487
1960
1206
-1920
-3065
605
3092
336
-1931
43
1986
1685
1425
1385
1150
1667
1259
-1489
-3577
-3095
-1641
-43
1328
1401
839
1147
1561
1008
1127
2177
565
-3149
-3034
647
2052
1050
931
1292
1042
898
1077
1066
819
941
1251
673
424
1540
425
-3185
-3320
-932
-1858
-3421
-2633
-3474
-4825
-2003
1631
1978
1508
1673
1193
652
773
1039
1101
728
755
1561
482
-2472
-2518
400
1645
1027
668
690
1276
940
-1919
-3293
-290
2100
366
-2419
-3897
-3834
-1638
980
1416
705
709
856
681
687
751
692
715
761
808
918
898
901
1239
1591
1778
2170
2459
1962
1044
440
137
10
77
38
-92
-4
-50
-233
-4
-136
-724
-37
-57
-4126
-7603
-5089
-1644
-2718
-4613
-3439
-832
878
1089
429
25
23
-31
-50
54
104
123
174
223
303
419
528
623
665
676
748
782
692
651
693
655
614
664
622
492
510
613
593
501
491
579
594
487
523
560
269
320
749
-64
-1588
-1195
322
330
-324
-35
341
339
478
358
-134
-232
14
60
45
149
195
173
197
231
226
218
261
328
337
325
354
386
478
598
560
607
825
622
399
829
704
201
1077
258
-4893
-7809
-4522
-1993
-3223
-3217
-1590
-1079
-688
55
34
-25
429
655
729
1024
1310
1517
1675
1772
1993
2172
1816
1096
622
469
373
301
304
321
300
241
175
152
181
184
102
26
14
-31
-156
-274
-278
-190
-409
-1185
-1812
-1664
-1160
-585
122
442
190
28
121
119
91
166
210
204
215
224
257
326
345
305
293
313
340
392
421
392
427
566
654
656
614
520
530
611
479
479
710
332
21
864
700
-1575
-2845
-2334
-1973
-955
694
457
-870
-950
-554
-593
-435
-131
31
288
522
549
570
626
621
610
628
668
687
670
763
855
738
799
989
690
696
1275
-99
-3851
-6440
-6320
-4736
-2333
96
1492
1362
-113
-722
170
-955
-3412
-2282
414
182
-402
849
1294
688
804
1034
801
814
992
926
860
981
1118
1165
1224
1265
1043
685
615
762
813
803
797
779
794
765
733
796
705
642
931
725
274
1140
786
-3846
-7153
-3485
1016
-217
-3190
-3344
-2040
-723
331
419
94
258
460
434
559
762
849
935
1103
1275
1321
1351
1625
1959
2142
2451
2813
2837
2441
1410
462
940
731
-2801
-5470
-2835
585
248
-462
258
-1565
-5567
-5662
-1349
887
-1032
-2686
-2478
-2292
-1540
419
1447
1034
897
1165
1130
1090
1197
1189
1165
1216
1221
1193
1195
1200
1190
1174
1154
1123
1110
1135
1148
1162
1166
1045
1006
1150
934
671
1203
1096
-1524
-5301
-7350
-5914
-1894
507
-1000
-3227
-3124
-1030
1200
933
-1572
-2054
242
1686
1434
1229
1887
2894
2088
-607
-1183
1012
2017
1337
1252
1523
1375
1231
1226
1317
1208
892
1339
1496
-1197
-5143
-6582
-5393
-3340
-2443
-4664
-6787
-3885
40
-680
-1362
1766
2565
-572
-1010
1338
1663
1341
1858
295
-1810
-448
1853
1695
1077
1505
1672
1477
1572
1650
1611
1731
1924
2058
2196
2440
2816
3005
2515
1538
930
838
657
532
718
491
229
837
301
-2231
-2587
-256
-1073
-4896
-5486
-3168
-2271
-2293
-1628
-810
-531
-1683
-3122
-2190
-400
-294
-146
963
1235
882
1014
1098
962
1038
1051
904
936
1008
918
871
896
880
929
936
803
881
1000
866
1076
1187
469
784
1639
-1059
-4891
-3836
-980
-1551
-3019
-2940
-2241
-577
1254
1452
1121
1217
864
478
718
859
727
779
833
752
769
837
816
805
842
829
802
872
954
949
1002
1130
1129
1154
1339
1283
1163
1396
1139
600
1317
830
-3796
-7295
-4746
-1631
-2021
-1802
-788
-2029
-2249
-335
-1924
-5732
-4606
-311
950
153
475
1177
1355
1508
1572
1460
1474
1476
1329
1353
1587
1684
1749
2037
1893
958
685
1465
508
-3343
-6553
-6154
-3278
-190
1649
1589
986
1326
983
-1229
-2652
-2113
-2057
-2868
-2504
-769
959
1725
1580
1387
1496
1483
1325
1271
1234
1162
1140
1132
1108
1086
1057
1058
1069
1000
958
1024
1042
1047
1095
932
815
994
762
527
1236
310
-4000
-6985
-6219
-6153
-6502
-3034
81
-1649
-2779
-329
1236
1041
598
-945
-1777
105
1704
1295
1063
1429
1329
1166
1242
1192
1150
1223
1209
1164
1181
1171
1124
1104
1124
1143
1111
1058
980
807
681
727
652
462
543
512
136
298
472
-851
-2081
-1035
428
322
-18
261
298
130
201
248
227
315
362
353
389
371
383
546
671
823
1103
1006
437
79
116
261
326
70
-16
507
-190
-3557
-7021
-7299
-4557
-927
1392
587
-2274
-3181
-1033
767
627
441
839
870
718
851
959
904
838
784
797
845
784
705
716
716
721
754
697
679
750
670
747
1002
606
387
1228
10
-4536
-6719
-3352
817
1700
200
-1411
-2032
-2274
-2191
-614
1115
851
65
397
755
635
645
628
517
641
770
700
697
792
803
775
781
790
795
820
901
967
889
909
1097
902
702
1278
648
-3301
-7132
-5776
-822
1695
90
-1984
-1892
-294
997
-84
-3037
-3527
-530
1474
1088
1086
1914
2448
2841
2911
2185
1238
685
457
374
352
348
310
235
199
119
20
80
-32
-324
-31
106
-1208
-2360
-1596
-275
284
170
-675
-1845
-2577
-2276
-1054
-949
-2325
-1955
246
858
178
351
671
468
502
671
578
525
598
602
599
641
640
589
557
581
620
619
608
644
671
637
614
629
603
537
497
469
449
479
518
493
396
293
338
468
437
473
568
-185
-1218
-569
390
-1242
-3162
-1783
554
729
244
492
525
323
474
590
487
481
541
550
529
514
631
694
499
663
1074
-485
-4617
-6956
-3652
1088
297
-3682
-2934
1351
1434
-2109
-2586
-204
397
-232
504
1542
1639
1728
2173
2454
2409
1949
1234
783
654
553
494
549
612
611
545
463
461
478
400
319
235
41
-52
-7
-111
-54
242
83
237
1237
114
-3773
-5722
-5125
-5709
-5900
-3581
-1902
-1107
478
171
-1104
1016
3244
1771
757
1584
926
699
2554
1891
-1247
-1160
1206
1332
497
784
849
496
661
735
482
621
837
719
905
1184
882
1078
1529
-993
-5530
-5811
-1200
1839
1293
974
1537
723
-1088
-2457
-2882
-1792
-148
663
1366
968
-2060
-3574
-671
1813
1162
640
1126
1016
777
929
915
825
825
795
851
823
731
916
823
477
957
929
-1087
-2108
-307
1058
713
606
387
-627
-793
397
1147
16
-1865
-1884
-241
404
-157
-366
-134
-55
-307
-342
256
-174
-2165
-2389
104
1789
1616
1334
957
319
298
583
483
379
469
460
393
364
325
305
293
292
312
242
257
437
314
188
535
352
0
968
654
-2818
-4698
-3221
-2905
-3368
-1323
630
187
-193
300
366
326
581
645
608
715
866
1115
1398
1566
1873
2266
2126
1410
687
226
134
238
58
-29
291
-206
-1530
-1607
-425
171
-76
-531
-434
242
-1030
-4368
-4835
-1842
-537
-1418
-1644
-1671
-1532
-82
938
411
121
459
435
321
453
540
656
841
880
843
849
817
748
726
772
803
736
672
682
601
516
594
528
409
672
610
224
976
976
-2811
-6054
-3073
1575
705
-3183
-3748
-1129
649
617
443
698
941
1124
1079
640
344
489
621
543
487
490
473
462
451
431
446
476
467
435
429
448
460
470
516
555
561
614
621
540
638
663
302
459
917
-610
-3068
-2135
910
304
-2961
-3243
-1457
-1533
-1779
-179
760
143
98
503
77
-14
720
-28
-2124
-2082
91
1063
641
666
1006
1068
1146
1340
1462
1258
672
246
288
384
335
315
327
292
206
163
237
186
39
190
183
-433
-868
-1384
-2997
-3883
-2229
-320
-169
-396
-77
146
252
412
383
262
264
294
271
238
230
259
296
314
326
327
335
400
468
454
427
430
390
404
488
453
541
812
655
568
1311
1175
-860
-2248
-1600
-636
-216
-20
-199
-484
-441
-344
-326
-229
-176
-238
-271
-239
-160
-41
31
15
-21
-38
-31
18
91
153
220
316
394
415
455
531
496
397
417
408
349
467
415
234
651
791
240
1212
2265
-711
-4030
-2585
-897
-2281
-2269
-329
-34
-525
-189
-119
-356
-214
-101
-51
207
323
185
95
54
-15
-42
-24
44
194
332
414
532
672
714
645
580
592
590
546
587
584
423
452
577
353
334
667
291
-256
-148
-1059
-2665
-1779
587
896
-5
-32
38
-293
-300
-153
-215
-211
-109
-59
31
114
101
187
297
153
220
574
-710
-4449
-6940
-4668
-358
1383
1027
1177
1492
1006
552
658
777
715
694
716
666
660
751
655
532
764
673
243
770
995
-1046
-2428
-564
1197
671
264
711
662
436
553
500
321
341
343
270
286
229
21
-34
163
321
309
288
320
345
393
423
334
299
372
253
147
452
812
909
346
-1527
-3032
-1726
594
1043
692
818
447
-182
-52
204
42
-13
66
30
75
82
-35
119
155
-150
346
460
-2680
-6062
-4379
-500
516
476
612
-1501
-3546
-1750
1033
1283
525
593
866
517
-134
-338
-151
401
1094
-460
-4353
-5216
-1452
1332
920
518
903
779
570
692
677
581
609
622
590
582
639
727
785
966
1204
1040
545
208
156
326
318
-25
229
583
-1024
-3029
-2027
310
634
10
167
313
110
142
242
213
269
351
343
360
410
387
308
237
175
108
58
44
50
41
15
10
39
55
42
50
100
146
153
130
102
82
69
64
59
59
109
201
243
292
451
604
758
1084
1205
650
-89
-303
-204
-226
-281
-248
-234
-257
-252
-244
-263
-293
-323
-353
-371
-388
-419
-435
-417
-390
-355
-295
-228
-141
-7
84
52
19
78
120
106
108
105
97
115
97
123
245
220
228
548
577
581
1523
1143
-2752
-5725
-3403
282
778
-32
95
245
49
78
117
4
-3
36
-12
-53
-64
-99
-134
-149
-158
-134
-52
62
184
307
404
460
481
461
419
407
412
381
335
323
327
313
289
275
274
267
246
224
213
205
193
179
156
128
125
145
152
134
130
166
200
153
84
103
93
11
63
82
-76
46
166
-239
15
732
-700
-2848
-1742
613
521
-150
-125
-2001
-5150
-5496
-2601
57
625
371
407
435
440
480
230
351
1263
1483
541
80
413
457
333
510
512
185
61
207
250
141
48
4
-14
-4
18
60
112
128
142
240
393
568
826
1104
1279
1525
1957
2083
1446
466
-135
-279
-311
-365
-397
-422
-472
-522
-553
-581
-624
-678
-717
-748
-793
-821
-798
-753
-682
-540
-358
-202
-68
49
116
133
134
117
90
98
130
155
223
348
467
618
836
1049
1324
1700
1790
1288
550
55
-174
-257
-229
-228
-285
-215
-120
-195
-189
-162
-452
-433
-76
-924
-2404
-1992
-420
-95
-366
-72
124
202
410
221
348
863
-1140
-5468
-6146
-1568
1378
-799
-2731
-898
1249
1247
840
1022
1048
910
938
950
898
891
879
857
860
848
816
797
774
744
728
718
704
687
672
665
645
592
552
562
558
505
496
567
605
565
532
512
462
443
481
498
488
477
445
448
535
650
801
913
691
216
25
203
302
217
219
266
125
-162
-896
-2702
-4758
-5351
-4827
-4646
-4260
-2666
-1004
-796
-1991
-3258
-2763
-361
1556
1669
1356
1467
1428
1233
1216
1158
996
955
942
847
809
784
649
590
678
670
614
725
801
653
512
504
495
461
435
403
403
409
339
290
342
433
637
862
640
66
-141
25
7
-103
-82
-179
-236
-69
-216
-342
264
-234
-3401
-6305
-6306
-5525
-5457
-4021
-932
1090
1217
1018
1130
1141
1061
1018
924
831
809
779
731
708
702
713
739
738
719
721
740
779
831
815
753
743
715
664
741
697
250
55
692
