# session 3
-100
-111
-144
-138
-96
-80
-63
-24
-33
-84
-91
-72
-78
-73
-58
-73
-75
-30
6
5
3
8
9
16
45
89
126
145
168
212
253
265
254
232
224
258
304
325
355
404
435
464
482
466
524
681
799
953
1189
1107
609
289
385
466
353
248
163
6
-153
-247
-339
-469
-573
-626
-688
-725
-602
-328
-73
94
231
364
478
559
596
611
633
632
580
518
487
493
526
536
481
381
275
155
10
-127
-226
-301
-371
-419
-436
-443
-445
-435
-436
-463
-496
-512
-492
-444
-426
-444
-435
-392
-377
-390
-384
-351
-302
-245
-201
-174
-142
-112
-88
-60
-49
-5
150
332
477
613
540
113
-259
-237
-129
-198
-256
-206
-190
-234
-247
-233
-242
-267
-264
-235
-207
-197
-213
-261
-312
-347
-388
-437
-467
-479
-502
-536
-565
-586
-612
-643
-659
-670
-698
-737
-774
-810
-848
-885
-911
-929
-935
-919
-940
-1010
-966
-771
-566
-191
423
721
511
414
624
742
762
898
1038
1081
1115
1154
1163
1180
1227
1254
1228
1139
1000
864
751
640
592
676
780
847
948
864
381
-96
-144
2
36
27
49
58
66
85
91
98
124
144
155
184
216
225
230
245
246
238
250
275
294
313
340
361
371
382
405
426
426
408
382
343
280
201
119
45
-7
-40
-66
-87
-98
-106
-116
-134
-169
-212
-251
-281
-288
-283
-301
-326
-315
-300
-334
-390
-429
-453
-471
-504
-578
-673
-765
-847
-873
-843
-797
-666
-449
-306
-181
12
-69
-528
-788
-618
-457
-479
-500
-507
-553
-583
-587
-565
-499
-440
-406
-315
-167
-45
32
100
173
252
336
406
440
458
489
523
551
578
614
670
733
773
786
796
797
773
729
678
621
569
526
484
453
431
395
354
330
315
303
292
282
295
269
134
68
183
140
-248
-636
-860
-1132
-1408
-1453
-1378
-1438
-1530
-1378
-1075
-911
-770
-433
-94
177
576
778
377
-194
-439
-494
-486
-389
-348
-372
-285
-142
-82
-50
10
52
66
103
159
190
198
217
241
252
269
295
311
323
346
380
412
430
441
456
468
470
467
448
401
335
263
201
150
98
58
44
25
-9
-18
-12
-30
-51
-52
-59
-78
-89
-86
-68
-49
-55
-84
-124
-164
-189
-202
-218
-225
-233
-259
-243
-211
-263
-260
-79
60
152
378
361
-170
-568
-430
-259
-313
-335
-295
-300
-322
-362
-333
-67
329
631
858
1049
1143
1219
1315
1254
980
686
481
337
252
247
337
472
492
352
228
193
146
77
48
20
-42
-113
-190
-276
-344
-376
-352
-264
-167
-93
-19
54
99
134
154
104
-11
-111
-140
-114
-91
-109
-164
-226
-278
-323
-367
-388
-378
-385
-401
-369
-367
-412
-323
-140
-41
163
439
216
-416
-651
-440
-351
-417
-399
-356
-349
-322
-289
-264
-234
-213
-185
-138
-127
-162
-180
-159
-140
-143
-155
-168
-176
-168
-146
-123
-108
-90
-59
-28
-11
0
15
15
-19
-67
-104
-135
-175
-217
-242
-238
-217
-194
-161
-109
-78
-95
-111
-82
-41
-22
-11
7
34
75
99
79
43
24
18
23
46
69
70
74
116
150
111
120
279
432
573
869
978
516
-4
-16
165
160
119
146
152
151
171
173
160
163
183
199
184
158
167
175
141
130
178
219
223
238
281
320
337
355
409
471
500
532
587
607
588
591
592
537
464
419
362
262
155
66
-5
-30
7
62
80
71
68
72
71
68
67
76
107
136
130
106
91
85
89
87
67
65
84
73
62
70
30
16
120
211
320
587
616
86
-423
-428
-312
-392
-468
-458
-476
-521
-555
-587
-606
-613
-644
-703
-751
-771
-796
-854
-907
-927
-973
-1082
-1170
-1165
-1116
-1076
-1037
-1004
-989
-979
-974
-983
-1016
-1048
-1034
-991
-1000
-1058
-1072
-1024
-989
-1006
-1022
-976
-900
-833
-715
-511
-306
-152
-4
150
289
425
550
647
749
869
958
996
1022
1063
1114
1153
1180
1212
1229
1226
1241
1245
1220
1251
1341
1420
1529
1549
1234
802
707
858
892
824
801
781
714
639
564
491
456
457
444
395
336
280
223
172
139
117
93
60
28
12
21
54
93
101
72
45
46
66
85
84
49
-3
-70
-162
-251
-292
-297
-301
-301
-303
-327
-359
-373
-389
-426
-465
-477
-464
-454
-450
-419
-379
-376
-386
-374
-364
-357
-335
-320
-302
-256
-233
-234
-195
-177
-221
-182
-39
104
308
469
232
-235
-373
-208
-140
-182
-182
-182
-205
-198
-188
-229
-280
-288
-270
-262
-263
-261
-270
-286
-273
-235
-201
-158
-95
-60
-65
-42
38
115
167
236
327
388
411
426
410
339
268
241
216
167
127
116
111
111
118
110
65
3
-45
-63
-65
-68
-78
-79
-54
-7
21
-5
-74
-130
-132
-104
-85
-77
-90
-126
-132
-123
-157
-123
22
122
262
532
472
-107
-521
-412
-263
-310
-321
-273
-288
-307
-280
-264
-271
-260
-231
-206
-186
-167
-161
-164
-154
-128
-111
-104
-81
-50
-21
23
79
127
172
214
245
283
328
344
318
270
210
153
116
90
53
11
-12
-15
-15
-18
-14
-1
6
2
6
29
53
63
87
146
201
216
202
180
168
173
181
189
195
181
191
230
197
159
291
459
577
880
1103
677
7
-123
68
76
26
78
112
118
132
111
86
90
78
49
37
12
-33
-50
-51
-78
-106
-105
-107
-128
-133
-115
-97
-81
-59
-36
-14
10
26
26
1
-45
-94
-143
-205
-265
-299
-311
-312
-306
-289
-267
-248
-247
-263
-278
-276
-261
-253
-258
-244
-188
-129
-107
-122
-141
-129
-99
-96
-95
-55
-30
-35
-4
29
50
178
335
414
587
702
310
-277
-402
-237
-225
-278
-270
-271
-273
-264
-274
-269
-245
-230
-189
-128
-97
-92
-102
-119
-86
-23
-23
-50
-33
-31
-61
-38
29
58
64
95
137
162
143
69
-15
-70
-128
-197
-230
-226
-222
-208
-188
-194
-201
-177
-157
-161
-162
-137
-78
-19
-21
-37
47
186
259
295
366
440
448
409
405
431
386
313
321
299
205
260
447
617
881
1082
792
278
127
233
257
241
228
171
147
183
189
164
153
134
107
105
119
126
121
110
81
30
-13
-25
-37
-73
-107
-134
-171
-187
-167
-157
-173
-182
-195
-236
-283
-324
-373
-421
-444
-444
-449
-466
-473
-463
-454
-451
-450
-459
-457
-416
-356
-313
-288
-260
-213
-159
-126
-109
-85
-61
-60
-62
-36
-6
0
14
25
16
82
228
337
452
568
409
42
-67
99
169
109
78
64
49
79
132
182
230
262
282
315
359
411
467
491
473
452
450
464
487
509
526
539
543
535
515
473
405
320
222
119
13
-132
-303
-427
-485
-521
-545
-554
-564
-572
-572
-563
-539
-508
-499
-508
-500
-478
-473
-472
-448
-429
-448
-478
-493
-501
-508
-511
-493
-462
-446
-421
-371
-370
-396
-304
-131
37
261
368
94
-250
-216
-1
47
16
69
168
249
276
243
213
241
304
347
342
312
291
287
304
344
376
359
319
309
314
300
285
274
236
181
150
144
147
171
205
204
174
155
159
161
147
109
64
46
66
88
79
65
74
99
119
117
91
87
117
119
76
44
41
43
45
45
47
54
52
60
87
85
90
182
299
394
443
265
-112
-288
-165
-70
-108
-130
-121
-132
-148
-165
-178
-180
-194
-222
-233
-227
-227
-234
-241
-245
-246
-250
-247
-216
-174
-157
-163
-168
-162
-135
-104
-109
-131
-115
-93
-130
-195
-227
-241
-271
-298
-314
-338
-366
-361
-300
-210
-145
-117
-80
5
117
223
311
348
312
257
247
261
252
221
179
129
78
33
32
65
36
3
127
308
458
719
852
467
-15
-20
160
146
126
191
196
185
223
207
119
53
27
-1
-27
-42
-59
-86
-107
-109
-103
-113
-125
-115
-102
-110
-112
-101
-105
-115
-102
-76
-52
-38
-63
-119
-175
-223
-222
-121
3
36
6
-7
-12
-37
-61
-64
-66
-84
-102
-82
-21
30
30
-5
-41
-60
-70
-86
-103
-101
-98
-100
-71
-61
-125
-97
95
245
395
685
693
172
-244
-160
-9
-50
-88
-85
-114
-130
-126
-151
-178
-183
-186
-180
-163
-166
-178
-169
-160
-162
-146
-119
-100
-69
-25
4
19
35
58
88
112
114
114
123
111
68
32
31
56
70
57
39
38
37
18
-8
-24
-24
-9
9
17
31
77
126
125
80
32
3
12
40
36
16
14
18
29
20
-7
69
231
343
545
830
694
123
-180
-51
40
-5
-8
-1
-25
-31
-37
-66
-92
-112
-124
-124
-138
-165
-174
-171
-162
-140
-130
-134
-113
-74
-52
-31
2
29
46
66
88
97
87
67
31
-28
-84
-100
-87
-77
-58
-17
15
-4
-56
-84
-73
-46
-18
-6
-20
-22
14
43
26
-10
-40
-65
-81
-93
-97
-87
-86
-82
-50
-44
-46
63
211
298
420
453
145
-201
-176
-9
-2
-34
-7
0
-8
-3
-18
-41
-44
-37
-21
11
39
38
0
-51
-63
-36
-32
-54
-53
-27
0
38
87
119
126
122
114
98
75
47
5
-42
-75
-107
-149
-167
-153
-150
-171
-190
-188
-172
-143
-105
-72
-48
-15
41
89
99
79
51
30
22
20
22
30
23
13
27
17
-10
53
176
281
430
495
227
-119
-125
45
72
34
44
41
26
35
27
0
-7
-2
-11
-11
9
10
-24
-51
-61
-83
-96
-74
-63
-82
-86
-70
-54
-29
2
14
19
28
26
4
-36
-87
-130
-164
-192
-187
-152
-125
-71
26
96
223
509
749
878
1165
1428
1119
388
-136
-338
-450
-506
-500
-515
-551
-561
-559
-567
-574
-577
-585
-603
-625
-643
-656
-671
-690
-696
-678
-640
-588
-518
-424
-313
-211
-132
-46
63
153
194
223
251
251
230
217
216
218
223
232
243
246
235
223
210
187
180
203
213
210
228
239
251
376
603
750
732
649
589
539
482
431
398
382
374
364
344
324
331
381
440
454
404
338
302
263
206
176
170
142
121
102
62
123
286
392
569
840
671
5
-373
-240
-142
-220
-232
-215
-257
-277
-259
-259
-281
-305
-312
-305
-322
-345
-324
-292
-288
-272
-248
-278
-340
-359
-331
-315
-312
-282
-230
-196
-169
-133
-114
-115
-119
-141
-191
-254
-322
-375
-394
-396
-409
-425
-423
-421
-431
-421
-401
-415
-434
-400
-339
-298
-284
-315
-373
-390
-373
-366
-347
-329
-344
-330
-304
-344
-303
-88
89
218
398
304
-164
-423
-257
-112
-142
-143
-116
-129
-125
-114
-129
-110
-46
5
53
120
160
173
212
266
307
355
415
462
497
537
581
634
689
731
763
793
800
766
700
633
585
542
474
398
355
342
317
276
246
227
206
195
205
205
169
138
163
212
213
174
146
144
152
139
98
49
-16
-81
-94
-112
-171
-100
95
195
351
663
589
-13
-389
-271
-180
-254
-251
-224
-267
-279
-235
-204
-184
-163
-166
-175
-151
-121
-114
-104
-83
-74
-68
-43
-18
-3
12
30
51
78
94
100
115
135
136
110
70
26
-26
-88
-137
-144
-132
-138
-131
-90
-85
-132
-151
-132
-121
-91
-38
-18
-21
-11
-5
-9
-2
5
-27
-114
-220
-308
-404
-529
-631
-695
-725
-684
-600
-454
-166
-9
-316
-712
-690
-471
-401
-366
-273
-221
-203
-165
-143
-156
-157
-132
-106
-85
-72
-87
-112
-107
-80
-41
11
46
87
148
134
134
443
919
1057
856
702
647
560
476
418
344
282
262
255
243
220
183
152
124
74
16
-17
-18
3
13
-5
-7
27
30
-21
-58
-55
-63
-96
-120
-128
-149
-181
-180
-180
-219
-197
-84
12
110
173
-39
-411
-494
-306
-215
-246
-237
-209
-221
-233
-215
-188
-189
-203
-196
-189
-208
-220
-204
-192
-191
-166
-122
-93
-71
-30
17
46
68
100
132
154
174
206
229
219
192
175
161
146
150
169
175
180
198
215
227
256
293
312
331
361
377
391
437
480
472
431
388
349
323
298
253
219
236
287
311
288
309
417
507
591
709
599
166
-126
-52
53
27
13
7
-55
-104
-107
-92
-59
-22
5
60
143
182
167
158
176
185
177
178
199
227
250
263
266
253
228
213
221
224
202
165
120
56
-14
-74
-128
-177
-210
-231
-259
-304
-362
-414
-446
-460
-461
-471
-510
-539
-516
-477
-469
-485
-499
-486
-445
-407
-379
-368
-379
-357
-317
-356
-357
-173
-4
79
275
296
-196
-658
-605
-462
-553
-629
-615
-650
-682
-657
-648
-665
-678
-704
-741
-777
-821
-858
-860
-859
-887
-920
-927
-919
-908
-867
-787
-723
-713
-711
-678
-640
-609
-597
-634
-708
-768
-806
-842
-862
-873
-897
-911
-892
-876
-872
-812
-618
-276
126
483
780
1079
1393
1654
1841
2001
2141
2231
2301
2381
2463
2530
2572
2629
2692
2616
2417
2333
2384
2471
2640
2667
2269
1804
1670
1642
1582
1678
1734
1399
902
678
673
596
432
299
206
125
45
-58
-153
-206
-274
-405
-540
-622
-655
-661
-664
-688
-717
-731
-739
-748
-754
-781
-838
-889
-936
-1008
-1073
-1094
-1114
-1155
-1172
-1148
-1113
-1089
-1081
-1087
-1083
-1056
-1024
-1006
-979
-902
-819
-810
-859
-893
-902
-917
-919
-877
-817
-789
-757
-684
-653
-638
-455
-199
-71
110
297
-6
-604
-752
-513
-429
-462
-386
-291
-246
-186
-107
-38
17
71
123
157
188
243
285
292
312
359
396
432
489
546
592
641
688
720
751
783
797
786
747
682
611
552
501
459
430
408
387
375
365
344
320
300
282
272
273
267
244
214
