# session 127
25
49
40
27
33
41
45
56
74
93
113
142
191
252
304
346
389
419
430
426
394
331
274
235
191
161
162
152
115
97
116
136
134
124
126
146
175
173
120
66
54
46
19
0
-11
-13
10
69
211
441
638
805
1039
1044
491
-198
-434
-378
-404
-443
-402
-385
-420
-456
-477
-474
-475
-517
-558
-554
-545
-562
-579
-574
-549
-508
-451
-378
-287
-187
-99
-39
-1
26
40
47
42
28
17
9
-5
-21
-22
-7
-2
-12
-2
38
53
20
-21
-37
-40
-58
-72
-59
-40
-25
-11
-22
-12
111
292
449
542
395
-3
-244
-148
-19
-11
1
22
2
-9
7
14
9
3
6
19
31
52
95
143
179
220
274
320
347
357
352
335
302
251
191
135
87
52
37
32
21
3
9
58
107
135
202
329
501
742
955
1020
1132
1420
1481
989
284
-183
-377
-440
-460
-481
-495
-491
-511
-550
-563
-578
-631
-667
-675
-726
-804
-826
-797
-754
-675
-540
-389
-256
-140
-40
25
38
15
1
-8
-40
-73
-85
-101
-125
-135
-136
-131
-125
-138
-148
-125
-106
-116
-111
-93
-118
-147
-109
-56
-86
-136
-79
42
85
40
3
-3
-16
-29
-14
-3
-23
-14
11
-6
42
201
352
545
703
422
-151
-326
-111
-42
-122
-95
-38
-63
-93
-72
-20
14
10
4
24
45
68
113
170
222
281
351
403
416
415
421
392
305
211
160
139
115
73
30
7
-8
-24
-11
36
86
139
223
388
660
946
1166
1400
1616
1515
982
319
-154
-388
-468
-472
-482
-518
-533
-526
-543
-568
-581
-620
-686
-721
-738
-781
-813
-794
-735
-630
-470
-289
-128
-1
73
102
143
221
268
285
410
622
750
930
1341
1590
1243
560
7
-301
-435
-480
-519
-549
-563
-585
-595
-600
-647
-702
-708
-704
-737
-757
-697
-587
-492
-396
-270
-144
-53
-3
8
11
35
50
36
30
38
28
6
1
10
16
12
7
9
13
8
6
18
21
22
61
110
150
245
367
438
547
723
786
716
636
506
326
209
82
-127
-248
-211
-173
-179
-167
-182
-253
-298
-308
-346
-398
-420
-427
-427
-409
-385
-335
-203
-19
119
197
260
315
361
404
435
446
451
445
424
404
391
370
343
334
340
354
386
419
460
550
617
598
683
917
902
486
62
-115
-170
-204
-219
-231
-241
-258
-290
-307
-318
-362
-416
-453
-496
-545
-567
-565
-546
-491
-391
-266
-139
-28
47
75
67
50
41
23
-14
-46
-47
-26
-15
-33
-66
-97
-122
-137
-150
-170
-183
-183
-182
-170
-168
-195
-157
-23
85
186
300
148
-271
-455
-288
-171
-208
-211
-187
-214
-228
-203
-196
-213
-200
-158
-131
-110
-62
-2
53
124
209
273
315
352
370
343
274
180
83
12
-24
-41
-52
-66
-74
-62
-54
-63
-58
-19
33
86
110
89
64
63
49
21
35
74
68
60
93
82
60
172
328
431
583
584
163
-269
-258
-80
-58
-76
-61
-64
-60
-51
-63
-62
-27
8
19
18
40
87
130
177
245
304
343
369
365
330
281
204
108
30
-26
-72
-98
-114
-125
-112
-105
-127
-120
-85
-106
-149
-96
-1
-1
-65
-83
-65
-84
-123
-104
-65
-99
-152
-142
-144
-154
-51
95
191
260
132
-264
-491
-331
-174
-217
-234
-170
-153
-160
-134
-129
-151
-131
-82
-79
-90
-40
31
51
77
182
279
290
299
333
281
168
112
72
-26
-114
-130
-129
-161
-182
-141
-95
-104
-111
-83
-77
-90
-60
5
52
43
-28
-101
-115
-76
-42
-62
-107
-81
-20
-38
-18
183
415
553
606
402
-41
-280
-177
-71
-86
-80
-48
-44
-50
-54
-51
-36
-30
-35
-28
-3
21
42
68
109
169
226
251
264
275
263
216
151
88
52
36
21
11
-2
-38
-68
-62
-55
-59
-48
-31
-25
-10
20
43
48
29
-5
-27
-30
-40
-69
-86
-48
-25
-90
-110
5
113
291
653
716
175
-319
-305
-194
-238
-241
-201
-235
-275
-263
-242
-234
-230
-215
-187
-170
-158
-121
-67
-20
33
94
143
169
181
191
187
144
71
12
-18
-43
-71
-89
-91
-87
-88
-103
-116
-110
-97
-103
-105
-66
-18
-16
-51
-81
-92
-97
-97
-85
-88
-98
-62
-43
-84
-34
108
169
276
472
327
-147
-309
-100
-13
-72
-55
-32
-69
-82
-78
-86
-72
-52
-57
-44
1
35
63
122
197
257
299
334
364
362
314
249
191
132
76
31
3
1
20
31
26
30
36
25
22
42
46
36
56
88
74
24
-23
-53
-64
-48
-34
-59
-76
-33
-23
-78
-47
66
172
402
619
366
-166
-348
-222
-191
-232
-217
-201
-205
-208
-210
-198
-187
-188
-169
-151
-166
-161
-117
-76
-28
50
111
137
158
168
143
102
64
22
-15
-27
-30
-45
-49
-29
-15
-15
-9
1
33
114
181
240
442
720
865
1010
1258
1209
674
69
-284
-452
-527
-546
-553
-539
-519
-544
-584
-583
-574
-592
-611
-623
-647
-659
-632
-567
-457
-298
-130
28
178
276
299
282
245
200
179
169
140
119
122
113
91
99
117
111
103
109
91
50
34
30
5
-11
-2
-5
-21
-25
-29
-37
-30
-21
-26
-33
-12
47
93
75
31
25
18
-22
-34
-15
-25
-27
-4
-21
6
156
295
481
805
768
127
-359
-251
-86
-144
-166
-137
-167
-171
-136
-136
-136
-109
-96
-94
-75
-43
-6
36
84
146
215
263
275
280
290
268
202
116
19
-68
-103
-105
-136
-180
-185
-165
-136
-95
-52
15
124
239
412
703
968
1160
1429
1569
1152
373
-187
-404
-487
-517
-521
-545
-563
-566
-587
-615
-629
-650
-691
-742
-792
-825
-833
-816
-760
-644
-483
-304
-129
15
112
157
150
123
124
158
215
299
417
576
756
952
1245
1579
1631
1220
592
76
-216
-321
-336
-359
-392
-387
-375
-402
-442
-471
-514
-579
-638
-685
-716
-705
-623
-484
-336
-206
-77
61
172
229
249
242
216
200
199
193
182
180
181
175
169
167
160
145
139
151
157
134
102
106
139
141
103
80
95
113
107
83
68
83
95
67
27
10
5
3
0
-9
-11
-14
-39
-56
-37
-18
-29
-46
-51
-57
-80
-109
-120
-114
-118
-136
-140
-94
-29
-9
-28
-34
-32
-41
-33
-11
0
22
34
-6
20
153
266
429
642
478
-90
-401
-272
-170
-216
-219
-203
-227
-237
-234
-232
-212
-195
-193
-175
-133
-96
-66
-20
48
105
136
182
258
299
267
225
220
210
172
149
141
103
47
30
35
18
-8
-10
-5
-13
-13
5
10
-13
-14
27
49
12
-38
-54
-59
-75
-78
-66
-65
-61
-59
-90
-88
0
91
188
310
209
-171
-389
-256
-116
-124
-115
-78
-92
-97
-67
-70
-90
-71
-45
-48
-47
-18
28
78
128
173
224
288
339
347
320
283
236
167
82
14
-11
-11
-28
-54
-61
-71
-96
-103
-83
-66
-65
-65
-48
-14
3
-22
-64
-88
-92
-100
-113
-120
-132
-133
-127
-162
-180
-98
-8
68
214
209
-122
-385
-298
-156
-153
-146
-107
-104
-105
-91
-88
-82
-72
-71
-68
-53
-28
-4
18
55
113
170
209
240
266
276
259
210
139
74
30
-5
-45
-70
-62
-56
-75
-91
-81
-57
-17
42
121
224
408
690
909
994
1185
1471
1372
755
106
-241
-380
-441
-461
-467
-472
-478
-497
-523
-541
-556
-585
-625
-656
-671
-679
-676
-643
-558
-419
-266
-125
14
131
189
203
185
131
84
75
63
33
24
32
32
31
42
52
57
61
60
51
55
72
74
64
57
34
4
16
44
22
-10
26
111
158
132
86
72
67
47
44
54
38
37
54
38
82
222
325
468
674
516
-38
-328
-184
-68
-97
-96
-91
-121
-134
-133
-129
-117
-108
-92
-68
-59
-49
-8
45
97
167
242
295
332
354
343
298
239
170
94
22
-42
-91
-115
-130
-150
-163
-166
-172
-162
-131
-120
-133
-113
-50
-14
-45
-95
-123
-147
-169
-160
-145
-163
-155
-119
-158
-189
-61
85
173
353
390
-4
-382
-322
-152
-154
-174
-163
-183
-182
-155
-148
-134
-107
-105
-102
-61
-13
13
51
120
189
256
328
366
355
334
299
228
143
69
-5
-65
-87
-86
-86
-88
-85
-78
-56
-19
3
-1
14
65
104
103
78
41
10
-3
-14
-16
-3
2
-8
-29
-39
24
113
195
426
674
457
-84
-291
-151
-105
-167
-158
-120
-106
-109
-143
-172
-146
-113
-110
-104
-84
-65
-26
35
76
104
161
236
269
233
182
163
135
54
-31
-75
-99
-132
-160
-161
-140
-136
-144
-116
-64
-17
48
130
238
447
689
805
872
971
869
466
55
-179
-330
-428
-445
-451
-485
-499
-491
-504
-530
-552
-585
-615
-612
-589
-579
-579
-550
-469
-351
-214
-64
76
171
228
254
236
200
186
170
132
116
134
138
116
102
99
92
82
69
52
43
38
26
16
21
24
5
-24
-31
2
39
45
50
91
128
117
84
66
59
51
50
50
30
10
15
1
-33
14
117
214
396
528
262
-197
-300
-113
-48
-93
-81
-59
-66
-69
-77
-87
-76
-60
-44
-23
-7
8
43
98
153
200
245
306
360
365
340
323
299
238
153
78
25
-6
-30
-51
-57
-65
-84
-79
-36
16
80
161
295
564
862
1004
1166
1507
1591
1046
252
-284
-518
-600
-619
-631
-639
-642
-658
-665
-656
-678
-724
-753
-779
-819
-846
-858
-850
-788
-676
-536
-364
-188
-44
62
103
77
52
47
30
13
-4
-30
-28
3
11
4
11
12
8
24
46
45
33
29
31
34
31
9
-2
19
19
-28
-28
64
146
146
113
95
82
70
68
59
47
82
134
91
42
166
339
456
680
794
390
-145
-202
-22
-21
-73
-56
-71
-105
-106
-109
-114
-96
-79
-69
-38
5
40
82
144
206
259
320
377
401
390
362
319
259
190
115
49
17
-5
-48
-81
-77
-82
-103
-91
-67
-73
-76
-56
-30
19
48
-19
-101
-94
-67
-92
-133
-170
-175
-113
-93
-151
-117
4
122
389
647
376
-220
-422
-266
-232
-301
-277
-228
-230
-239
-229
-213
-206
-206
-181
-135
-105
-89
-50
19
99
168
215
253
289
289
242
186
130
49
-29
-66
-85
-108
-110
-79
-46
-36
-12
121
382
623
821
1154
1438
1155
383
-199
-351
-381
-430
-432
-423
-450
-477
-485
-482
-488
-514
-534
-545
-563
-563
-523
-475
-413
-291
-134
-3
94
157
177
171
158
126
75
40
46
71
87
90
73
48
54
82
82
60
46
31
12
-2
-9
-7
-5
-13
-5
22
29
24
39
51
40
36
48
51
44
63
110
139
125
97
76
55
37
33
33
31
45
53
17
9
95
196
333
546
520
83
-278
-222
-78
-87
-103
-88
-115
-140
-131
-123
-116
-99
-88
-76
-61
-61
-59
-28
22
70
112
145
169
195
198
157
101
59
13
-40
-81
-111
-133
-140
-137
-133
-116
-90
-48
46
166
303
533
805
1002
1223
1432
1244
610
-4
-335
-492
-555
-564
-579
-591
-586
-596
-612
-623
-651
-685
-711
-747
-778
-769
-732
-676
-568
-409
-225
-37
110
179
219
282
335
362
450
639
846
1058
1370
1665
1617
1115
425
-100
-314
-337
-345
-366
-361
-350
-357
-372
-402
-455
-503
-553
-632
-699
-695
-636
-551
-429
-265
-73
111
214
218
191
170
150
140
145
149
151
159
163
153
139
140
150
152
147
144
148
145
124
108
122
130
97
74
96
115
94
71
76
86
74
52
46
49
44
40
31
6
-2
22
18
-22
-30
-11
-16
-28
-27
-37
-49
-49
-64
-92
-114
-137
-154
-146
-141
-160
-172
-149
-97
-49
-49
-91
-121
-121
-105
-93
-94
-74
-45
-70
-58
83
221
368
620
588
52
-371
-303
-177
-218
-221
-192
-220
-223
-189
-190
-200
-170
-125
-103
-92
-62
-9
48
101
151
208
273
315
314
303
300
286
262
237
183
114
84
74
30
-7
3
17
13
3
-6
7
45
53
35
51
77
48
-20
-64
-72
-80
-96
-99
-107
-123
-106
-94
-135
-117
8
129
263
354
132
-264
-350
-166
-80
-96
-78
-59
-54
-46
-63
-82
-69
-47
-28
-12
-2
22
69
116
164
223
284
341
379
371
332
294
240
141
47
15
4
-34
-60
-48
-39
-51
-56
-50
-34
-19
-21
-18
24
61
35
-24
-64
-88
-113
-132
-140
-148
-142
-123
-144
-172
-108
-15
59
211
275
-13
-352
-342
-185
-163
-172
-131
-118
-119
-105
-105
-109
-100
-104
-121
-115
-88
-65
-45
-13
35
85
129
162
183
190
173
128
64
-11
-81
-115
-117
-126
-156
-178
-163
-130
-133
-171
-174
-125
-83
-70
-54
-28
-24
-56
-86
-96
-105
-107
-94
-103
-108
-75
-79
-96
10
161
280
465
489
82
-316
-264
-86
-97
-129
-98
-104
-126
-116
-116
-139
-146
-115
-77
-58
-32
14
53
105
209
314
369
406
439
436
400
343
257
159
83
39
27
25
8
-6
3
3
-9
4
35
50
95
219
382
559
767
940
1068
1314
1624
1582
1018
303
-159
-330
-366
-378
-404
-442
-467
-476
-488
-524
-589
-657
-693
-707
-735
-766
-772
-755
-712
-615
-482
-339
-184
-39
59
117
134
106
79
81
70
42
37
44
34
25
25
23
21
29
40
41
34
30
29
11
-17
-14
-2
-38
-73
-19
79
114
84
45
25
30
28
-3
-21
2
19
15
25
