# session 233
-35
-32
-64
-98
-77
-37
-45
-73
-69
-43
-7
20
41
117
225
284
379
565
708
865
1172
1306
934
346
-51
-247
-334
-343
-346
-376
-397
-405
-417
-421
-430
-464
-503
-521
-528
-542
-542
-497
-420
-330
-200
-42
53
80
152
240
222
153
143
142
105
94
120
138
150
163
158
149
153
146
116
72
26
26
104
183
190
197
254
255
183
157
120
34
71
93
-63
48
242
-454
-1339
-848
235
456
375
528
298
-147
-150
18
-9
-41
-15
-39
-58
-40
-39
-45
-36
-25
-14
-5
16
55
74
84
150
205
205
268
293
167
198
257
-66
-57
360
-634
-2526
-2216
-162
514
-24
-16
203
111
152
286
241
186
182
133
108
139
134
107
140
163
110
123
227
319
505
678
401
-126
-258
-79
-35
-81
-73
-73
-69
-35
-29
-31
-4
13
17
49
91
113
140
188
234
267
300
324
315
278
234
183
117
49
-3
-36
-63
-77
-79
-92
-107
-95
-106
-155
-105
31
25
-33
39
-29
-160
24
-54
-386
200
358
-1843
-3297
-1150
1145
970
627
910
426
-206
-99
27
-100
-86
-43
-92
-82
-51
-72
-77
-63
-80
-98
-97
-109
-131
-139
-137
-127
-95
-53
-14
24
59
76
69
43
15
5
-5
-30
-47
-48
-51
-43
-27
-51
-81
-28
68
81
12
-10
21
-19
-58
-4
-40
-76
89
8
-222
206
392
-675
-1097
115
652
-89
-240
172
102
-47
62
44
-42
-12
-1
-24
-7
3
6
36
69
92
117
143
169
190
198
199
190
156
113
81
52
21
-1
-15
-33
-46
-53
-64
-58
-23
13
61
148
263
447
706
920
1178
1643
1927
1533
725
72
-271
-373
-336
-355
-473
-534
-534
-631
-770
-753
-631
-597
-645
-669
-674
-672
-629
-536
-397
-223
-69
44
160
277
424
645
773
711
766
990
897
377
-95
-294
-354
-357
-348
-369
-388
-394
-418
-455
-493
-531
-550
-555
-560
-505
-391
-327
-278
-115
70
120
88
73
76
84
83
53
34
69
116
110
84
97
105
78
80
111
111
107
130
133
116
119
118
96
80
78
75
68
58
48
46
46
45
50
56
59
67
71
62
67
91
102
101
115
131
126
121
131
130
109
106
131
140
119
121
173
230
245
227
207
197
178
121
105
169
147
81
195
259
277
679
817
324
420
67
-2874
-5080
-2754
411
489
-219
150
271
13
106
192
104
137
189
169
188
232
273
334
366
355
360
368
334
270
212
171
126
56
-14
-48
-60
-90
-117
-114
-104
-76
-31
-35
-16
97
123
68
129
60
-82
142
89
-306
348
479
-2355
-4329
-1852
533
-327
-727
438
450
-311
-225
26
-75
-52
30
-6
17
75
69
91
137
121
109
171
225
223
243
314
389
449
503
557
590
569
521
470
362
228
198
244
228
173
177
200
171
114
107
183
224
134
108
318
588
744
838
974
1254
1574
1543
1028
396
-35
-243
-296
-292
-310
-331
-334
-348
-378
-409
-458
-531
-573
-559
-574
-631
-634
-571
-488
-388
-267
-54
169
204
318
529
230
98
750
-228
-3455
-4435
-1730
279
-5
-217
172
371
503
559
432
406
464
440
431
465
458
469
547
598
615
658
604
487
579
637
400
514
738
-467
-2267
-2008
-212
973
1646
1285
-1672
-5107
-5571
-4111
-3489
-2796
-336
1283
-427
-2037
-479
1550
1780
900
-496
-760
794
1111
-316
-33
1593
1646
1180
1779
1648
269
40
1249
1745
1267
1073
1177
1080
967
997
988
889
910
1022
916
852
1041
825
694
1473
1029
-1326
-1646
-272
-2579
-6150
-3717
1782
2390
-719
-2167
-1882
-1278
29
1121
981
679
827
799
627
622
588
486
459
430
336
257
224
230
277
350
438
543
688
819
825
834
929
805
618
846
849
423
839
1109
-1159
-4313
-5626
-5373
-3261
197
1047
-882
-1262
-7
323
-24
-669
-1582
-1340
-129
277
47
142
285
282
404
528
506
521
669
799
848
1045
1314
1103
497
252
399
452
478
563
470
402
498
368
297
551
283
98
998
-8
-4112
-5287
-1352
1075
-377
-1293
-819
-934
-738
811
1597
-808
-4202
-3798
-457
1084
865
692
-571
-1885
-697
1093
1066
651
924
1026
897
914
866
751
756
796
772
694
637
675
737
748
778
887
1102
1312
1145
545
177
367
422
114
231
317
-1008
-2501
-1777
80
598
183
176
301
188
165
255
279
322
426
492
498
496
495
438
320
250
253
207
128
134
143
90
87
62
16
117
50
-179
232
411
-1906
-5735
-6659
-2887
1304
901
-1954
-1642
905
1849
2199
2174
-468
-2690
-1004
949
364
-157
285
230
0
141
127
8
60
33
-98
-123
-112
-160
-197
-164
-59
79
200
326
452
498
510
552
505
429
481
461
362
431
292
19
566
1156
96
-1576
-2045
-1728
-1074
153
873
85
-938
-605
448
777
543
576
726
673
622
635
605
591
560
471
500
630
728
990
1316
1127
489
90
192
401
222
19
431
349
-1720
-4887
-6731
-5253
-1438
199
-1409
-1918
-410
373
458
49
-1220
-986
1043
1665
924
947
1167
854
743
855
805
764
757
700
723
801
803
790
852
953
1085
1340
1616
1709
1914
2396
2428
1848
1289
489
-139
575
360
-2830
-4624
-1998
622
447
-250
-707
-1323
-993
106
-60
-2455
-5332
-5560
-2705
113
913
668
661
1165
1112
-564
-1967
-821
1039
1211
752
890
996
850
867
941
893
828
819
811
775
806
808
581
576
901
-371
-4187
-6519
-3770
-137
-591
-1829
-518
-287
-1712
-286
1686
-1324
-5122
-3162
1104
2056
1193
1248
1493
1364
1581
2073
2091
1485
882
793
941
940
889
881
829
781
796
806
787
767
747
724
695
695
745
759
733
769
793
772
806
703
545
805
676
-1231
-3511
-3016
-188
753
-1819
-4889
-5757
-4045
-800
699
-1118
-2211
-128
1599
1148
784
1083
1000
818
900
879
773
812
837
723
711
871
933
1018
1327
1289
680
263
293
433
548
327
159
732
-1
-3744
-6534
-4711
-1637
-1201
-2062
-1990
-875
501
1108
825
660
853
897
835
828
753
644
578
503
447
450
447
408
377
371
394
449
493
517
647
944
1277
1566
1888
2190
2081
1311
396
18
-36
-141
-74
-70
-383
-178
140
-1069
-2417
-1740
-1319
-3110
-4008
-2148
-362
-365
-712
-548
-339
-213
-77
-10
39
123
145
93
70
104
137
133
111
101
126
182
206
173
177
246
279
270
276
256
224
249
239
209
275
215
31
174
258
-439
-1250
-1289
-814
-201
253
118
-228
-180
-29
-35
50
158
159
266
451
609
932
1136
673
2
-108
69
52
13
66
55
51
134
157
96
110
207
262
257
286
350
379
430
537
496
393
532
377
-561
-1118
-418
294
110
-175
-159
-222
-297
-226
-192
-213
-183
-149
-122
-41
81
206
320
414
531
696
845
1020
1365
1697
1584
1008
378
-10
-117
-134
-232
-241
-198
-339
-252
-38
-475
-478
383
-988
-4376
-4748
-2288
-1357
-1322
-213
384
66
202
435
256
237
362
340
393
526
530
489
493
481
494
529
472
473
701
829
620
426
461
493
439
438
468
419
445
609
469
254
741
307
-3215
-6623
-5215
-1478
-643
-2110
-2949
-2736
-1465
484
1493
1366
1130
819
497
564
650
647
765
443
-180
17
700
764
585
709
721
627
719
695
674
954
858
570
1146
1142
-868
-2080
-475
1363
1292
354
496
1446
-31
-3518
-3537
-669
-621
-1897
-486
1122
780
528
855
805
781
957
949
957
1054
1060
1228
1652
2000
2256
2422
2029
1087
340
60
-63
-102
-67
-96
-146
-177
-219
-225
-319
-441
-298
-357
-723
-286
-277
-3346
-6554
-4851
-878
-196
-1784
-2072
-996
114
636
480
216
210
197
142
164
159
151
235
316
340
369
398
399
413
457
488
515
556
589
635
667
592
523
562
524
437
492
458
376
574
452
141
971
1012
-2659
-6233
-4927
-2156
-1700
-1082
576
877
381
616
750
461
499
671
623
597
640
650
705
777
776
767
816
887
949
981
985
976
884
747
738
684
472
522
614
227
358
897
-1214
-5529
-6391
-2984
-1052
-1973
-1662
404
1385
1099
1004
1102
1138
1523
2041
1982
1542
1205
483
-650
-893
-83
379
211
152
166
46
38
62
-68
-150
-133
-209
-321
-370
-409
-359
-212
-140
5
280
312
384
824
513
-1159
-2785
-3084
-1748
694
2191
1523
311
-37
-50
-93
45
196
214
223
238
226
209
180
135
95
73
72
89
87
58
133
341
491
603
700
574
562
811
468
203
1102
132
-4234
-6038
-2510
5
-1438
-2695
-2194
-1320
-97
972
967
637
723
820
675
648
843
685
408
877
785
-845
-1180
449
332
-1178
-483
1088
923
460
792
866
655
705
750
634
594
645
577
497
604
485
242
682
782
-580
-1430
-1008
-1414
-1816
-264
1103
690
374
679
525
295
476
542
577
1018
1304
827
172
49
198
195
138
152
157
130
123
141
141
126
188
231
116
134
397
388
-426
-2521
-4730
-3769
-724
-1150
-3516
-1909
618
-929
-2965
-2496
-1691
-795
676
1088
515
384
474
389
460
576
545
536
582
621
664
648
573
552
579
591
605
609
604
659
694
619
620
749
823
960
1163
918
308
93
270
336
304
247
201
324
273
82
462
333
-1640
-2963
-1289
770
805
380
605
645
479
563
654
621
620
618
575
504
402
336
315
263
235
268
250
198
241
297
301
321
273
252
479
437
96
515
257
-3067
-5756
-3671
-1906
-4358
-5120
-2270
-1302
-1588
510
2266
1685
1157
987
353
230
447
250
391
551
-324
-889
-8
725
453
256
361
298
251
287
245
211
182
241
423
370
406
857
684
420
1483
879
-3106
-4751
-2118
-1029
-1778
-135
1895
1667
1466
1944
1605
1176
1320
1116
598
443
445
353
332
361
321
265
229
194
167
125
36
-84
-160
-141
-142
-225
-172
33
145
329
608
578
657
976
531
339
1377
229
-3541
-4183
-1753
-1513
-1891
30
1048
58
-247
-1
-120
7
8
-11
529
-61
-1907
-1782
254
909
291
346
652
508
435
554
560
530
585
580
506
623
714
480
529
765
272
205
1066
-94
-2823
-2873
-1510
-1923
-1604
615
1565
1067
720
-109
-1129
-1109
-713
-645
-430
-81
80
215
383
440
437
468
499
498
524
589
586
569
692
750
647
732
811
589
768
918
-775
-3011
-2432
77
1073
515
369
702
550
97
100
100
-956
-2613
-3375
-2500
-563
909
1069
743
703
688
579
571
596
582
588
575
558
649
775
818
990
1291
1186
688
441
502
592
642
482
408
656
381
118
1028
266
-3799
-5606
-2568
-553
-1950
-2774
-1955
-973
441
1641
1000
-386
-387
489
754
659
833
939
825
775
769
741
707
638
671
757
656
643
720
439
643
1270
-862
-5171
-5250
-886
1092
633
1459
333
-3613
-3958
-947
-857
-2864
-2800
-1064
612
1368
886
386
660
849
700
709
786
760
749
752
751
796
846
848
847
893
926
916
955
1022
1044
1124
1177
1052
1052
1086
693
471
625
-376
-2970
-5634
-6694
-4832
-1491
-619
-1926
-1500
433
1167
974
930
796
658
764
833
816
894
1002
1030
973
925
976
989
870
875
1059
1151
1229
1372
1134
557
385
630
671
555
561
513
432
454
359
320
550
90
-1639
-3259
-3335
-1962
-162
842
707
354
413
584
637
654
611
483
398
392
336
289
353
330
296
468
391
140
564
620
-1629
-5041
-6380
-4311
-961
598
890
1517
155
-2942
-2360
723
68
-2463
-2383
-1723
-1791
-653
690
752
756
998
784
708
997
1008
864
962
1095
1092
1052
1012
990
1008
998
909
894
972
905
852
1010
883
665
1094
853
-902
-1326
442
495
-1957
-3083
-2071
-1140
-501
336
596
270
260
452
173
-283
-229
145
291
274
310
288
204
183
189
198
202
127
103
215
199
127
231
86
-171
248
441
-507
-1031
-632
-887
-1229
-435
136
-262
-403
-125
-105
-132
12
55
-2
57
192
249
244
247
207
124
130
216
227
165
140
135
120
128
47
-136
-117
-1
-196
-262
52
-414
-1851
-2699
-2645
-2288
-1160
352
790
496
625
909
976
1135
1410
1737
2148
2230
1651
833
344
220
215
188
137
92
81
76
8
-65
-59
-125
-271
-219
-187
-426
-301
49
-686
-1874
-1602
-525
-258
-277
81
259
183
226
280
272
311
308
232
221
274
316
358
323
193
251
401
207
169
571
95
-1113
-1024
-959
-3723
-6427
-4666
-1020
-332
-1584
-1440
-41
888
1039
911
792
760
844
967
1004
1090
1286
1216
748
358
464
817
635
-132
-374
144
368
214
313
406
352
460
484
493
721
514
371
1147
756
-1288
-1427
-127
-885
-1563
291
1413
381
-214
48
54
102
347
427
469
569
609
648
693
693
714
746
763
814
806
756
872
970
948
1204
1369
1132
1685
2471
1104
-823
-390
524
361
480
-272
-2341
-2696
-1908
-2347
-1931
-3
389
-560
-677
-522
-736
-615
-392
-612
-787
-546
-243
-102
15
168
285
351
361
306
250
239
223
183
170
151
86
73
94
15
-43
-19
-98
-92
20
-223
-251
335
-342
-2550
-3079
-1378
-519
-1042
-1229
-1118
-1283
-1262
-982
-857
-766
-416
-3
314
768
1149
812
59
-204
-37
13
-27
-30
-55
-36
-5
-36
1
-7
-263
-360
-35
158
88
211
251
66
349
238
-1821
-3836
-2777
-178
780
379
182
191
162
256
369
423
507
576
620
733
860
892
938
1125
1232
1145
1214
1361
1231
1313
1583
1242
1338
2150
403
-3268
-2835
1234
2679
1918
2539
2731
1269
282
