# session 30
-14
-17
7
12
-14
-31
-90
-200
-186
-30
95
255
462
330
-141
-373
-243
-154
-178
-143
-94
-97
-88
-65
-75
-97
-118
-148
-166
-155
-132
-104
-62
-18
17
64
133
197
240
272
300
314
303
264
209
146
86
44
19
0
-22
-40
-49
-48
-44
-41
-39
-38
-37
-38
-44
-54
-55
-40
-26
-31
-34
-11
9
-2
-28
-51
-78
-102
-114
-122
-116
-111
-136
-147
-136
-165
-156
-20
117
247
422
329
-145
-446
-311
-155
-182
-199
-154
-133
-132
-125
-112
-95
-76
-64
-54
-37
-7
33
70
82
83
118
183
231
264
318
369
382
372
341
266
161
69
11
-15
-38
-76
-103
-101
-101
-108
-99
-89
-93
-80
-52
-47
-69
-83
-70
-50
-53
-57
-10
65
95
68
21
-12
-11
-8
-33
-41
-21
-33
-49
-46
-94
-84
94
240
358
673
775
217
-372
-355
-156
-176
-201
-151
-151
-154
-128
-129
-135
-117
-102
-86
-62
-55
-59
-45
-21
8
53
113
174
238
301
345
367
368
334
259
163
75
11
-31
-61
-82
-93
-108
-124
-122
-113
-118
-127
-124
-112
-98
-103
-123
-104
-61
-74
-104
-63
-7
-6
-7
3
-31
-79
-83
-84
-95
-73
-69
-97
-69
-50
-95
-29
131
234
464
722
438
-200
-390
-171
-107
-181
-163
-125
-122
-107
-97
-102
-91
-73
-60
-47
-43
-42
-19
9
22
42
82
131
177
222
259
274
262
237
197
126
40
-20
-57
-90
-109
-112
-116
-119
-106
-85
-83
-94
-93
-78
-72
-89
-105
-97
-85
-93
-102
-86
-44
4
21
-9
-52
-66
-62
-73
-89
-76
-61
-80
-84
-58
-81
-102
-19
80
195
449
548
154
-303
-319
-157
-155
-181
-141
-126
-126
-96
-74
-74
-70
-59
-46
-34
-24
-13
8
35
65
104
152
199
247
296
333
351
356
337
286
225
169
107
52
36
37
17
-7
-3
9
-1
-20
-29
-33
-35
-25
-17
-34
-58
-56
-34
-22
-25
-15
32
83
91
68
45
20
3
12
22
23
31
37
53
88
86
92
208
346
480
712
749
289
-182
-158
37
42
-2
9
-9
-39
-43
-60
-101
-146
-192
-226
-227
-215
-214
-201
-149
-97
-82
-104
-160
-216
-218
-203
-224
-238
-232
-280
-380
-473
-544
-578
-549
-494
-473
-474
-474
-468
-423
-328
-243
-207
-176
-113
-52
-42
-67
-61
3
68
85
98
158
235
284
311
312
278
263
294
308
289
298
314
305
327
336
279
327
508
610
730
911
677
42
-228
-18
90
13
17
52
14
-25
-60
-133
-202
-222
-204
-157
-83
-18
23
64
118
171
230
304
388
469
534
571
591
589
531
427
331
244
139
61
55
47
-31
-121
-170
-220
-287
-334
-378
-456
-534
-566
-588
-633
-669
-677
-693
-747
-797
-768
-667
-585
-546
-497
-427
-354
-271
-208
-175
-135
-107
-94
-57
-56
-71
64
271
440
746
947
508
-162
-259
-4
32
-24
41
76
31
28
58
57
62
97
117
118
133
151
161
184
219
246
276
312
353
414
476
492
484
469
399
292
221
152
59
23
36
13
-21
-20
-37
-79
-75
-47
-76
-133
-147
-135
-144
-159
-150
-135
-153
-187
-175
-108
-57
-59
-75
-79
-90
-102
-96
-87
-69
-56
-82
-83
-35
-60
-86
62
231
357
640
763
287
-285
-338
-153
-119
-147
-148
-144
-128
-136
-167
-157
-138
-151
-138
-97
-99
-121
-93
-41
-25
-19
6
32
65
106
119
119
128
82
-26
-87
-73
-70
-98
-110
-106
-112
-119
-115
-107
-94
-69
-46
-43
-53
-52
-35
-27
-35
-42
-38
-20
8
21
25
70
127
125
100
94
68
40
59
62
43
71
104
98
107
107
86
157
293
435
670
776
402
-96
-151
33
56
15
41
46
32
51
63
67
96
117
103
93
103
97
71
56
50
38
33
49
73
93
106
106
90
61
16
-41
-100
-152
-191
-214
-228
-249
-281
-331
-393
-433
-436
-424
-416
-408
-411
-429
-447
-459
-447
-386
-325
-319
-316
-263
-208
-196
-193
-191
-211
-220
-181
-143
-138
-130
-115
-107
-69
-33
-52
-9
147
290
454
616
422
-80
-290
-106
41
44
56
71
74
95
110
120
149
170
174
187
201
201
199
204
222
247
269
298
356
428
479
507
526
522
476
406
330
248
171
121
83
43
25
32
36
30
16
4
23
62
68
42
29
27
21
22
32
29
14
5
29
86
117
85
38
16
-3
-27
-32
-19
-21
-36
-15
9
-60
-82
93
272
407
668
688
124
-390
-325
-143
-193
-226
-170
-173
-205
-210
-219
-215
-193
-194
-206
-195
-180
-166
-146
-140
-130
-82
-22
32
108
172
190
208
226
174
74
-8
-97
-208
-270
-283
-321
-372
-376
-377
-403
-394
-372
-391
-402
-373
-352
-350
-361
-378
-357
-314
-327
-363
-328
-244
-194
-189
-197
-212
-225
-209
-191
-202
-197
-166
-163
-156
-127
-157
-148
37
235
400
646
609
24
-469
-389
-191
-213
-242
-198
-188
-191
-171
-151
-134
-126
-117
-86
-58
-50
-32
0
29
67
123
191
275
369
438
470
492
518
511
435
330
258
226
207
187
157
132
156
223
266
327
569
925
1131
1337
1880
2326
1924
915
174
-56
-106
-151
-150
-95
-39
-30
-66
-112
-155
-189
-220
-261
-295
-299
-292
-286
-258
-184
-69
68
209
344
469
572
645
681
686
677
667
663
670
682
685
676
668
669
667
654
660
696
701
620
480
322
152
5
-68
-94
-136
-217
-336
-473
-579
-652
-732
-819
-886
-933
-981
-1055
-1170
-1306
-1439
-1565
-1666
-1753
-1868
-1981
-2053
-2144
-2256
-2299
-2315
-2374
-2305
-1981
-1599
-1332
-1104
-857
-660
-529
-406
-251
-83
45
113
167
227
271
293
331
394
441
474
539
579
560
638
822
959
1167
1430
1263
676
377
519
633
610
614
624
608
600
590
582
587
598
623
643
621
586
587
598
589
593
624
644
647
663
684
691
682
644
586
555
547
511
443
368
292
237
213
192
173
167
152
131
135
149
172
226
290
400
602
777
867
963
935
569
76
-195
-255
-269
-278
-296
-339
-387
-417
-431
-438
-451
-478
-513
-556
-605
-649
-692
-724
-721
-691
-662
-598
-463
-313
-208
-128
-46
2
-11
-61
-115
-163
-193
-203
-208
-212
-210
-214
-219
-212
-204
-207
-206
-194
-182
-184
-199
-193
-161
-145
-151
-144
-130
-129
-117
-87
-71
-71
-61
-40
-28
-31
-38
-44
-56
-74
-82
-81
-86
-91
-83
-77
-88
-95
-78
-51
-42
-46
-29
30
85
89
63
47
43
50
55
44
42
63
77
78
62
61
161
313
472
732
860
465
-107
-238
-72
-28
-65
-56
-55
-60
-45
-47
-60
-47
-30
-26
-8
19
33
40
57
90
135
161
167
209
292
356
378
382
375
351
311
252
187
129
69
-8
-95
-152
-158
-151
-174
-197
-188
-185
-210
-223
-217
-225
-250
-276
-293
-285
-277
-280
-240
-144
-62
-40
-63
-90
-90
-77
-80
-78
-58
-50
-57
-20
31
7
33
247
446
541
709
689
170
-311
-265
-104
-152
-179
-135
-158
-182
-157
-141
-129
-114
-116
-109
-84
-72
-59
-27
-3
7
41
108
188
263
326
375
400
392
367
313
205
89
21
-28
-80
-106
-119
-142
-142
-123
-123
-123
-94
-69
-68
-72
-72
-63
-34
-21
-52
-67
-5
78
97
67
45
32
14
-4
-8
11
21
-14
-34
-7
-29
-45
89
234
357
690
893
401
-286
-390
-192
-191
-235
-191
-191
-213
-178
-148
-155
-168
-171
-159
-133
-119
-120
-108
-76
-44
-22
15
83
165
232
282
314
313
282
235
166
77
0
-51
-93
-120
-127
-138
-151
-136
-116
-123
-124
-105
-101
-103
-78
-57
-70
-79
-62
-44
-26
0
-4
-47
-83
-86
-81
-92
-104
-95
-93
-104
-76
-44
-73
-33
141
286
402
534
381
-85
-334
-224
-136
-163
-156
-137
-134
-116
-110
-114
-85
-49
-44
-49
-46
-49
-45
-9
38
57
67
114
192
256
292
315
321
308
280
228
143
56
-2
-36
-69
-100
-111
-103
-94
-91
-86
-70
-47
-27
-25
-32
-19
3
-7
-27
4
60
68
30
-1
-6
-2
-7
-18
-15
2
-9
-44
-26
11
-13
-9
93
198
341
510
370
-86
-327
-209
-104
-118
-108
-89
-95
-84
-77
-95
-92
-68
-55
-49
-35
-14
7
8
-6
0
35
75
122
182
232
266
291
297
263
199
129
61
0
-41
-62
-78
-95
-103
-101
-95
-93
-100
-110
-109
-107
-117
-120
-102
-100
-116
-96
-54
-41
-41
-77
-151
-139
-108
-194
-138
4
-377
-915
-621
19
34
-127
94
302
390
554
435
-80
-377
-236
-92
-110
-117
-91
-87
-81
-72
-71
-56
-26
-3
8
17
27
34
29
25
56
102
130
171
247
321
370
411
428
390
313
234
167
106
64
47
33
2
-27
-40
-40
-22
-3
-6
-9
-2
-17
-29
-14
-20
-44
-14
57
96
96
82
46
6
-2
9
-1
-8
17
15
-8
18
2
-71
12
212
334
513
637
249
-349
-461
-258
-219
-259
-236
-236
-252
-240
-226
-210
-198
-197
-178
-153
-156
-152
-113
-76
-50
-14
37
108
191
255
296
330
337
300
239
152
40
-51
-102
-146
-192
-211
-206
-199
-206
-231
-246
-231
-210
-195
-174
-168
-180
-179
-175
-186
-165
-92
-29
-20
-46
-72
-74
-53
-57
-93
-84
-33
-20
-8
32
10
25
207
362
501
846
935
325
-287
-262
-71
-112
-139
-73
-63
-81
-69
-59
-48
-22
-5
2
16
30
40
64
95
112
136
188
243
284
336
391
409
385
351
298
205
116
78
44
-18
-59
-59
-61
-68
-67
-74
-83
-73
-65
-73
-81
-90
-108
-111
-99
-105
-110
-63
-2
3
-39
-78
-109
-127
-133
-149
-159
-136
-127
-143
-123
-111
-140
-81
56
151
341
557
334
-214
-411
-229
-134
-163
-152
-147
-167
-152
-129
-120
-112
-115
-118
-98
-83
-86
-71
-49
-43
-15
50
97
128
186
241
257
265
270
234
154
59
-14
-44
-64
-96
-116
-115
-121
-121
-101
-88
-101
-110
-95
-74
-60
-51
-50
-59
-57
-34
-2
22
26
34
72
104
91
60
37
9
-11
-19
-32
-41
-43
-56
-45
-17
-38
-24
107
225
326
502
461
29
-300
-212
-65
-76
-81
-52
-71
-90
-66
-36
-24
-24
-10
25
47
46
45
47
65
108
151
167
183
233
285
298
290
297
294
243
160
91
50
11
-33
-63
-72
-73
-74
-76
-77
-75
-70
-70
-77
-84
-85
-84
-86
-90
-104
-130
-144
-133
-119
-119
-108
-59
-4
10
-7
-14
-15
-24
-28
-25
-14
7
15
14
23
-2
-8
126
285
417
721
907
457
-181
-286
-113
-144
-309
-467
-570
-606
-607
-435
-267
-643
-1140
-840
-215
-141
-270
-160
-74
-86
-28
48
105
186
262
319
371
406
420
392
302
195
116
64
34
22
14
13
20
21
20
26
33
38
41
42
38
23
4
-2
0
-20
-46
-40
-19
-16
-15
11
50
90
118
121
97
61
46
53
56
70
85
71
71
81
37
77
267
416
623
985
906
173
-341
-233
-81
-126
-128
-97
-131
-163
-157
-143
-145
-158
-155
-136
-125
-119
-107
-101
-93
-53
7
60
106
167
233
279
293
279
235
160
50
-63
-130
-160
-195
-233
-246
-242
-240
-238
-235
-233
-221
-201
-190
-186
-176
-170
-167
-156
-151
-164
-172
-155
-129
-131
-158
-140
-50
18
6
-31
-46
-55
-55
-54
-60
-43
-25
-45
-43
-32
-81
-34
161
294
499
889
831
106
-384
-246
-99
-173
-183
-141
-163
-172
-154
-158
-159
-138
-128
-127
-110
-87
-73
-61
-39
5
72
134
174
221
290
349
378
381
347
279
196
116
63
23
-34
-87
-97
-87
-83
-79
-77
-78
-61
-31
-19
-17
12
54
93
165
249
326
497
748
906
1063
1425
1702
1450
813
240
-101
-269
-341
-386
-408
-403
-423
-463
-467
-462
-498
-536
-548
-571
-616
-651
-680
-707
-703
-664
-614
-541
-419
-259
-97
35
143
228
265
330
544
736
741
904
1338
1381
760
145
-69
-167
-281
-316
-326
-356
-362
-363
-384
-393
-401
-434
-465
-480
-511
-551
-558
-523
-472
-398
-286
-168
-84
-26
32
74
78
56
44
56
77
70
41
22
17
21
13
-31
-26
92
75
-288
-710
-915
-1074
-1288
-1371
-1308
-1248
-1166
-967
-688
-386
-68
211
373
437
487
545
605
685
779
867
973
1107
1223
1307
1389
1444
1432
1389
1358
1313
1221
1101
983
861
718
564
419
284
153
40
-53
-144
-224
-271
-298
-325
-344
-354
-363
-366
-366
-362
-353
-346
-346
-332
-304
-293
-290
-267
-248
-256
-245
-198
-175
-191
-184
-150
-149
-167
-157
-151
-171
-165
-131
-125
-143
-133
-93
-47
-20
-33
-70
-91
-79
-64
-84
-111
-116
-121
-114
-86
-105
-108
27
183
331
604
667
169
-361
-364
-173
-173
-219
-190
-183
-218
-243
-243
-227
-210
-198
-182
-157
-124
-92
-74
-54
-13
37
86
141
200
253
296
316
311
296
277
240
180
115
55
9
-19
-35
-59
-86
-89
-79
-89
-103
-102
-112
-134
-129
-116
-139
-174
-177
-163
-162
-166
-175
-189
-166
-84
-9
-12
-71
-104
-84
-62
-76
-95
-75
-52
-68
-55
-1
-27
-49
116
327
510
817
884
317
-265
-249
-55
-84
-112
-56
-67
-114
-116
-99
-87
-81
-85
-82
-61
-27
9
32
49
88
141
194
269
366
433
463
489
497
455
379
298
217
140
84
60
49
31
