# session 19
16
-15
-38
-66
-80
-60
-51
-64
-58
-72
-98
-38
70
163
334
419
106
-322
-372
-200
-164
-194
-164
-147
-155
-131
-108
-112
-109
-85
-60
-43
-33
-24
-8
25
66
106
143
177
204
220
230
226
177
96
34
-6
-46
-79
-100
-115
-124
-131
-130
-115
-113
-93
5
105
163
337
607
738
800
913
775
270
-157
-275
-308
-358
-358
-347
-364
-376
-388
-421
-450
-465
-490
-527
-562
-591
-610
-612
-600
-559
-465
-332
-199
-81
31
121
160
155
137
114
87
75
77
74
63
61
71
75
64
57
79
108
107
85
78
90
93
83
83
99
106
92
75
81
96
83
68
109
182
224
219
187
148
128
123
133
181
258
311
334
448
732
892
524
-159
-528
-467
-324
-222
-102
-40
-83
-118
-87
-63
-84
-107
-112
-110
-96
-78
-86
-103
-91
-50
-7
33
86
160
238
276
267
253
226
142
35
-38
-107
-184
-219
-224
-244
-264
-251
-233
-249
-280
-265
-217
-215
-243
-218
-163
-143
-159
-191
-229
-256
-257
-224
-166
-97
-10
39
10
81
338
518
572
694
638
190
-145
-38
137
145
140
163
172
195
222
222
217
230
257
278
284
300
320
284
210
183
213
245
252
239
222
221
205
118
-11
-111
-178
-241
-296
-328
-336
-325
-300
-252
-173
-60
142
437
693
904
1272
1691
1630
910
43
-470
-639
-686
-700
-699
-709
-736
-756
-760
-772
-813
-862
-913
-977
-1027
-1031
-1018
-1002
-924
-772
-599
-425
-250
-111
-18
49
62
15
-16
-8
-16
-40
-40
-21
-15
-18
-12
8
25
29
38
62
80
86
96
109
114
114
111
106
106
122
134
118
101
126
154
132
116
179
266
293
273
254
246
234
229
240
234
224
245
236
210
298
440
568
813
948
546
-29
-133
44
65
22
47
41
20
48
75
70
73
99
124
134
140
155
183
228
277
316
347
359
353
345
334
305
265
218
167
128
89
31
-14
-26
-39
-53
-49
-61
-96
-89
-32
0
-14
-25
4
50
59
21
-20
-39
-52
-64
-73
-80
-74
-60
-81
-105
-38
76
147
177
53
-277
-488
-364
-185
-173
-203
-191
-174
-156
-146
-166
-179
-159
-143
-153
-154
-128
-114
-119
-105
-67
-37
-11
19
32
20
4
-31
-104
-179
-239
-300
-349
-363
-369
-384
-382
-368
-372
-383
-373
-343
-319
-325
-353
-354
-313
-284
-307
-344
-354
-358
-363
-350
-337
-332
-311
-314
-344
-283
-147
-43
71
101
-188
-555
-563
-357
-296
-328
-310
-294
-296
-277
-256
-251
-235
-204
-176
-161
-142
-105
-65
-29
21
81
141
212
283
320
333
347
330
255
170
124
101
79
73
86
103
116
117
117
140
180
211
240
276
316
369
423
429
396
379
390
419
459
479
498
550
564
581
754
947
1045
1262
1403
1004
474
473
693
685
652
726
745
728
755
760
752
801
865
891
918
969
1024
1082
1146
1201
1269
1373
1488
1556
1564
1565
1581
1542
1435
1357
1329
1300
1283
1279
1270
1282
1287
1273
1292
1282
1273
1409
1232
318
-408
-126
132
-608
-1599
-2083
-2361
-2728
-3105
-3425
-3637
-3817
-4053
-4145
-4054
-4058
-4077
-4005
-4251
-4810
-5061
-4917
-4735
-4628
-4597
-4298
-3336
-2483
-2745
-3383
-3142
-2343
-1850
-1553
-1103
-654
-334
-36
257
497
725
946
1120
1258
1371
1429
1437
1434
1425
1408
1400
1400
1401
1413
1427
1429
1434
1446
1452
1466
1501
1512
1482
1481
1536
1567
1522
1457
1419
1380
1344
1344
1327
1278
1272
1253
1181
1231
1379
1431
1569
1794
1544
882
600
756
797
694
669
658
614
600
586
550
521
506
490
470
455
452
442
420
431
469
483
481
492
493
468
414
330
239
161
85
11
-49
-95
-115
-117
-148
-202
-226
-228
-249
-241
-169
-130
-172
-196
-182
-204
-223
-209
-246
-267
-159
-35
89
287
252
-195
-550
-495
-374
-396
-413
-400
-420
-433
-418
-405
-400
-405
-416
-404
-372
-354
-342
-308
-264
-229
-196
-152
-104
-79
-90
-123
-163
-218
-289
-350
-377
-384
-403
-426
-428
-420
-427
-432
-421
-415
-416
-411
-391
-343
-280
-190
-10
192
284
385
597
627
262
-218
-529
-687
-751
-747
-747
-780
-807
-817
-833
-854
-879
-913
-942
-953
-969
-998
-1006
-980
-931
-862
-763
-644
-526
-425
-348
-292
-254
-240
-248
-261
-266
-272
-281
-284
-284
-281
-261
-242
-251
-262
-251
-235
-220
-197
-171
-150
-136
-124
-100
-67
-49
-45
-31
-9
22
60
92
124
182
254
290
283
278
290
315
355
388
416
464
480
475
600
807
972
1229
1418
1081
511
419
673
769
771
861
933
953
1002
1074
1127
1168
1209
1262
1330
1395
1470
1571
1613
1539
1450
1422
1423
1442
1376
1086
801
887
1223
1438
1514
1614
1740
1839
1910
1981
2068
2155
2259
2334
2114
1445
643
33
-443
-900
-1276
-1538
-1849
-2316
-2634
-2638
-2766
-3057
-2969
-2735
-2835
-2725
-2117
-1624
-1192
-435
113
221
562
1211
1669
1975
2277
2522
2805
2832
2017
684
-308
-856
-1331
-1753
-1955
-2039
-2220
-2179
-1349
-42
945
1554
2070
2535
3007
3171
2413
1039
-46
-735
-1341
-1800
-2085
-2349
-2565
-2689
-2821
-2976
-3078
-3161
-3288
-3393
-3422
-3458
-3536
-3610
-3734
-3898
-3952
-4010
-4222
-4239
-4016
-4189
-4399
-3389
-1639
-913
-1229
-1467
-1691
-2129
-1922
-793
192
473
801
1475
1428
325
-485
-518
-625
-560
285
1043
1062
1018
1310
1630
1905
2302
2685
2755
2646
2776
3101
3284
3323
3348
3325
3280
3270
3216
3124
3103
3095
3052
3078
3032
2691
2366
2413
2514
2340
2136
2120
2168
2189
2185
2143
2070
1991
1938
1898
1822
1785
1716
1339
924
1018
1366
1544
1784
1924
1395
697
754
910
-330
-2580
-3690
-2973
-1949
-1544
-1276
-977
-826
-689
-719
-974
-891
-736
-1488
-2762
-3590
-4043
-4067
-3288
-2344
-1925
-1692
-1391
-1231
-1169
-1077
-1006
-956
-880
-802
-725
-648
-601
-579
-536
-466
-413
-388
-350
-279
-216
-193
-199
-213
-221
-223
-211
-193
-196
-184
-139
-147
-170
-58
92
194
390
471
83
-368
-355
-172
-183
-219
-169
-154
-164
-134
-97
-93
-108
-94
-41
-11
-23
-2
58
88
112
175
220
233
277
328
319
279
251
208
130
50
9
3
-11
-35
-31
-1
11
5
18
65
112
133
178
285
394
483
627
791
892
1031
1247
1272
926
408
10
-172
-215
-227
-239
-240
-249
-263
-262
-291
-356
-378
-366
-391
-437
-462
-480
-481
-442
-388
-323
-217
-91
2
72
139
174
167
155
149
129
105
100
105
108
113
118
116
115
123
132
126
118
122
120
96
75
87
114
115
101
115
159
191
183
154
132
121
117
126
129
128
147
146
116
169
297
407
548
613
311
-133
-196
12
79
43
70
84
49
35
39
35
39
47
49
57
69
71
80
117
155
175
213
282
334
349
358
362
340
295
238
166
96
52
28
12
14
16
-1
-12
6
16
-42
-203
-425
-608
-738
-897
-1025
-973
-837
-818
-844
-767
-664
-584
-481
-433
-411
-229
-1
147
405
536
76
-487
-456
-188
-178
-218
-149
-124
-134
-101
-73
-66
-45
-21
-9
14
48
67
86
128
174
217
284
357
391
391
387
365
295
198
118
62
11
-28
-44
-47
-63
-105
-130
-102
-74
-87
-90
-67
-46
-1
52
41
-10
-37
-69
-92
-52
-32
-65
-50
-44
-99
-11
199
303
430
561
249
-315
-433
-206
-161
-220
-115
58
152
164
134
122
142
146
149
185
206
185
167
167
177
210
261
302
326
344
346
303
211
110
31
-28
-71
-106
-139
-157
-149
-133
-106
-53
34
221
515
747
931
1406
2023
1951
977
-23
-424
-511
-596
-629
-611
-624
-654
-674
-686
-694
-722
-772
-806
-827
-860
-895
-899
-835
-717
-605
-486
-300
-107
-7
43
107
123
77
63
94
98
69
57
66
75
76
72
76
90
89
79
110
178
224
249
312
373
389
499
742
927
1094
1282
985
68
-644
-689
-497
-326
-135
-52
-101
-129
-142
-186
-211
-224
-258
-282
-278
-266
-253
-239
-205
-139
-69
-20
31
99
158
177
161
152
160
158
137
113
82
52
32
5
-21
-25
-25
-42
-49
-28
-11
-26
-53
-56
-35
-29
-51
-61
-42
-37
-54
-58
-47
-49
-60
-62
-55
-48
-59
-95
-103
-60
-31
-58
-70
-7
65
66
29
15
5
-13
-8
4
2
14
17
1
55
177
302
443
438
82
-301
-289
-100
-67
-91
-66
-68
-81
-56
-35
-25
-6
3
8
27
29
11
32
84
105
108
141
195
234
239
218
202
193
155
89
31
-8
-44
-76
-96
-99
-86
-75
-84
-92
-74
-41
-20
-21
-28
-9
26
29
-6
-37
-51
-59
-49
-41
-52
-36
-10
-37
-32
83
202
297
370
186
-238
-420
-248
-126
-166
-160
-103
-90
-93
-87
-94
-96
-77
-56
-43
-21
15
45
65
92
129
184
254
291
273
253
254
240
186
101
14
-42
-70
-92
-104
-110
-123
-137
-148
-161
-149
-112
-94
-93
-70
-34
-20
-40
-94
-154
-169
-143
-137
-152
-117
-75
-115
-108
47
170
293
574
581
11
-460
-367
-184
-210
-235
-213
-211
-186
-163
-170
-153
-126
-126
-115
-73
-41
-40
-37
11
100
175
219
265
320
359
351
287
197
115
46
-13
-57
-88
-99
-81
-69
-100
-132
-116
-68
-22
7
45
159
329
452
554
720
871
977
1213
1522
1465
875
171
-241
-382
-434
-470
-478
-449
-427
-469
-538
-564
-569
-598
-637
-668
-702
-737
-764
-780
-766
-712
-636
-533
-374
-193
-63
19
94
145
150
143
137
113
96
114
131
114
99
118
142
135
115
116
133
138
114
82
79
97
87
57
71
140
199
199
169
154
139
115
125
141
112
110
139
104
107
238
357
560
924
891
228
-273
-194
-56
-112
-126
-89
-110
-126
-99
-74
-72
-85
-83
-66
-62
-56
-28
-16
-11
42
110
150
192
221
197
185
208
179
99
41
-3
-61
-103
-120
-139
-162
-176
-181
-169
-133
-100
-90
-77
-43
-16
-12
-31
-67
-92
-107
-126
-116
-90
-117
-115
-15
-14
-211
-448
-689
-929
-925
-621
-307
-141
-49
-5
-1
15
40
47
49
54
73
110
123
98
114
207
314
403
498
597
667
696
682
610
483
343
210
72
-41
-95
-132
-175
-188
-177
-171
-168
-168
-181
-190
-169
-131
-123
-153
-147
-91
-72
-111
-139
-143
-157
-167
-158
-162
-168
-144
-142
-162
-98
16
81
163
181
-90
-408
-374
-168
-126
-158
-124
-91
-89
-85
-85
-88
-73
-54
-44
-41
-36
-23
0
26
57
102
153
190
210
223
227
214
187
143
87
44
24
8
-7
-8
-8
-27
-45
-40
-20
11
41
51
71
141
211
215
204
256
348
420
523
688
799
868
1115
1471
1485
978
309
-108
-212
-241
-360
-439
-382
-373
-488
-549
-502
-466
-477
-501
-526
-538
-549
-589
-632
-622
-568
-499
-382
-217
-75
31
151
253
285
290
292
259
229
255
279
254
240
268
302
317
303
275
299
350
326
307
355
269
28
-54
76
178
155
122
236
323
-69
-833
-1281
-1128
-720
-584
-876
-950
-356
67
-364
-860
-716
-402
-335
-321
-262
-222
-177
-128
-98
-56
-17
1
39
94
114
121
180
263
310
360
451
516
527
557
586
513
389
286
172
153
176
-203
-897
-1105
-730
-484
-531
-497
-354
-271
-213
-131
-50
37
108
104
53
34
36
33
48
68
87
130
131
102
215
397
511
730
896
519
-79
-181
24
44
-9
26
40
22
26
25
33
59
66
66
98
164
232
266
273
292
310
317
360
432
455
418
363
284
183
100
38
-32
-96
-130
-138
-134
-140
-163
-180
-175
-165
-167
-171
-155
-121
-88
-64
-54
-73
-107
-120
-116
-132
-149
-117
-112
-163
-101
58
140
309
589
443
-142
-418
-245
-149
-207
-196
-159
-163
-156
-147
-148
-126
-104
-108
-100
-68
-38
-5
33
57
83
131
177
196
208
216
190
133
68
-8
-85
-123
-126
-146
-175
-171
-173
-192
-170
-129
-107
-35
68
141
329
643
827
956
1248
1346
911
303
-104
-354
-476
-469
-465
-495
-486
-466
-474
-482
-490
-516
-547
-578
-604
-613
-604
-576
-521
-432
-314
-188
-82
0
74
128
138
119
102
77
42
29
46
53
39
38
54
60
52
45
45
49
49
43
45
58
57
42
34
28
20
30
43
34
37
79
117
104
57
26
11
-15
-14
7
-23
-11
105
45
-287
-516
-575
-767
-943
-772
-434
-202
-40
73
89
80
102
114
109
120
146
173
200
240
302
379
456
535
622
707
781
834
855
831
756
644
524
400
271
166
95
36
-7
-26
-34
-30
-21
-29
-35
-18
-7
-6
6
29
95
230
363
465
619
796
892
1010
1271
1373
956
240
-257
-424
-486
-529
-527
-529
-567
-603
-619
-639
-674
-713
-756
-801
-840
-878
-918
-936
-918
-872
-790
-663
-511
-351
-199
-90
-29
13
34
27
13
4
5
24
36
36
53
70
55
48
84
111
83
38
31
40
25
16
20
-1
-12
36
104
141
135
99
65
41
37
55
54
46
62
36
33
186
366
527
779
754
164
-349
-278
-77
-104
-147
-127
-147
-153
-117
-123
-156
-140
-108
-114
-122
-106
-91
-67
-23
13
51
126
201
237
253
254
219
163
94
9
-59
-86
-105
-124
-117
-103
-110
-109
-73
-28
4
32
66
110
164
198
170
113
90
79
64
85
67
0
66
115
-163
-442
-307
29
373
603
329
-248
-381
-126
-43
-97
-48
9
7
23
