# session 59
-21
-32
-46
-51
-32
-2
-2
-24
-12
46
90
92
76
49
21
8
4
12
22
16
43
76
31
52
234
374
527
812
714
51
-357
-185
-37
-104
-101
-60
-82
-77
-63
-93
-100
-70
-54
-46
-32
-26
-15
28
96
165
227
291
347
371
375
358
273
128
1
-70
-118
-165
-199
-216
-231
-241
-229
-212
-220
-222
-180
-140
-159
-189
-156
-78
-23
-20
-50
-77
-83
-85
-85
-67
-66
-87
-69
-62
-109
-40
150
269
460
737
548
-114
-443
-272
-153
-196
-178
-139
-148
-146
-131
-126
-108
-75
-52
-40
-24
4
44
93
143
191
250
321
374
401
407
372
291
203
130
53
-31
-79
-78
-74
-94
-112
-102
-83
-71
-24
73
190
369
626
869
1138
1520
1728
1401
705
82
-288
-446
-478
-482
-506
-535
-556
-568
-576
-596
-629
-656
-684
-724
-762
-780
-768
-719
-621
-473
-304
-152
-29
59
101
105
91
67
43
27
17
8
-3
-14
-18
-12
-8
-9
-12
-9
-1
-7
-29
-25
1
0
-24
-31
-24
-25
-28
-27
-35
-51
-49
-34
-41
-59
-51
-13
37
75
77
51
31
26
26
36
46
44
57
64
26
39
158
293
486
686
496
-49
-315
-165
-47
-69
-61
-39
-45
-33
-18
-17
-10
-4
-8
0
17
30
44
67
106
152
188
228
287
329
331
318
289
230
166
112
52
1
-26
-45
-62
-60
-40
-35
-61
-71
-23
40
83
132
199
304
500
706
822
963
1130
1020
572
113
-172
-324
-364
-335
-332
-364
-385
-389
-401
-425
-445
-461
-491
-528
-557
-580
-590
-574
-535
-472
-382
-273
-162
-62
15
63
72
42
5
-14
-33
-65
-87
-84
-74
-75
-78
-71
-53
-44
-55
-66
-58
-48
-40
-25
-16
-16
-14
-18
-29
-31
-21
-17
-21
-13
33
98
122
90
53
40
32
35
55
50
32
61
55
-14
64
275
406
614
864
572
-137
-400
-193
-104
-147
-127
-126
-141
-114
-106
-111
-84
-67
-64
-46
-31
-16
26
70
112
177
244
303
374
427
430
403
343
244
152
86
15
-48
-79
-104
-131
-134
-114
-115
-152
-169
-126
-93
-121
-142
-97
-29
5
-6
-42
-74
-96
-113
-108
-91
-92
-76
-38
-63
-81
67
247
356
573
688
267
-300
-362
-158
-143
-177
-110
-100
-163
-161
-115
-118
-129
-99
-88
-101
-74
-42
-47
-14
67
129
198
289
332
324
312
258
137
23
-45
-103
-168
-216
-234
-237
-252
-267
-255
-230
-222
-214
-181
-157
-159
-147
-97
-45
-20
-26
-55
-81
-95
-107
-101
-86
-90
-65
-23
-60
-59
104
243
386
714
770
191
-328
-257
-83
-125
-131
-68
-77
-98
-77
-63
-51
-27
-29
-48
-25
40
81
81
99
163
243
317
371
385
372
346
283
191
106
31
-42
-105
-138
-123
-101
-128
-146
-109
-81
-37
81
192
301
545
845
1077
1377
1685
1567
923
210
-221
-415
-488
-484
-470
-494
-522
-529
-543
-574
-600
-628
-670
-719
-766
-802
-809
-784
-720
-603
-442
-273
-121
4
81
111
116
103
72
45
33
27
25
20
12
13
15
15
30
49
44
22
7
4
10
19
22
25
19
-7
-18
18
44
4
-39
-20
3
-16
-13
40
71
68
73
64
23
5
28
42
26
24
58
58
21
65
181
311
547
726
442
-99
-272
-109
-45
-92
-82
-56
-53
-45
-43
-42
-21
-7
-6
9
29
40
68
117
148
172
231
299
326
330
337
317
261
204
138
53
-15
-46
-75
-108
-114
-104
-111
-122
-115
-110
-100
-54
-6
25
93
205
343
512
644
705
793
824
573
142
-159
-272
-309
-315
-310
-317
-328
-329
-334
-355
-381
-400
-423
-464
-513
-547
-570
-583
-572
-520
-423
-294
-156
-21
90
154
170
158
123
76
47
41
31
13
6
7
2
-3
0
-5
-15
-21
-28
-36
-35
-32
-34
-35
-38
-47
-49
-33
-20
-29
-34
7
74
100
82
73
76
52
22
32
51
49
62
59
16
68
222
349
607
943
735
2
-365
-185
-77
-153
-146
-110
-137
-148
-134
-127
-111
-93
-100
-101
-75
-38
0
44
85
132
209
291
343
374
382
351
294
215
106
2
-60
-103
-160
-203
-203
-197
-209
-221
-225
-209
-162
-136
-148
-128
-68
-24
3
10
-28
-75
-92
-87
-65
-56
-72
-45
-9
-63
-63
123
298
414
603
533
-7
-402
-288
-137
-185
-189
-140
-153
-160
-130
-133
-151
-129
-95
-87
-76
-43
-19
12
86
168
233
308
371
383
368
336
247
114
0
-83
-151
-187
-191
-202
-223
-228
-207
-174
-158
-161
-137
-88
-72
-78
-43
27
85
113
109
107
153
229
318
455
601
708
915
1309
1581
1321
610
-47
-333
-371
-381
-408
-411
-396
-398
-411
-412
-410
-426
-453
-485
-523
-547
-559
-588
-619
-609
-564
-487
-366
-228
-101
22
120
156
142
113
83
52
24
2
-10
-9
-9
-14
-5
11
6
2
24
29
13
24
39
18
15
66
105
92
61
37
20
18
38
46
23
30
66
47
47
156
249
366
636
665
163
-282
-219
-44
-53
-74
-46
-40
-37
-36
-52
-48
-25
-14
-14
-8
14
50
82
109
153
217
279
329
367
385
375
324
236
131
35
-45
-105
-136
-144
-157
-174
-168
-159
-174
-177
-142
-104
-85
-81
-74
-48
-15
-11
-38
-74
-107
-127
-126
-117
-122
-122
-92
-74
-88
-39
68
162
327
464
220
-252
-388
-204
-114
-145
-143
-133
-139
-126
-117
-124
-117
-97
-85
-80
-57
-15
18
41
97
178
231
264
310
339
335
312
253
153
70
28
-19
-72
-94
-93
-98
-106
-111
-111
-104
-94
-84
-72
-70
-73
-44
4
16
-11
-41
-71
-104
-119
-103
-92
-99
-87
-82
-116
-87
28
119
250
431
311
-132
-369
-257
-168
-200
-192
-156
-159
-167
-157
-138
-112
-95
-90
-71
-38
-15
11
67
128
174
229
302
363
400
416
395
324
228
141
71
23
-6
-28
-43
-49
-53
-60
-72
-92
-88
-35
16
40
111
261
437
642
855
978
1101
1390
1560
1158
376
-189
-382
-435
-468
-478
-479
-473
-470
-490
-519
-538
-560
-602
-655
-698
-731
-771
-811
-810
-746
-643
-519
-359
-183
-41
61
134
151
115
75
55
35
4
-10
8
30
29
13
2
11
35
40
23
8
-7
-20
-10
7
-2
-26
-45
-41
-23
-25
-43
-15
67
131
122
78
61
64
59
68
72
49
68
96
43
61
236
379
577
914
836
158
-308
-190
-39
-84
-86
-54
-94
-127
-115
-108
-108
-85
-54
-55
-67
-37
14
53
103
166
227
295
346
347
330
315
276
212
135
42
-42
-89
-116
-141
-153
-155
-157
-151
-138
-136
-122
-68
-9
38
122
270
456
650
805
932
1154
1439
1458
1006
334
-168
-380
-431
-455
-477
-480
-481
-497
-513
-532
-579
-623
-642
-676
-728
-761
-784
-795
-742
-641
-540
-404
-228
-83
13
86
118
95
47
11
-1
10
27
35
30
29
36
33
21
24
37
29
10
16
33
21
13
37
43
12
5
36
61
57
35
37
91
135
108
67
66
59
21
1
7
2
-2
5
-14
-1
109
239
372
520
420
-9
-297
-192
-34
-25
-30
-5
-4
-11
-9
-3
10
23
27
26
37
70
103
115
127
174
245
295
314
328
345
340
299
238
174
103
30
-30
-71
-103
-120
-132
-146
-138
-110
-105
-120
-113
-100
-107
-109
-86
-57
-54
-81
-109
-125
-149
-170
-164
-157
-171
-151
-113
-136
-134
-12
104
172
267
183
-192
-435
-311
-154
-154
-167
-149
-148
-135
-111
-109
-109
-88
-66
-58
-43
-9
29
67
116
177
244
313
374
417
438
415
330
224
139
43
-73
-127
-103
-106
-164
-182
-141
-131
-160
-152
-104
-79
-85
-83
-42
47
129
166
215
305
409
543
684
814
1076
1451
1486
901
131
-288
-373
-388
-407
-409
-409
-408
-407
-424
-446
-464
-500
-553
-597
-627
-657
-696
-735
-742
-685
-577
-448
-306
-148
1
108
158
156
129
105
81
63
67
70
53
53
80
81
60
68
87
86
90
91
63
36
36
44
50
56
67
103
141
123
81
88
93
39
10
32
21
16
56
35
6
105
199
295
617
797
346
-216
-244
-73
-102
-133
-79
-83
-99
-63
-51
-60
-35
-5
2
13
33
54
85
128
179
233
282
322
360
386
369
310
244
176
93
16
-32
-68
-100
-115
-117
-122
-138
-152
-149
-135
-129
-129
-120
-103
-79
-58
-65
-99
-121
-132
-150
-160
-149
-141
-132
-111
-124
-143
-58
79
141
184
165
-90
-375
-346
-155
-99
-111
-85
-77
-94
-85
-68
-70
-78
-73
-58
-43
-26
-2
34
77
121
168
234
306
346
351
338
294
209
111
28
-44
-102
-138
-158
-183
-200
-192
-184
-198
-209
-191
-167
-163
-166
-143
-91
-45
-50
-89
-109
-105
-105
-99
-78
-84
-96
-52
-42
-90
2
188
298
541
821
509
-197
-404
-155
-84
-166
-146
-108
-118
-129
-131
-116
-96
-99
-97
-68
-40
-23
4
58
118
172
251
354
405
395
393
371
268
149
82
18
-64
-114
-124
-128
-131
-135
-140
-128
-98
-44
47
153
288
538
859
1102
1313
1550
1530
1010
284
-196
-368
-423
-459
-476
-482
-481
-486
-507
-533
-567
-616
-662
-697
-747
-803
-828
-817
-774
-682
-531
-339
-149
20
179
298
418
672
922
947
1112
1723
2041
1409
472
-9
-209
-397
-473
-450
-460
-494
-505
-508
-539
-599
-649
-688
-747
-803
-798
-734
-643
-514
-321
-115
23
100
187
267
277
239
203
166
144
150
141
120
122
118
89
86
105
95
72
75
80
74
82
91
79
71
85
96
88
79
86
99
95
78
77
95
102
87
75
71
55
47
66
76
61
50
56
66
63
42
34
49
45
20
23
26
-10
-33
-3
23
-1
-44
-60
-48
-36
-34
-26
-7
24
56
65
42
13
0
0
-9
-27
-17
12
-7
-21
73
204
313
441
387
0
-317
-249
-94
-101
-125
-99
-101
-113
-103
-101
-106
-92
-72
-65
-59
-42
-18
9
41
74
107
146
180
206
221
213
185
152
111
59
7
-41
-83
-122
-156
-176
-182
-183
-169
-150
-165
-188
-156
-95
-81
-97
-72
-15
9
-20
-58
-74
-86
-94
-81
-78
-100
-82
-46
-75
-57
99
231
322
457
328
-163
-434
-249
-70
-78
-70
-50
-72
-55
-26
-49
-58
-30
-31
-41
0
33
19
37
119
201
275
362
431
461
467
434
343
224
120
33
-41
-95
-125
-134
-134
-136
-130
-123
-137
-138
-101
-85
-99
-66
8
41
25
-21
-71
-82
-70
-82
-105
-112
-95
-78
-120
-141
-1
168
248
383
423
66
-356
-377
-202
-152
-165
-148
-141
-158
-175
-154
-115
-120
-144
-127
-85
-48
-29
-16
33
121
201
267
341
393
391
354
291
190
77
-6
-63
-120
-169
-193
-198
-190
-180
-178
-183
-170
-128
-103
-117
-112
-50
10
21
5
-22
-53
-72
-73
-61
-69
-95
-74
-50
-95
-47
136
209
297
608
613
24
-402
-268
-114
-157
-142
-109
-157
-161
-114
-105
-103
-86
-81
-64
-28
-8
13
66
124
180
253
332
384
398
383
342
267
166
71
-6
-69
-110
-132
-151
-159
-146
-135
-138
-119
-70
-18
48
137
242
432
731
963
1085
1336
1689
1694
1162
442
-74
-307
-386
-418
-435
-448
-456
-459
-482
-530
-560
-565
-590
-643
-691
-719
-737
-748
-739
-677
-542
-376
-241
-130
-19
51
65
71
70
40
16
24
27
-3
-28
-17
3
5
1
1
0
-4
-16
-28
-21
-2
0
-7
-13
-29
-40
-22
-4
-17
-27
10
72
96
71
43
32
16
-4
-3
3
3
18
16
-19
21
151
275
449
587
337
-172
-358
-199
-118
-151
-131
-105
-122
-129
-122
-107
-76
-62
-74
-69
-43
-20
5
43
98
168
232
282
327
353
355
350
317
239
165
107
35
-34
-68
-79
-83
-89
-105
-112
-97
-75
-50
-13
11
11
26
59
63
28
-5
-22
-35
-41
-38
-41
-35
-5
-6
-41
-5
98
191
310
343
59
-306
-327
-140
-77
-91
-65
-53
-62
-56
-44
-33
-21
-16
-9
9
30
47
70
107
151
202
263
319
349
353
343
314
253
158
56
-8
-31
-67
-121
-140
-124
-120
-130
-134
-128
-105
-80
-85
-95
-58
7
45
44
42
72
121
175
289
452
535
611
931
1336
1287
680
17
-314
-394
-416
-432
-432
-427
-430
-441
-456
-476
-508
-538
-554
-576
-623
-678
-715
-727
-716
-674
-590
-459
-305
-168
-46
73
154
168
126
55
3
-5
-7
-26
-38
-41
-44
-43
-45
-47
-42
-52
-69
-59
-49
-71
-68
-6
60
82
62
24
9
1
-27
-28
-2
-9
-25
-29
-29
69
235
359
556
711
384
-195
-332
-112
-34
-70
-48
-37
-47
-27
-16
-20
-2
12
1
-7
12
40
61
93
156
234
306
377
444
469
446
404
333
218
105
41
5
-31
-65
-83
-79
-63
-53
-58
-55
-33
-21
-23
9
79
126
124
93
52
26
18
15
30
38
16
7
-12
-42
58
215
311
577
870
567
-98
-288
-92
-63
-134
-105
-81
-93
-87
-88
-94
-83
-73
-63
-41
-18
15
58
89
123
186
251
289
311
323
301
234
143
48
-41
-111
-155
-175
-188
-211
-229
-233
-247
-263
-253
-233
-236
-246
-233
-203
-182
-189
-225
-267
-295
-315
-330
-339
-356
-360
-347
-365
-385
-300
-166
-106
