# session 37
-34
-62
-90
-110
-111
-91
-61
-55
-69
-36
58
130
139
128
123
127
135
129
131
166
182
169
182
188
172
254
417
562
755
843
495
-19
-137
30
88
58
61
56
48
70
87
93
103
113
124
138
148
149
150
158
172
186
204
237
280
321
352
369
380
385
357
283
206
154
99
43
21
21
11
7
2
-16
2
49
-3
-164
-272
-265
-242
-260
-281
-279
-280
-293
-285
-245
-221
-241
-278
-307
-325
-338
-338
-321
-303
-308
-326
-319
-301
-323
-322
-217
-82
54
216
177
-176
-430
-327
-163
-139
-130
-102
-104
-101
-83
-75
-73
-68
-54
-25
-2
6
20
47
67
92
131
168
198
242
297
344
373
378
355
308
245
178
114
62
22
-9
-33
-47
-56
-70
-81
-75
-62
-61
-63
-55
-60
-78
-64
-21
-6
-26
-18
30
69
82
80
49
0
-5
26
11
-32
-24
1
1
21
30
1
52
184
311
519
667
344
-228
-396
-205
-123
-157
-136
-113
-123
-116
-111
-121
-102
-51
0
47
85
102
114
129
137
151
187
238
301
370
421
459
491
502
501
494
446
348
264
221
169
93
43
23
-1
-23
-38
-79
-121
-119
-116
-166
-220
-233
-238
-264
-301
-331
-327
-289
-276
-323
-392
-447
-487
-518
-536
-523
-494
-523
-576
-549
-549
-672
-673
-468
-311
-140
93
-99
-721
-984
-722
-513
-481
-415
-359
-354
-321
-285
-258
-205
-178
-178
-124
-39
15
61
114
167
255
369
450
499
570
655
706
723
722
697
624
495
363
305
302
269
214
205
238
265
273
263
256
287
321
311
308
347
380
396
417
428
456
578
738
794
764
771
826
867
902
952
971
918
818
702
565
357
139
104
206
253
354
452
84
-588
-834
-674
-627
-698
-710
-722
-739
-730
-745
-759
-730
-703
-690
-669
-660
-642
-578
-518
-504
-477
-396
-299
-215
-145
-93
-35
28
16
-80
-161
-199
-268
-379
-448
-414
-344
-368
-441
-426
-365
-344
-297
-217
-190
-154
-50
-8
-57
-63
-39
-72
-96
-45
27
76
83
30
-36
-51
-30
-25
-26
-7
-3
-24
-1
18
-25
37
234
358
510
739
557
-45
-317
-128
-30
-95
-83
-52
-69
-54
-25
-21
-7
13
16
33
64
75
78
104
138
178
246
321
369
403
446
484
492
467
417
342
236
131
65
31
8
-3
-25
-53
-51
-39
-45
-39
-22
-26
-24
-16
-39
-52
-21
-7
-43
-57
-4
70
98
80
57
34
11
10
15
10
27
23
-52
-91
-70
-92
-65
76
177
378
744
658
-40
-489
-354
-212
-257
-248
-207
-215
-209
-182
-160
-136
-122
-119
-99
-69
-52
-42
-23
8
51
102
143
184
246
300
317
346
386
358
267
198
140
52
-19
-35
-40
-66
-98
-121
-125
-115
-114
-116
-109
-118
-131
-115
-104
-128
-137
-108
-102
-134
-131
-52
19
9
-39
-70
-103
-132
-131
-121
-118
-114
-109
-93
-75
-108
-122
-26
83
172
343
370
10
-352
-323
-166
-156
-172
-143
-135
-131
-113
-109
-111
-94
-70
-62
-65
-53
-15
12
16
30
65
107
154
201
231
257
289
305
292
255
188
94
11
-34
-56
-81
-112
-128
-113
-90
-96
-111
-98
-72
-60
-60
-67
-77
-81
-88
-92
-62
-22
-25
-31
11
58
58
36
26
22
16
12
18
29
31
16
12
20
-10
-34
35
139
245
404
400
31
-322
-286
-114
-82
-84
-56
-61
-61
-29
-16
-16
-10
-25
-39
-16
5
-4
11
64
96
111
155
211
248
279
316
347
355
333
288
237
181
119
54
-6
-42
-54
-66
-85
-90
-76
-66
-74
-84
-88
-104
-120
-114
-117
-149
-159
-129
-109
-113
-112
-91
-59
-45
-59
-81
-105
-125
-119
-99
-92
-82
-77
-84
-61
-45
-75
-20
138
251
406
587
379
-147
-350
-184
-110
-150
-126
-105
-125
-125
-119
-124
-124
-126
-132
-132
-122
-92
-65
-70
-72
-36
15
64
127
195
247
283
312
322
286
205
126
69
13
-47
-83
-92
-94
-103
-111
-102
-87
-84
-78
-58
-49
-54
-43
-31
-52
-79
-78
-75
-101
-131
-132
-85
-17
6
-26
-56
-66
-79
-91
-77
-40
-18
-30
-14
22
-14
-9
168
343
521
877
940
304
-289
-227
-32
-90
-122
-64
-68
-83
-64
-75
-98
-82
-49
-40
-51
-53
-43
-31
-12
14
47
91
153
228
290
315
328
343
321
249
168
93
23
-31
-73
-111
-133
-138
-148
-168
-176
-168
-156
-142
-130
-122
-114
-108
-117
-140
-141
-111
-100
-124
-119
-53
13
27
9
-19
-48
-49
-35
-44
-49
-45
-72
-74
-30
-51
-68
75
230
352
600
623
88
-405
-348
-168
-198
-227
-188
-184
-189
-188
-194
-177
-149
-146
-143
-118
-89
-64
-49
-41
-14
31
75
131
207
277
322
351
359
322
252
187
126
44
-35
-77
-103
-133
-154
-157
-145
-124
-110
-107
-98
-79
-59
-47
-51
-65
-57
-22
-13
-38
-21
60
114
95
62
45
35
42
49
27
19
33
26
35
67
34
12
120
256
435
727
728
203
-249
-220
-97
-126
-138
-121
-143
-137
-106
-106
-104
-90
-98
-102
-83
-67
-55
-35
-25
-9
39
91
115
145
207
262
270
255
241
205
134
61
10
-35
-75
-90
-91
-94
-97
-96
-92
-81
-70
-75
-86
-82
-78
-100
-124
-123
-106
-93
-96
-98
-68
-22
-17
-47
-74
-95
-114
-125
-131
-135
-134
-147
-158
-130
-117
-142
-91
48
168
275
279
-2
-334
-339
-163
-99
-100
-85
-94
-98
-71
-59
-71
-76
-70
-52
-29
-14
0
22
41
60
93
133
172
211
250
276
286
286
274
243
188
118
54
3
-37
-62
-71
-67
-57
-48
-44
-35
-17
-5
0
13
24
15
19
66
142
251
384
506
671
893
993
935
885
761
434
157
53
-127
-351
-364
-269
-272
-307
-310
-327
-340
-343
-381
-428
-452
-491
-552
-596
-611
-614
-606
-567
-489
-383
-263
-126
12
106
153
188
197
157
110
82
45
4
2
17
9
7
34
43
21
15
38
60
65
57
49
44
42
47
52
47
31
13
1
-3
-12
-21
-13
-17
-63
-93
-70
-57
-97
-141
-136
-69
9
28
2
-3
-1
-30
-63
-60
-28
-10
-18
4
33
-24
-36
149
339
455
642
603
82
-342
-239
-55
-79
-87
-51
-76
-87
-73
-98
-111
-86
-83
-101
-103
-92
-75
-52
-38
-12
55
130
184
246
308
328
338
380
401
358
289
213
122
35
-36
-74
-54
-5
15
14
25
31
17
7
4
1
18
33
9
0
11
-22
-17
84
175
317
505
356
-112
-306
-142
-62
-115
-112
-108
-148
-159
-140
-132
-135
-145
-146
-127
-113
-115
-109
-86
-53
-18
18
65
125
175
201
209
200
155
80
7
-42
-76
-97
-103
-104
-114
-127
-122
-104
-97
-95
-84
-86
-103
-97
-80
-95
-124
-124
-117
-135
-153
-145
-138
-154
-158
-132
-117
-138
-160
-151
-137
-131
-126
-135
-150
-131
-97
-95
-103
-90
-61
-5
57
61
5
-35
-25
-9
-21
-25
-13
-16
-11
15
15
43
170
333
526
675
465
-55
-318
-184
-76
-124
-144
-124
-131
-132
-110
-94
-90
-79
-57
-38
-19
7
25
32
49
76
105
143
184
226
268
294
303
315
323
306
261
205
162
141
109
52
11
8
12
-2
-17
-10
7
2
-21
-31
-30
-34
-33
-21
3
49
105
151
191
232
304
443
559
608
792
1153
1277
909
356
-28
-211
-284
-308
-321
-331
-335
-339
-343
-345
-353
-367
-382
-401
-424
-450
-477
-504
-517
-510
-497
-479
-431
-340
-236
-150
-67
17
62
58
42
21
-21
-50
-49
-60
-94
-105
-89
-80
-83
-93
-105
-102
-86
-79
-82
-83
-77
-68
-58
-48
-39
-38
-44
-38
-9
10
0
1
46
94
104
91
69
39
25
45
69
78
81
72
58
66
63
43
92
203
314
458
479
139
-280
-323
-140
-81
-101
-84
-80
-85
-61
-45
-51
-50
-37
-26
-14
0
19
46
75
89
102
146
209
249
282
346
402
405
386
377
341
265
190
130
73
29
-4
-39
-69
-75
-71
-81
-97
-98
-91
-92
-99
-104
-104
-96
-100
-115
-90
-28
0
-13
-27
-46
-68
-65
-61
-73
-73
-75
-81
-52
-57
-117
-39
171
315
502
676
359
-267
-436
-189
-105
-180
-159
-113
-126
-129
-106
-102
-122
-129
-112
-98
-98
-100
-100
-89
-55
-16
17
73
156
215
248
285
297
248
172
100
19
-70
-139
-170
-177
-194
-213
-204
-192
-200
-200
-182
-165
-150
-141
-145
-137
-119
-128
-132
-75
10
51
48
34
11
-17
-29
-29
-36
-43
-54
-76
-72
-62
-103
-74
108
277
447
705
636
49
-371
-246
-73
-111
-120
-63
-52
-57
-50
-56
-63
-52
-30
-9
6
20
35
48
73
109
139
180
251
321
362
380
382
373
349
291
198
107
46
4
-36
-59
-61
-74
-91
-78
-64
-84
-85
-52
-60
-105
-105
-72
-83
-124
-127
-82
-43
-37
-46
-57
-71
-79
-77
-73
-62
-48
-47
-33
-11
-41
-40
87
196
294
561
659
202
-301
-305
-135
-143
-174
-145
-143
-159
-168
-174
-168
-158
-156
-149
-134
-113
-92
-90
-88
-59
-18
26
75
121
172
231
256
246
232
202
135
61
-12
-77
-100
-99
-129
-148
-113
-100
-137
-145
-111
-93
-87
-64
-51
-61
-68
-48
-23
-27
-32
5
43
23
-29
-62
-78
-90
-90
-78
-58
-45
-47
-27
4
-17
-15
101
218
327
524
524
101
-274
-221
-71
-79
-91
-51
-44
-49
-44
-49
-40
-18
-19
-33
-24
-2
19
38
55
72
95
117
149
197
238
255
262
266
257
221
150
64
-3
-41
-68
-88
-96
-94
-92
-94
-98
-97
-87
-70
-67
-87
-110
-116
-106
-88
-75
-71
-45
8
33
10
-16
-26
-34
-37
-36
-37
-34
-41
-51
-23
-7
-50
-21
124
228
327
449
268
-203
-402
-223
-115
-176
-187
-145
-142
-152
-141
-123
-111
-104
-86
-61
-43
-24
9
39
57
87
140
203
262
319
377
424
447
452
425
352
262
198
156
114
93
93
34
-142
-354
-461
-435
-378
-385
-419
-393
-294
-154
-2
155
369
637
831
927
912
562
-22
-268
-143
-180
-388
-396
-279
-258
-276
-265
-261
-258
-256
-282
-313
-322
-340
-383
-417
-432
-446
-434
-359
-244
-126
-19
81
193
302
350
329
294
250
185
129
107
98
87
69
43
20
13
14
15
21
33
38
29
22
26
24
7
-6
-5
-6
-17
-25
-23
-22
-26
-26
-21
-15
-8
-3
-6
-15
-34
-54
-48
-23
-28
-57
-41
27
77
76
41
1
-15
-12
-27
-40
-31
-36
-41
-27
-68
-94
43
192
278
539
726
312
-286
-357
-166
-167
-212
-176
-168
-172
-155
-153
-138
-113
-122
-137
-112
-74
-58
-53
-33
5
44
80
132
206
276
323
345
347
339
322
286
221
136
51
-17
-64
-94
-110
-112
-112
-110
-91
-63
-52
-40
-6
26
46
101
200
312
483
721
912
1103
1461
1768
1569
894
213
-183
-348
-402
-403
-400
-431
-466
-467
-471
-501
-519
-522
-544
-573
-602
-637
-666
-682
-694
-685
-634
-550
-446
-328
-210
-106
-28
8
5
-13
-32
-52
-56
-46
-48
-52
-43
-37
-40
-35
-25
-14
1
11
9
5
8
20
28
20
19
35
42
33
34
43
41
32
33
41
45
35
17
10
16
19
10
6
27
68
100
99
59
9
-15
-14
-10
-3
-4
-24
-27
-20
-43
-26
87
217
380
549
408
-52
-307
-184
-57
-74
-83
-65
-64
-58
-45
-40
-38
-36
-29
-6
15
30
56
81
88
104
143
178
206
244
278
289
289
285
259
215
180
150
99
46
14
-10
-28
-30
-28
-27
-19
-12
4
38
70
109
168
240
395
654
845
968
1200
1322
964
342
-70
-221
-285
-313
-325
-357
-385
-387
-390
-407
-420
-436
-478
-527
-558
-580
-605
-623
-623
-603
-560
-493
-399
-284
-169
-73
-1
47
58
29
-4
-18
-32
-56
-61
-48
-46
-55
-56
-49
-45
-44
-39
-23
-5
3
6
15
23
21
20
28
33
27
24
30
34
34
30
20
14
23
27
-3
-44
-51
-31
-36
-74
-82
-23
40
44
15
-12
-35
-50
-59
-54
-20
-14
-55
-43
-6
-47
-13
186
354
511
706
521
-66
-353
-185
-84
-137
-114
-74
-97
-98
-74
-71
-67
-48
-31
-24
-26
-21
2
19
28
59
94
115
165
247
294
316
342
338
302
279
247
178
108
45
-20
-53
-49
-56
-80
-84
-69
-62
-57
-38
-15
5
54
164
287
405
616
904
1123
1321
1545
1474
906
217
-188
-343
-407
-436
-466
-491
-488
-486
-502
-512
-520
-552
-608
-657
-674
-687
-736
-797
-824
-812
-772
-701
-593
-446
-285
-146
-41
33
70
71
53
34
29
30
17
2
8
26
35
36
44
56
61
58
59
64
66
64
53
46
59
62
39
41
67
53
40
76
63
12
111
335
510
673
836
888
937
1034
946
756
763
742
395
2
-159
-216
-262
-266
-268
-299
-319
-317
-325
-354
-383
-392
-397
-432
-473
-468
-419
-345
-269
-254
-314
-352
-327
-295
-256
-196
-149
-105
-41
0
7
22
49
65
70
79
93
100
99
102
114
123
120
116
119
113
97
103
124
123
106
103
103
94
85
80
83
89
72
41
37
51
47
30
10
-23
-43
-25
-7
-21
-9
53
83
41
-1
-2
5
1
