# session 102
-10
11
12
2
21
54
53
51
103
148
149
182
265
323
344
373
407
416
391
338
267
181
105
61
21
-26
-37
-14
-10
-36
-47
-16
10
6
52
153
259
489
842
1093
1387
1918
2090
1384
390
-170
-370
-474
-500
-474
-468
-481
-496
-512
-519
-522
-547
-589
-610
-608
-619
-625
-583
-504
-411
-290
-157
-62
-4
40
47
17
-6
-18
-37
-45
-44
-60
-66
-42
-32
-39
-36
-35
-43
-37
-25
-23
-26
-38
-45
-32
-21
-24
-15
-4
-13
-35
-52
-50
-27
-19
-34
-46
-71
-111
-113
-86
-96
-107
-30
81
92
24
2
16
3
-5
10
-2
-22
-6
-10
-25
54
165
287
575
755
356
-225
-306
-115
-112
-162
-120
-114
-127
-92
-75
-92
-80
-49
-36
-27
0
38
76
114
156
207
269
329
357
357
358
346
303
251
193
122
70
34
-16
-47
-40
-41
-46
-28
-30
-54
-53
-53
-86
-102
-82
-84
-101
-67
-3
9
-29
-63
-75
-84
-107
-121
-108
-112
-119
-81
-79
-119
-50
85
212
463
598
213
-282
-307
-140
-154
-186
-139
-121
-113
-97
-107
-107
-87
-83
-71
-39
-36
-31
32
98
116
142
209
252
255
260
249
182
93
22
-45
-103
-119
-114
-127
-145
-143
-135
-141
-146
-131
-109
-116
-152
-161
-125
-107
-123
-99
-20
30
10
-22
-26
-37
-68
-61
-26
-45
-70
-22
-14
-76
-29
150
422
795
901
413
-157
-256
-144
-145
-157
-134
-140
-139
-129
-140
-128
-92
-77
-76
-71
-56
-12
50
101
143
192
241
268
258
235
223
193
121
36
-23
-55
-81
-114
-137
-133
-121
-126
-122
-90
-71
-102
-139
-142
-123
-103
-84
-65
-27
22
31
-11
-49
-61
-73
-83
-63
-46
-58
-45
-37
-87
-65
78
215
432
701
524
-80
-356
-174
-85
-158
-141
-92
-102
-106
-91
-79
-62
-51
-38
-8
9
19
65
130
183
236
288
329
362
365
328
276
207
107
18
-32
-59
-66
-73
-101
-116
-100
-99
-104
-89
-92
-123
-129
-103
-89
-109
-111
-40
37
24
-30
-48
-53
-73
-89
-92
-92
-92
-71
-63
-120
-115
59
261
464
671
531
-2
-317
-214
-126
-175
-181
-161
-151
-117
-110
-131
-108
-80
-98
-97
-46
-6
13
58
121
158
182
226
258
250
224
186
117
41
-9
-49
-85
-100
-109
-130
-142
-127
-114
-125
-133
-127
-133
-151
-155
-147
-161
-180
-136
-41
6
-26
-74
-88
-88
-108
-123
-94
-72
-89
-79
-75
-114
-55
131
360
673
843
471
-120
-295
-175
-164
-206
-183
-168
-167
-147
-139
-142
-124
-92
-73
-66
-48
-11
25
61
104
151
194
226
241
232
197
139
76
16
-32
-64
-84
-95
-99
-101
-88
-58
-22
39
130
261
516
859
1138
1450
1847
1857
1191
356
-125
-304
-372
-401
-436
-461
-446
-442
-473
-484
-472
-491
-549
-596
-602
-589
-584
-560
-477
-357
-246
-144
-45
35
92
119
104
70
45
27
13
13
15
8
4
0
-13
-22
-15
-7
-11
-22
-26
-24
-26
-35
-44
-45
-41
-42
-49
-46
-35
-37
-48
-51
-46
-46
-46
-37
-28
-37
-66
-93
-86
-60
-66
-89
-42
61
93
35
-11
-22
-37
-37
-18
-26
-41
-13
-17
-67
-4
141
243
455
693
466
-86
-288
-149
-106
-152
-141
-134
-132
-108
-109
-122
-110
-93
-78
-62
-55
-30
17
49
78
127
179
222
257
270
261
240
206
165
115
53
10
-1
-21
-55
-55
-37
-58
-81
-53
-26
-24
18
77
119
295
648
928
1146
1567
1876
1488
620
-48
-339
-447
-462
-434
-431
-448
-448
-445
-456
-467
-471
-491
-524
-534
-530
-526
-488
-426
-362
-265
-142
-53
7
54
55
31
18
-4
-36
-42
-33
-45
-63
-59
-42
-41
-46
-34
-26
-49
-63
-42
-27
-44
-55
-44
-43
-53
-49
-37
-40
-54
-53
-35
-31
-41
-41
-50
-76
-68
-29
-27
-30
27
85
68
23
18
19
-4
-10
0
-19
-18
24
9
-19
82
220
337
530
540
104
-307
-263
-105
-123
-133
-78
-80
-98
-74
-58
-65
-62
-46
-28
-3
25
52
85
130
190
257
313
348
368
371
364
340
285
206
126
59
18
-16
-54
-64
-56
-79
-101
-89
-81
-91
-93
-92
-93
-92
-90
-86
-75
-40
19
38
-9
-56
-75
-110
-125
-77
-61
-114
-107
-54
-100
-137
-20
157
379
584
388
-146
-377
-228
-161
-199
-157
-124
-145
-130
-97
-89
-88
-83
-71
-48
-20
15
59
100
144
200
266
326
353
343
318
270
180
80
13
-34
-74
-92
-104
-117
-110
-103
-115
-115
-91
-78
-98
-133
-137
-110
-116
-144
-101
-10
29
14
-19
-67
-90
-74
-68
-86
-100
-85
-50
-73
-141
-88
80
254
534
779
522
-62
-301
-184
-135
-173
-166
-160
-159
-130
-119
-123
-105
-83
-79
-70
-44
-11
24
68
117
163
194
217
241
252
234
188
121
47
-8
-41
-73
-103
-109
-104
-117
-119
-91
-82
-111
-123
-113
-127
-146
-129
-116
-128
-104
-30
20
8
-33
-72
-90
-87
-81
-76
-86
-98
-74
-74
-131
-89
80
263
548
778
470
-140
-317
-150
-145
-211
-151
-125
-177
-168
-113
-101
-120
-114
-79
-60
-56
-23
37
84
121
166
219
255
245
223
238
221
121
39
17
-28
-83
-69
-41
-59
-67
-35
18
99
191
327
601
921
1196
1558
1862
1621
868
167
-217
-394
-454
-452
-460
-488
-503
-500
-495
-500
-515
-543
-571
-589
-605
-610
-583
-525
-438
-311
-183
-88
-4
62
70
43
30
23
7
-4
-11
-27
-40
-31
-18
-23
-25
-9
-7
-24
-25
-8
-4
-18
-25
-18
-16
-26
-29
-18
-13
-22
-20
-8
-8
-11
-5
-6
-15
-30
-56
-74
-66
-61
-65
-37
32
86
70
10
-22
-18
-22
-28
-26
-37
-28
-4
-28
-18
92
199
379
664
609
81
-290
-214
-107
-146
-151
-117
-126
-134
-113
-109
-124
-120
-86
-58
-50
-33
9
51
84
133
196
238
253
266
275
264
233
186
129
71
21
-14
-32
-53
-81
-93
-86
-81
-85
-96
-107
-114
-116
-104
-93
-94
-56
39
106
127
167
226
357
616
840
1047
1545
2045
1808
914
128
-264
-433
-481
-488
-514
-517
-498
-507
-521
-511
-500
-505
-534
-583
-610
-606
-619
-637
-581
-453
-344
-271
-151
-2
60
36
28
28
-15
-42
-24
-44
-97
-84
-25
-10
-32
-55
-64
-41
-4
1
-12
-19
-27
-45
-71
-87
-66
-40
-59
-68
8
90
73
24
32
29
-28
-31
30
18
-39
1
56
4
-17
91
257
513
733
526
10
-223
-123
-63
-67
-36
-51
-83
-45
-19
-40
-13
36
31
32
79
109
111
136
182
223
261
295
319
329
312
277
256
227
158
90
53
16
-23
-36
-33
-42
-61
-75
-81
-87
-87
-71
-50
-38
-23
23
89
100
35
-19
-29
-43
-56
-43
-42
-69
-72
-47
-75
-143
-134
-42
101
306
347
20
-323
-319
-198
-198
-206
-185
-189
-163
-111
-115
-140
-122
-94
-84
-66
-43
-36
-7
51
79
89
145
211
219
204
193
144
55
-21
-64
-100
-140
-164
-165
-171
-191
-193
-178
-176
-194
-207
-205
-187
-156
-133
-107
-48
12
11
-24
-42
-53
-71
-74
-71
-89
-88
-41
-34
-80
-41
95
274
542
674
325
-186
-299
-141
-84
-95
-79
-79
-84
-73
-69
-61
-36
-17
-10
1
17
38
81
149
211
259
305
346
362
356
333
284
207
114
25
-35
-65
-90
-112
-108
-86
-36
56
139
260
534
849
1103
1445
1692
1345
549
-53
-294
-401
-456
-464
-481
-508
-518
-522
-525
-521
-527
-562
-603
-620
-635
-657
-639
-567
-477
-379
-261
-147
-56
13
40
22
3
-2
-18
-31
-24
-24
-30
-11
2
-12
-4
24
23
6
9
18
17
14
9
7
11
17
21
25
24
14
13
28
41
44
58
79
109
226
469
746
1035
1394
1625
1476
1173
1051
921
525
47
-265
-402
-431
-428
-437
-430
-417
-436
-458
-469
-504
-539
-552
-590
-652
-681
-683
-691
-682
-630
-556
-486
-395
-273
-181
-131
-54
27
39
37
78
96
76
83
101
94
103
120
91
65
97
125
106
94
107
97
72
74
88
86
82
80
58
34
39
53
37
-2
-29
-26
-4
17
21
38
94
136
104
39
10
10
-3
-21
-14
-3
-11
-22
-34
-23
44
148
337
578
494
-11
-357
-258
-131
-177
-184
-128
-127
-142
-133
-131
-129
-101
-69
-56
-57
-47
-1
65
109
149
224
288
307
337
376
345
283
249
172
42
-29
-47
-88
-118
-103
-99
-121
-126
-106
-80
-65
-25
70
172
324
638
982
1267
1715
2131
1847
885
14
-389
-495
-494
-505
-550
-545
-502
-509
-539
-544
-557
-579
-575
-574
-606
-632
-608
-540
-450
-346
-222
-100
-29
16
66
65
8
-25
-28
-48
-75
-86
-77
-53
-55
-81
-72
-43
-48
-75
-89
-69
-25
-18
-49
-59
-62
-74
-51
-34
-62
-54
-25
-76
-116
-59
-32
-79
-78
-44
-60
-87
-55
20
86
84
25
-11
-7
-8
-16
-25
-32
-2
14
-46
-33
136
298
451
593
374
-164
-391
-207
-95
-141
-146
-130
-127
-98
-86
-107
-100
-69
-60
-54
-30
-10
12
64
125
177
237
293
335
380
394
347
296
263
187
80
19
-4
-43
-85
-101
-108
-118
-117
-108
-104
-109
-126
-137
-99
-3
126
309
586
904
1125
1107
862
701
795
714
164
-354
-443
-402
-442
-435
-417
-460
-459
-413
-412
-415
-379
-355
-340
-296
-258
-240
-208
-163
-138
-136
-141
-140
-134
-126
-122
-128
-138
-124
-99
-95
-87
-54
20
227
590
977
1316
1533
1423
1060
809
666
355
-58
-336
-454
-491
-503
-521
-523
-499
-495
-513
-525
-538
-556
-562
-556
-543
-514
-442
-318
-199
-136
-102
-52
4
42
52
47
59
70
42
17
42
65
52
42
43
41
42
42
37
43
50
35
16
15
16
19
39
51
39
32
35
33
33
40
33
19
19
23
16
12
20
30
31
18
13
23
26
18
13
13
19
30
30
31
31
5
-13
8
19
2
-9
-19
-45
-48
7
84
118
98
60
29
17
27
27
-13
-23
38
40
-32
32
206
310
440
523
197
-290
-356
-154
-123
-180
-148
-116
-139
-156
-140
-111
-97
-98
-89
-62
-30
-3
34
90
143
187
249
314
350
372
392
376
319
266
214
132
44
-14
-52
-79
-94
-111
-117
-113
-135
-147
-101
-78
-133
-152
-100
-91
-123
-97
-42
-16
11
20
-43
-104
-99
-96
-110
-102
-107
-119
-90
-104
-147
-55
104
241
451
481
52
-359
-306
-136
-163
-209
-177
-153
-151
-149
-138
-113
-94
-81
-60
-52
-53
-17
58
140
210
251
284
349
400
378
320
255
152
45
-2
-15
-49
-92
-103
-95
-95
-103
-104
-102
-101
-95
-88
-106
-136
-120
-95
-127
-135
-49
25
23
-3
-42
-81
-77
-70
-95
-122
-135
-117
-91
-133
-150
-25
151
395
697
629
92
-290
-256
-186
-219
-205
-159
-154
-163
-162
-150
-122
-94
-82
-71
-37
7
33
61
120
184
225
275
337
359
345
326
268
176
119
89
44
10
-7
-35
-47
-22
-16
-55
-60
-11
-4
-63
-95
-71
-51
-68
-80
-43
23
66
73
52
11
-20
-34
-46
-41
-35
-61
-61
-42
-93
-104
35
219
472
745
582
-22
-353
-227
-146
-233
-234
-166
-162
-177
-161
-143
-137
-134
-128
-106
-68
-43
-30
3
58
115
166
215
257
275
260
222
164
91
23
-20
-51
-79
-91
-88
-96
-113
-108
-90
-87
-94
-102
-119
-135
-135
-125
-119
-106
-55
17
43
6
-41
-61
-74
-93
-90
-78
-98
-107
-74
-89
-118
-32
139
398
722
696
152
-301
-279
-163
-201
-219
-173
-164
-173
-148
-120
-114
-110
-97
-89
-81
-53
-15
20
70
134
182
218
267
313
305
250
208
178
114
32
-11
-16
-18
-28
-46
-61
-52
-34
-37
-41
-24
-18
-46
-82
-83
-52
-30
-17
27
88
107
79
38
8
-8
-28
-36
-9
-3
-30
-26
-29
-68
-26
132
355
604
622
212
-215
-243
-119
-145
-188
-143
-114
-123
-112
-94
-93
-94
-83
-61
-34
-7
13
34
70
125
188
243
278
300
305
279
227
162
85
19
-13
-37
-78
-98
-78
-72
-101
-113
-96
-91
-104
-103
-94
-105
-128
-131
-114
-107
-114
-79
12
63
20
-41
-54
-58
-82
-92
-81
-87
-96
-81
-100
-141
-88
47
225
480
558
189
-248
-299
-180
-190
-218
-186
-172
-165
-143
-140
-144
-133
-131
-133
-109
-76
-56
-31
16
68
111
155
209
248
251
242
229
175
87
22
-11
-38
-58
-65
-75
-89
-93
-90
-87
-79
-70
-73
-85
-101
-109
-90
-52
-44
-39
26
94
73
13
-9
-17
-34
-33
-22
-37
-58
-36
-22
-67
-72
44
220
419
503
235
-188
-307
-170
-114
-142
-132
-117
-111
-82
-54
-46
-37
-19
0
18
39
70
107
145
197
264
323
365
389
395
385
348
270
180
110
61
20
-18
-45
-49
-44
-47
-52
-61
-76
-73
-51
-51
-80
-101
-88
-59
-49
-53
-19
56
89
47
-3
-26
-50
-75
-74
-61
-72
-85
-57
-46
-95
-91
19
177
407
543
257
-220
-339
-189
-155
-194
-169
-151
-163
-156
-146
-147
-143
-136
-129
-108
-75
-44
-15
30
95
159
221
289
334
338
320
277
189
94
27
-25
-72
-108
-131
-145
-165
-189
-191
-176
-174
-171
-167
-174
-172
-162
-166
-164
-148
-157
-167
-118
-42
-15
-43
