# session 131
41
42
17
30
33
6
92
253
331
368
292
-43
-322
-238
-66
-63
-80
-30
-15
-50
-61
-21
14
8
1
22
48
80
123
161
204
274
348
412
471
505
489
428
331
211
90
-16
-95
-143
-169
-184
-179
-155
-151
-158
-112
-20
34
62
146
331
610
876
1006
1172
1569
1874
1586
789
10
-416
-542
-567
-591
-594
-592
-622
-645
-637
-655
-708
-745
-764
-797
-837
-867
-884
-873
-815
-723
-605
-454
-275
-108
-2
25
12
9
6
-11
15
64
42
56
224
355
427
727
1063
898
310
-211
-470
-487
-357
-259
-243
-232
-228
-232
-193
-139
-133
-136
-93
-53
-93
-182
-199
-118
-43
11
125
251
281
258
249
223
161
102
59
16
-4
16
31
10
4
28
30
24
42
46
37
69
136
199
255
331
470
608
666
786
1035
1099
778
324
-9
-213
-311
-316
-290
-266
-258
-285
-323
-335
-349
-401
-460
-493
-518
-551
-560
-519
-441
-359
-277
-155
5
134
199
226
239
256
284
294
264
220
193
178
164
152
144
136
125
107
84
74
77
74
73
91
93
68
56
66
77
84
76
53
57
85
88
72
67
61
44
38
32
6
-19
-18
-19
-39
-39
-26
-44
-69
-72
-86
-101
-80
-69
-110
-153
-173
-193
-207
-197
-188
-197
-183
-129
-97
-118
-146
-159
-165
-153
-143
-149
-134
-114
-123
-77
51
196
382
472
172
-298
-406
-232
-182
-226
-199
-177
-197
-193
-180
-182
-173
-155
-141
-118
-86
-49
-8
24
62
131
208
266
315
353
364
359
341
298
248
193
119
55
23
-6
-30
-26
-25
-36
-12
37
78
131
231
432
728
947
1062
1316
1593
1354
583
-75
-298
-336
-387
-417
-414
-421
-443
-464
-492
-534
-573
-592
-615
-662
-707
-724
-714
-682
-624
-522
-367
-198
-46
91
182
206
195
167
132
116
83
48
163
448
695
723
450
-58
-492
-638
-601
-499
-336
-168
-67
-26
-24
-31
-21
-8
5
44
100
163
269
416
549
653
739
793
802
768
683
543
382
243
128
17
-77
-130
-169
-215
-241
-242
-247
-255
-258
-262
-262
-258
-259
-253
-235
-221
-216
-208
-196
-188
-180
-170
-166
-167
-165
-165
-168
-168
-168
-169
-162
-151
-141
-125
-110
-118
-129
-112
-89
-85
-78
-61
-59
-67
-61
-46
-28
-18
-22
8
96
136
80
41
68
89
84
75
67
96
113
69
112
266
356
483
665
454
-100
-302
-108
-36
-105
-92
-59
-57
-40
-34
-43
-37
-30
-25
-7
5
6
18
51
97
140
174
213
257
294
320
334
324
289
244
206
175
134
93
78
70
38
10
12
33
55
55
33
38
75
77
25
-23
-42
-66
-102
-114
-108
-119
-126
-129
-160
-155
-87
-28
111
330
239
-217
-477
-357
-240
-247
-227
-199
-217
-238
-251
-256
-238
-223
-220
-209
-195
-182
-148
-104
-66
-9
65
127
175
213
219
200
173
126
64
19
-3
-17
-29
-34
-39
-55
-71
-65
-46
-52
-74
-63
-27
-29
-82
-129
-141
-147
-156
-153
-150
-150
-128
-121
-147
-103
29
152
267
291
25
-327
-348
-143
-68
-98
-82
-54
-48
-35
-28
-32
-27
-16
-3
22
55
75
92
133
193
254
320
393
448
471
472
444
378
298
226
165
128
111
84
49
17
-16
-21
27
60
43
78
205
365
586
849
990
1080
1359
1606
1318
568
-73
-344
-420
-460
-472
-473
-485
-488
-491
-522
-560
-574
-592
-641
-694
-729
-758
-777
-779
-759
-670
-505
-367
-289
-183
-44
31
41
42
33
5
-18
-15
-3
-12
-39
-51
-43
-44
-57
-78
-100
-95
-69
-68
-95
-102
-78
-56
-68
-110
-107
-9
79
58
-1
-13
-10
-18
-13
-12
-25
-8
17
-23
-16
137
287
439
707
704
157
-303
-226
-58
-96
-117
-78
-86
-85
-59
-54
-41
-11
-7
-2
43
84
86
90
137
218
306
381
428
445
440
430
418
367
263
164
110
73
32
13
15
4
-8
2
12
-4
-10
33
101
137
114
59
14
-24
-66
-75
-60
-75
-93
-89
-112
-90
59
201
357
638
673
199
-235
-227
-132
-183
-202
-169
-177
-180
-155
-152
-164
-156
-135
-128
-131
-117
-85
-53
-20
14
38
60
106
160
175
142
89
41
-2
-46
-88
-122
-142
-143
-146
-180
-213
-193
-151
-160
-200
-179
-98
-59
-93
-132
-147
-169
-196
-201
-203
-212
-188
-168
-198
-172
-53
45
201
434
347
-115
-375
-259
-163
-189
-174
-150
-169
-176
-169
-170
-171
-175
-175
-155
-128
-103
-63
-19
22
80
137
175
222
274
286
261
230
184
124
87
81
70
43
32
54
72
61
66
113
146
136
134
168
186
148
87
55
50
52
54
40
16
17
19
-8
12
103
219
377
447
193
-174
-234
-82
-39
-70
-56
-48
-65
-64
-52
-44
-31
-16
0
18
38
64
93
121
154
195
235
277
314
326
309
275
233
187
130
63
18
13
10
-9
-28
-53
-68
-35
17
53
110
205
372
644
861
945
1179
1542
1450
740
0
-364
-494
-569
-605
-613
-638
-674
-687
-689
-713
-745
-762
-792
-841
-875
-896
-915
-894
-799
-663
-522
-373
-225
-94
21
93
91
53
26
6
-15
-22
-23
-42
-73
-77
-45
-21
-30
-51
-68
-62
-21
11
-3
-41
-68
-50
3
0
-59
-55
29
97
118
98
53
31
24
9
26
51
42
53
54
29
124
309
455
651
723
325
-177
-224
-58
-48
-66
-32
-37
-48
-34
-28
-14
11
15
17
37
55
71
103
149
195
247
311
369
402
414
411
372
309
252
187
108
59
37
1
-27
-23
-37
-59
-19
42
56
102
240
424
657
911
1104
1352
1723
1793
1215
375
-187
-448
-569
-581
-568
-605
-642
-651
-661
-664
-667
-686
-695
-708
-754
-788
-790
-780
-737
-632
-474
-291
-135
-15
88
165
284
506
652
691
936
1246
1012
316
-161
-269
-305
-334
-324
-330
-342
-336
-352
-379
-391
-418
-477
-537
-569
-563
-536
-493
-396
-238
-82
22
68
71
66
75
62
21
12
25
14
13
42
45
25
27
30
24
37
51
44
49
75
82
68
68
87
88
76
84
93
71
61
85
92
72
64
65
62
79
106
110
100
96
87
76
75
74
73
78
77
63
52
50
45
28
19
41
71
68
63
103
152
152
124
99
69
51
72
87
68
65
75
50
67
173
306
508
690
485
-32
-268
-132
-46
-88
-89
-77
-85
-74
-80
-106
-104
-98
-103
-84
-53
-43
-24
22
66
101
134
167
196
207
195
178
162
126
71
18
-32
-83
-133
-177
-201
-204
-213
-227
-219
-186
-159
-153
-144
-108
-63
-54
-77
-103
-131
-163
-161
-134
-140
-139
-74
-34
-7
169
394
532
763
928
511
-204
-452
-316
-293
-352
-325
-289
-281
-262
-254
-267
-276
-269
-259
-259
-254
-233
-221
-217
-171
-91
-24
36
105
154
165
157
134
78
16
-13
-32
-58
-54
-41
-74
-108
-88
-56
-41
-35
-27
8
77
132
134
87
25
6
18
12
-10
-22
-7
10
-29
-39
102
263
352
474
440
48
-275
-175
2
-18
-48
-11
-2
-2
17
18
10
18
27
32
51
88
125
146
179
243
318
394
456
469
445
421
372
274
166
79
5
-51
-77
-87
-112
-147
-154
-127
-102
-108
-128
-106
-42
4
0
-47
-105
-136
-148
-162
-171
-184
-199
-169
-155
-199
-141
24
115
261
492
338
-186
-395
-204
-116
-177
-164
-127
-138
-135
-117
-114
-104
-90
-85
-72
-41
-7
26
74
143
209
265
326
376
384
367
346
276
124
-42
-129
-144
-154
-171
-174
-179
-192
-184
-168
-171
-178
-164
-130
-95
-77
-99
-152
-182
-182
-189
-202
-216
-243
-251
-274
-350
-328
-163
-16
243
639
579
-41
-404
-251
-134
-189
-178
-143
-159
-151
-133
-133
-108
-62
-32
-5
36
79
109
135
186
260
313
341
377
410
402
364
325
285
227
158
109
83
69
65
66
46
17
23
49
71
130
214
291
470
742
891
990
1278
1445
1072
431
-18
-261
-401
-441
-455
-486
-495
-504
-537
-548
-541
-565
-620
-672
-712
-743
-763
-757
-710
-622
-495
-337
-182
-62
31
105
133
103
68
65
65
51
50
60
61
57
55
46
31
18
8
0
-13
-33
-46
-49
-58
-79
-95
-89
-69
-61
-60
-30
21
36
12
-8
-11
-8
5
20
11
-9
7
27
-1
11
110
210
344
498
358
-78
-298
-173
-79
-111
-110
-89
-91
-79
-70
-74
-55
-25
-10
10
43
70
103
159
216
261
316
373
404
417
426
417
380
325
258
180
111
69
50
42
38
35
29
30
60
113
178
268
387
568
837
1067
1184
1419
1801
1789
1083
202
-296
-431
-428
-436
-555
-712
-810
-916
-1004
-947
-831
-788
-767
-751
-774
-795
-798
-788
-709
-563
-425
-288
-126
16
95
74
-122
-413
-545
-453
-341
-305
-267
-223
-213
-205
-175
-151
-141
-131
-110
-87
-79
-78
-61
-30
-22
-33
-13
25
12
-20
27
125
177
174
157
135
118
117
125
134
123
115
150
155
119
199
360
498
766
964
580
-68
-223
-29
-5
-66
-32
-23
-61
-45
-1
-3
-32
-33
-1
26
40
64
99
135
181
244
309
356
381
387
378
349
292
204
115
60
24
-19
-52
-55
-69
-112
-135
-114
-86
-67
-46
-22
9
35
26
-19
-66
-94
-120
-156
-175
-173
-170
-147
-133
-161
-115
31
144
314
564
446
-83
-357
-202
-97
-151
-156
-134
-138
-120
-107
-121
-110
-85
-84
-80
-50
-20
1
40
100
160
205
241
285
331
332
267
185
123
49
-29
-68
-94
-121
-112
-98
-137
-166
-126
-85
-92
-104
-90
-64
-40
-38
-81
-139
-160
-152
-157
-169
-177
-177
-149
-140
-176
-140
-28
43
170
353
230
-185
-364
-225
-132
-143
-126
-117
-136
-133
-130
-148
-157
-150
-142
-131
-114
-97
-79
-47
19
89
131
171
222
251
255
243
201
134
62
2
-25
-25
-34
-43
-30
-31
-52
-34
24
69
132
226
296
427
679
842
891
1095
1279
1012
466
69
-170
-340
-389
-378
-391
-396
-387
-391
-393
-390
-400
-418
-439
-463
-482
-486
-469
-424
-345
-238
-110
21
129
201
233
233
211
174
130
104
95
77
58
61
67
54
41
43
49
43
24
11
17
23
12
1
-3
-23
-45
-39
-39
-71
-71
-9
53
62
23
-17
-30
-47
-77
-68
-40
-47
-47
-42
-76
-38
88
186
388
662
481
-142
-450
-297
-207
-280
-294
-268
-263
-254
-267
-294
-276
-233
-210
-191
-163
-136
-102
-53
17
102
186
254
304
340
364
355
297
224
156
78
12
-27
-68
-93
-76
-81
-129
-133
-71
-20
32
135
279
510
832
1044
1136
1400
1687
1412
606
-73
-344
-432
-486
-505
-515
-529
-526
-532
-563
-591
-615
-655
-683
-688
-713
-760
-770
-724
-648
-529
-354
-181
-56
66
181
214
198
222
285
396
529
594
713
1054
1386
1451
1332
1004
420
-81
-265
-328
-382
-378
-369
-385
-392
-412
-447
-460
-477
-531
-592
-614
-595
-564
-550
-525
-434
-287
-145
-12
125
213
231
239
237
201
194
229
214
162
159
183
175
150
137
148
149
105
69
92
127
130
96
34
20
80
106
71
56
48
13
9
21
-2
-7
28
40
22
9
-6
-28
-43
-49
-49
-40
-30
-21
-15
-27
-51
-45
-11
-12
-45
-32
33
63
28
-14
-34
-56
-74
-69
-74
-83
-62
-66
-103
-40
107
240
438
569
266
-248
-384
-209
-154
-212
-208
-175
-170
-182
-193
-170
-137
-139
-130
-89
-70
-68
-36
18
69
115
162
216
260
270
272
269
228
171
137
109
58
-1
-29
-18
-16
-38
-42
-31
-33
-21
19
45
34
25
46
65
45
-3
-38
-48
-53
-44
-22
-33
-59
-38
-27
-58
-13
107
197
270
233
-54
-324
-270
-105
-77
-79
-48
-55
-71
-59
-55
-65
-65
-59
-63
-63
-28
22
35
45
107
183
236
292
336
339
334
313
231
133
80
41
-12
-47
-50
-48
-56
-67
-75
-63
-36
-34
-59
-52
-14
-8
-50
-93
-117
-139
-162
-173
-179
-206
-220
-201
-215
-235
-155
-33
72
200
160
-184
-442
-341
-185
-190
-209
-180
-178
-197
-204
-204
-201
-197
-191
-179
-164
-143
-99
-41
6
60
136
208
266
318
346
342
320
263
171
98
62
24
-16
-27
-19
-30
-60
-57
-6
30
48
123
256
420
654
898
1033
1193
1515
1684
1311
576
-26
-305
-394
-413
-404
-407
-425
-436
-460
-504
-536
-546
-553
-570
-609
-650
-668
-678
-685
-637
-527
-396
-255
-112
5
97
158
147
85
63
89
84
38
20
46
61
44
39
67
83
67
65
89
97
84
74
61
46
50
65
65
49
50
99
159
173
149
111
53
26
75
105
63
60
84
32
38
198
330
442
606
470
-39
-322
-187
-79
-109
-92
-85
-136
-139
-109
-127
-153
-147
-144
-164
-150
-74
-12
-1
44
134
186
223
301
342
303
261
226
142
38
-32
-95
-160
-190
-200
-229
-244
-224
-204
-185
-167
-175
-164
-86
-20
-24
-51
-79
-125
-162
-162
-138
-132
-154
-140
-106
-118
-56
171
413
592
660
372
-154
-378
-258
-195
-234
-205
-145
-121
-131
-175
-193
-138
-93
-108
-111
-84
-76
-70
-32
22
86
166
231
261
280
294
280
235
188
144
97
67
64
51
12
-1
15
-3
-33
-7
28
12
5
66
