# session 28
-39
-45
-11
-2
-17
30
133
219
275
298
292
340
459
504
400
248
131
50
-9
-62
-106
-123
-130
-141
-140
-135
-140
-146
-137
-113
-100
-118
-135
-117
-101
-120
-131
-101
-81
-102
-107
-58
1
35
36
-9
-58
-50
-21
-26
-37
-42
-47
-19
-9
-54
0
171
309
566
901
688
-53
-410
-219
-108
-161
-134
-123
-164
-143
-121
-144
-121
-85
-109
-122
-96
-86
-58
11
34
30
93
184
248
322
394
430
450
409
249
73
0
-23
-75
-130
-137
-113
-123
-167
-178
-146
-115
-100
-86
-68
-41
-18
-13
-15
-13
-21
-19
18
72
118
173
259
379
545
719
813
904
1185
1508
1436
912
340
-3
-158
-221
-242
-253
-248
-230
-241
-268
-264
-257
-289
-320
-332
-369
-427
-459
-469
-475
-479
-477
-447
-366
-248
-125
-24
23
15
-12
-54
-121
-195
-259
-301
-301
-288
-303
-317
-309
-314
-325
-313
-309
-327
-323
-302
-303
-301
-263
-223
-188
-146
-135
-155
-143
-110
-104
-103
-90
-73
-44
-30
-60
-74
-43
-14
1
25
59
94
127
159
181
172
149
154
183
207
209
200
215
225
183
196
319
419
507
615
460
11
-227
-85
48
27
24
52
44
36
35
19
18
38
37
24
34
58
77
99
124
151
184
212
251
329
412
446
457
483
492
446
367
289
223
166
111
62
25
-10
-49
-65
-48
-39
-55
-55
-36
-30
-29
-21
-6
39
113
170
273
498
686
725
862
1197
1274
790
128
-285
-461
-524
-522
-520
-540
-545
-547
-569
-584
-594
-627
-677
-729
-784
-824
-851
-909
-974
-966
-900
-831
-719
-539
-364
-223
-77
52
96
79
60
29
-10
-17
-12
-24
-23
-16
-39
-51
-23
4
45
113
145
166
309
554
696
528
58
-407
-588
-535
-412
-262
-117
-21
38
65
45
25
48
77
66
42
40
55
73
89
117
192
334
500
642
758
836
848
804
739
658
567
471
365
268
196
128
66
47
49
27
-2
-9
-12
-34
-57
-60
-58
-65
-65
-57
-56
-52
-39
-47
-72
-64
-29
-21
-47
-67
-71
-73
-73
-62
-43
-46
-82
-102
-77
-55
-67
-85
-89
-82
-70
-72
-80
-73
-70
-93
-101
-75
-66
-83
-80
-66
-81
-91
-50
-10
-31
-69
-66
-58
-88
-122
-107
-65
-56
-93
-113
-70
0
28
-9
-73
-96
-73
-70
-94
-101
-93
-104
-132
-119
-19
110
266
495
518
79
-373
-356
-170
-176
-222
-177
-139
-141
-160
-165
-125
-94
-111
-113
-94
-96
-76
-14
17
5
23
86
142
176
198
220
253
288
279
228
197
198
173
115
57
11
-24
-41
-54
-74
-81
-56
-23
-16
-24
-15
-5
-21
-36
-10
28
21
-8
3
26
28
63
125
125
80
55
36
24
34
24
14
26
-11
-69
-58
-38
-47
10
164
376
487
223
-272
-471
-316
-189
-162
-120
-121
-162
-150
-119
-124
-132
-136
-142
-125
-90
-80
-86
-71
-41
-11
28
76
120
174
235
266
270
268
235
165
96
32
-42
-95
-111
-123
-136
-137
-133
-127
-127
-139
-133
-104
-95
-94
-50
-5
23
106
229
350
542
781
927
1074
1316
1323
837
184
-205
-304
-279
-238
-241
-277
-288
-288
-313
-334
-331
-353
-412
-469
-515
-559
-590
-614
-635
-633
-608
-562
-466
-312
-144
11
155
267
320
338
342
318
285
275
268
239
215
217
223
205
182
188
208
213
206
189
169
165
155
117
100
123
134
123
114
104
106
108
83
64
59
11
-30
-16
-28
-21
63
-86
-576
-867
-686
-450
-397
-351
-268
-224
-200
-176
-116
-27
-24
-18
171
377
523
821
934
377
-250
-216
-17
-308
-814
-1104
-1166
-1064
-877
-736
-641
-540
-468
-428
-366
-299
-261
-219
-153
-103
-80
-21
95
193
242
291
341
355
359
369
350
314
289
259
228
232
259
257
205
161
203
304
372
410
480
552
594
682
831
965
1144
1411
1571
1574
1645
1643
1156
367
-141
-257
-226
-152
-91
-122
-200
-238
-245
-264
-299
-343
-404
-481
-557
-626
-698
-762
-796
-824
-859
-849
-754
-619
-501
-409
-322
-230
-155
-135
-167
-213
-258
-316
-401
-498
-557
-561
-538
-514
-509
-536
-545
-479
-375
-293
-218
-135
-72
-14
70
174
342
627
897
1024
1130
1257
1196
973
854
770
493
167
17
-24
-56
-42
19
64
57
14
-28
-53
-69
-73
-69
-69
-73
-87
-120
-147
-155
-162
-157
-116
-46
21
49
15
-69
-184
-308
-368
-312
-190
-100
-64
-42
-8
19
19
21
41
38
-6
-30
-8
12
19
19
14
56
113
4
-254
-403
-405
-420
-418
-329
-237
-177
-123
-112
-115
-58
12
27
30
59
81
76
71
92
120
117
94
106
156
192
200
221
283
349
366
339
323
323
286
217
201
232
211
165
154
44
-177
-281
-207
13
355
414
-78
-525
-442
-228
-221
-229
-172
-163
-174
-155
-144
-147
-145
-136
-120
-86
-40
-5
16
43
91
144
188
237
297
352
385
395
386
376
361
300
199
111
44
-11
-28
-18
-39
-84
-109
-127
-156
-167
-160
-170
-203
-237
-247
-231
-216
-213
-198
-154
-87
-33
-35
-78
-96
-88
-103
-112
-71
-63
-108
-84
-41
-111
-93
136
299
400
620
532
-76
-469
-300
-131
-177
-158
-90
-117
-152
-131
-105
-90
-85
-85
-68
-40
-23
-7
16
47
87
144
219
309
397
464
504
511
468
385
278
143
15
-52
-95
-158
-186
-172
-191
-225
-209
-174
-145
-108
-113
-167
-154
-58
-34
-103
-106
-4
57
17
-24
-16
-20
-68
-93
-57
-29
-61
-73
-29
-55
-120
-7
197
287
429
573
260
-307
-438
-219
-156
-209
-186
-157
-149
-127
-130
-147
-145
-145
-135
-92
-72
-80
-52
-7
-5
11
103
191
214
252
340
387
356
296
229
140
39
-38
-90
-145
-183
-169
-162
-221
-241
-148
-95
-156
-178
-124
-110
-112
-77
-100
-169
-123
2
39
-1
-25
-49
-90
-103
-89
-72
-60
-67
-65
-46
-82
-91
87
299
399
535
545
129
-300
-257
-55
-52
-78
-24
3
-28
-92
-143
-117
-50
-12
17
61
89
104
137
178
216
266
327
384
450
519
556
559
547
505
425
332
247
183
150
128
108
104
97
58
32
63
110
132
146
162
164
146
130
132
131
128
172
245
247
157
67
11
-63
-160
-217
-240
-281
-311
-331
-442
-557
-513
-461
-440
-151
131
-234
-897
-1082
-942
-948
-1037
-1067
-1053
-978
-848
-641
-351
-168
-178
-199
-152
-117
-85
-37
-8
27
92
155
223
309
384
429
459
480
476
437
368
290
223
174
146
137
133
127
118
115
124
133
131
125
124
116
98
83
87
94
88
99
145
169
145
127
110
52
6
22
44
30
1
-5
36
49
-2
32
176
281
421
568
333
-183
-353
-161
-74
-107
-77
-68
-106
-89
-46
-39
-23
21
38
27
30
51
64
71
78
89
115
157
195
220
247
273
278
249
204
152
83
7
-40
-61
-86
-105
-100
-87
-88
-91
-92
-96
-94
-81
-76
-94
-108
-96
-72
-67
-77
-62
-11
16
-14
-61
-83
-91
-113
-131
-116
-103
-123
-120
-89
-109
-115
-20
74
172
357
352
-37
-370
-311
-145
-107
-94
-61
-50
-41
-22
-12
-13
-31
-47
-43
-41
-45
-43
-38
-27
6
43
74
121
177
219
247
260
247
220
178
107
35
-4
-35
-71
-84
-79
-87
-96
-93
-97
-100
-86
-89
-127
-152
-132
-109
-115
-137
-146
-120
-78
-65
-78
-100
-141
-166
-144
-136
-152
-126
-89
-97
-97
-90
-112
-51
102
220
380
528
274
-255
-424
-220
-117
-149
-120
-79
-81
-64
-33
-23
-16
1
23
62
96
95
88
107
120
125
162
230
296
349
392
428
446
423
360
278
186
98
35
-6
-37
-61
-74
-74
-68
-61
-57
-57
-54
-39
-40
-67
-72
-40
-35
-74
-80
-16
46
50
22
-6
-28
-30
-32
-68
-87
-66
-68
-62
-17
-44
-75
67
241
387
672
731
167
-405
-371
-153
-172
-216
-166
-147
-154
-140
-138
-158
-171
-162
-144
-141
-141
-119
-87
-64
-35
17
84
148
214
283
335
353
347
313
241
150
64
-12
-70
-104
-129
-147
-152
-152
-158
-156
-149
-148
-143
-129
-130
-147
-150
-136
-135
-152
-140
-85
-45
-53
-79
-111
-141
-157
-161
-138
-100
-117
-143
-98
-86
-118
-22
128
230
456
600
225
-298
-344
-146
-120
-137
-91
-85
-83
-33
-11
-35
-33
7
32
26
19
30
39
41
55
85
128
185
243
298
353
385
382
369
335
256
164
105
59
16
2
8
-7
-34
-36
-21
-18
-18
-10
-24
-67
-89
-72
-51
-42
-34
-23
4
34
34
12
-11
-32
-39
-43
-69
-81
-65
-68
-69
-58
-99
-106
15
121
228
465
502
78
-309
-272
-139
-153
-163
-130
-130
-137
-127
-120
-117
-113
-114
-110
-96
-83
-71
-48
-14
13
38
84
143
193
241
279
294
294
278
230
164
103
45
-5
-29
-40
-55
-73
-84
-83
-85
-101
-109
-97
-101
-126
-135
-130
-130
-129
-132
-126
-85
-51
-74
-114
-133
-153
-167
-158
-149
-139
-131
-137
-125
-106
-123
-78
62
177
337
533
354
-188
-432
-238
-92
-106
-78
-36
-46
-41
-14
-7
-7
-6
-11
-12
-7
-14
-24
-6
37
73
99
146
218
283
334
384
418
412
373
307
216
129
73
39
5
-26
-36
-24
-27
-57
-71
-55
-53
-71
-71
-60
-72
-79
-62
-67
-95
-77
-15
19
11
-13
-41
-63
-82
-105
-102
-75
-84
-103
-58
-41
-105
-54
143
288
498
770
554
-131
-441
-231
-119
-194
-174
-124
-150
-165
-144
-132
-128
-132
-136
-120
-97
-82
-59
-33
-14
16
72
144
218
285
334
369
394
388
328
229
126
42
-18
-58
-91
-124
-151
-167
-169
-157
-144
-147
-152
-135
-120
-138
-156
-132
-101
-125
-171
-141
-45
-6
-49
-90
-102
-106
-104
-107
-115
-111
-114
-119
-92
-89
-97
12
154
262
514
662
227
-359
-383
-128
-100
-137
-82
-72
-94
-68
-51
-64
-63
-62
-73
-75
-60
-38
-17
2
28
75
140
209
273
334
387
423
430
399
335
259
181
113
61
15
-11
-9
-22
-60
-67
-38
-28
-27
-15
-28
-64
-74
-60
-48
-36
-48
-86
-64
18
41
-13
-49
-56
-70
-87
-100
-97
-73
-74
-86
-61
-75
-125
-56
75
198
493
740
405
-215
-389
-226
-188
-221
-190
-183
-198
-180
-170
-177
-163
-138
-124
-119
-110
-85
-55
-32
-12
21
68
127
192
242
271
294
305
283
238
180
109
41
-9
-55
-91
-99
-97
-98
-90
-87
-107
-120
-117
-122
-130
-127
-133
-152
-138
-98
-94
-115
-89
-27
-14
-51
-77
-81
-75
-61
-55
-62
-62
-52
-33
-14
-29
-26
74
212
357
533
500
91
-272
-227
-52
-32
-58
-44
-49
-71
-76
-71
-64
-53
-45
-42
-35
-16
11
32
49
73
111
159
207
255
309
355
371
377
381
343
267
203
143
71
30
27
12
-17
-20
-3
-6
-27
-39
-49
-60
-64
-69
-93
-122
-122
-90
-67
-81
-80
-32
-2
-25
-55
-77
-112
-132
-121
-112
-107
-94
-85
-79
-101
-133
-74
48
144
272
313
0
-412
-454
-264
-202
-218
-187
-163
-161
-149
-141
-131
-113
-106
-95
-65
-45
-33
-2
36
56
73
109
156
212
287
351
372
376
377
328
229
146
85
9
-55
-74
-86
-121
-142
-139
-147
-170
-181
-178
-164
-144
-145
-168
-169
-134
-114
-135
-145
-89
-8
18
-9
-36
-45
-44
-45
-46
-22
21
14
-21
4
22
-18
55
234
363
595
833
507
-197
-418
-185
-109
-169
-132
-101
-116
-98
-83
-94
-84
-56
-41
-39
-37
-22
4
21
39
96
161
186
223
326
415
425
413
405
346
238
148
95
39
-23
-58
-75
-103
-122
-115
-113
-130
-130
-106
-84
-75
-79
-105
-137
-134
-105
-113
-145
-113
-32
6
-7
-33
-73
-103
-98
-95
-109
-104
-101
-111
-82
-68
-108
-35
151
269
469
749
543
-116
-404
-211
-119
-179
-145
-108
-139
-135
-109
-118
-115
-85
-71
-79
-73
-51
-40
-30
7
58
76
81
141
244
305
310
315
313
253
152
67
4
-62
-119
-143
-146
-149
-154
-152
-134
-116
-120
-129
-111
-72
-24
-1
-18
52
297
435
146
-395
-761
-811
-691
-535
-385
-240
-120
-52
-29
-15
-8
-16
-11
16
24
10
17
49
84
144
240
339
432
536
638
709
744
733
671
576
476
373
267
170
100
49
-5
-45
-59
-76
-106
-113
-98
-103
-137
-160
-148
-128
-136
-156
-140
-116
-137
-167
-158
-146
-153
-150
-139
-141
-147
-148
-148
-147
-157
-173
-175
-170
-179
-200
-211
-201
-173
-151
-151
-139
-77
-7
9
-20
-46
-50
-46
-49
-49
-35
-46
-64
-37
-25
-49
24
184
319
482
522
148
-326
-360
-142
-110
-183
-173
-140
-144
-163
-180
-158
-115
-121
-146
-124
-82
-59
-37
-16
-2
39
106
145
168
222
279
293
291
298
294
272
242
203
155
114
90
76
61
50
49
45
29
11
15
26
-18
-129
-213
-195
-130
-87
-33
67
166
296
534
744
798
912
1207
1318
966
393
-36
-219
-258
-279
-310
-316
-299
-287
-286
-303
-340
-370
-384
-405
-444
-485
-509
-518
-522
-525
-517
-480
-405
-297
-170
-45
56
118
140
141
132
106
81
78
73
55
44
40
29
21
25
28
22
14
11
19
30
35
40
51
55
55
56
52
54
70
70
54
61
62
12
