# session 162
-45
-80
-61
-44
-89
-122
-68
13
37
-2
-65
-93
-79
-85
-103
-87
-86
-113
-114
-119
-115
-15
100
205
415
454
36
-369
-318
-154
-177
-200
-155
-146
-143
-115
-104
-98
-79
-65
-50
-26
-11
4
40
87
134
191
248
286
300
305
297
248
166
92
37
-14
-44
-53
-57
-61
-73
-78
-36
1
-9
45
175
258
394
725
1050
1232
1454
1644
1433
810
153
-253
-397
-427
-465
-498
-496
-492
-501
-517
-549
-583
-601
-628
-678
-719
-720
-691
-645
-563
-429
-274
-140
-24
73
117
108
89
74
52
35
36
45
51
58
68
74
71
68
79
92
77
51
54
69
63
58
72
73
58
48
47
44
35
23
16
10
2
19
73
102
66
14
0
6
-8
-31
-41
-50
-46
-20
-19
-17
37
93
237
562
659
211
-261
-285
-165
-173
-191
-185
-203
-199
-186
-191
-178
-152
-140
-126
-95
-58
-15
27
70
122
179
218
241
262
276
262
229
200
164
103
42
5
-20
-47
-67
-70
-61
-60
-75
-84
-75
-56
-51
-68
-71
-28
21
12
-42
-83
-83
-74
-89
-99
-79
-65
-48
-6
-9
-46
-5
74
173
366
405
55
-266
-197
-64
-108
-127
-72
-78
-106
-88
-73
-74
-64
-49
-38
-25
-6
18
50
85
130
181
230
271
305
316
294
253
204
145
89
57
45
29
15
17
23
19
11
4
-2
0
9
4
-4
21
63
63
23
-14
-31
-41
-64
-86
-81
-81
-100
-97
-98
-121
-90
-9
128
380
469
103
-322
-346
-219
-240
-268
-228
-231
-257
-237
-207
-208
-210
-195
-178
-163
-137
-101
-62
-20
28
88
140
170
204
249
260
211
142
79
23
-19
-46
-66
-81
-94
-105
-100
-87
-94
-119
-129
-115
-113
-136
-130
-68
-21
-28
-49
-69
-84
-82
-86
-95
-87
-97
-108
-79
-80
-78
60
221
294
339
209
-157
-341
-183
-53
-75
-62
-19
-18
-13
-3
-11
-5
21
36
46
64
83
107
144
191
251
311
346
369
391
377
316
247
182
112
49
0
-37
-52
-51
-52
-56
-55
-48
-36
-22
-1
19
29
85
225
393
576
782
917
1031
1347
1713
1617
962
211
-250
-409
-425
-434
-476
-502
-495
-501
-533
-551
-558
-592
-645
-672
-685
-746
-832
-856
-807
-732
-625
-478
-326
-192
-83
-16
5
-1
-13
-23
-30
-34
-30
-19
-9
0
15
26
24
19
18
8
-8
-9
-6
-13
-21
-21
-30
-49
-62
-58
-53
-61
-54
4
79
93
43
14
34
36
18
38
44
-4
-1
40
14
49
205
296
390
557
417
-48
-240
-58
48
3
4
35
38
41
40
30
25
17
10
18
24
25
41
79
129
176
212
242
276
299
299
295
287
248
188
143
99
46
16
22
31
20
5
10
15
-1
-5
21
34
20
23
65
99
74
18
-2
2
-33
-76
-59
-44
-85
-93
-63
-100
-133
-84
0
213
514
434
-78
-398
-317
-233
-263
-252
-235
-262
-259
-226
-219
-226
-221
-216
-205
-179
-150
-128
-91
-37
18
71
126
172
198
203
188
154
102
39
-10
-32
-51
-75
-88
-92
-101
-107
-104
-107
-122
-127
-114
-104
-107
-93
-53
-18
-30
-82
-119
-117
-114
-116
-98
-92
-112
-99
-81
-108
-85
22
110
205
290
134
-184
-263
-118
-63
-98
-85
-64
-69
-62
-52
-48
-32
-19
-14
4
33
61
97
147
197
242
291
338
366
369
356
331
284
215
146
95
51
13
-1
9
19
39
83
113
146
307
587
809
1036
1474
1801
1426
532
-110
-274
-316
-387
-397
-381
-404
-423
-421
-439
-479
-510
-527
-539
-555
-571
-571
-539
-472
-374
-253
-118
-7
44
63
82
69
13
-40
-57
-60
-76
-87
-77
-80
-109
-110
-85
-95
-122
-122
-116
-118
-112
-100
-98
-109
-103
-63
-46
-81
-97
-67
-56
-66
-49
-40
-84
-115
-91
-57
-53
-87
-124
-83
23
71
38
5
-2
-21
-43
-26
0
-6
6
26
-29
-34
138
294
375
528
492
55
-294
-215
-71
-94
-116
-90
-85
-81
-71
-69
-44
-10
-10
-15
8
36
55
82
126
181
242
292
324
344
348
332
293
237
185
134
63
-6
-31
-33
-49
-62
-52
-33
-10
14
44
96
159
256
468
740
976
1325
1779
1792
1080
217
-209
-299
-342
-383
-406
-426
-429
-429
-462
-486
-474
-491
-540
-546
-533
-572
-606
-566
-512
-464
-348
-184
-66
8
52
13
-61
-64
-31
-48
-90
-108
-108
-110
-121
-129
-119
-113
-129
-138
-123
-109
-102
-96
-94
-87
-64
-44
-46
-53
-49
-45
-54
-78
-102
-105
-90
-89
-93
-63
-19
-6
-20
-35
-46
-50
-47
-44
-41
-39
-31
-19
-33
-38
48
164
265
417
430
84
-264
-231
-63
-36
-37
-7
-13
-26
-19
-13
1
20
29
49
87
116
123
127
157
212
266
314
354
371
368
360
341
297
244
192
139
89
51
30
29
39
48
50
44
34
30
45
71
80
78
110
181
240
259
292
406
548
624
738
1012
1205
984
470
12
-250
-340
-337
-344
-380
-393
-401
-431
-454
-462
-492
-543
-575
-588
-603
-616
-626
-639
-625
-558
-466
-364
-239
-119
-39
13
39
28
-6
-41
-69
-79
-79
-87
-95
-93
-89
-85
-74
-68
-70
-69
-70
-80
-82
-81
-100
-119
-110
-96
-103
-101
-57
-2
12
-20
-47
-29
-8
-34
-44
-10
-18
-41
-10
-16
-37
75
231
368
569
539
59
-333
-241
-58
-63
-80
-55
-58
-44
-14
-15
-19
-8
-10
-3
44
87
89
99
162
241
302
372
454
504
516
521
496
401
286
206
130
45
-13
-44
-61
-57
-29
17
57
112
307
632
857
1042
1514
1992
1734
783
-43
-360
-418
-444
-465
-485
-497
-513
-543
-551
-543
-582
-642
-653
-648
-683
-713
-693
-639
-548
-405
-248
-120
-16
57
75
55
26
-3
-23
-27
-30
-46
-60
-59
-56
-58
-57
-54
-61
-75
-81
-81
-87
-94
-96
-103
-109
-105
-97
-92
-81
-66
-57
-57
-59
-65
-68
-54
-44
-68
-87
-47
26
64
49
13
-10
-16
-17
-8
-5
-21
-7
20
-14
2
149
264
391
644
610
92
-280
-165
-11
-53
-98
-96
-84
-43
-21
-45
-58
-45
-35
-24
-12
3
35
83
125
161
212
290
361
389
378
352
318
271
211
151
100
47
-8
-40
-47
-56
-61
-60
-72
-78
-52
-19
-4
0
8
39
81
80
29
-8
-9
-21
-53
-55
-42
-55
-49
-32
-70
-59
65
186
384
679
614
88
-263
-206
-137
-171
-166
-155
-168
-158
-156
-177
-175
-167
-186
-200
-174
-134
-100
-63
-22
23
77
123
145
160
170
146
94
37
-33
-100
-128
-132
-143
-154
-153
-145
-135
-125
-119
-103
-72
-50
-53
-50
-10
28
14
-28
-53
-65
-87
-106
-97
-84
-100
-111
-99
-119
-126
-37
72
192
360
314
-70
-347
-258
-132
-151
-160
-132
-130
-122
-109
-117
-113
-87
-63
-35
3
29
41
65
110
162
202
243
306
358
361
329
291
238
165
96
56
34
15
7
13
16
8
9
12
0
-10
5
13
-13
-24
16
47
27
-10
-31
-42
-53
-64
-59
-51
-62
-59
-38
-64
-67
50
184
345
616
640
164
-270
-231
-79
-99
-124
-103
-121
-132
-107
-105
-123
-121
-112
-108
-100
-89
-71
-40
-5
30
80
140
181
199
218
225
185
108
31
-35
-89
-122
-137
-147
-156
-166
-171
-152
-127
-109
-50
54
153
338
673
960
1128
1374
1576
1317
636
0
-333
-438
-460
-475
-485
-489
-508
-530
-534
-551
-592
-633
-670
-715
-760
-789
-792
-753
-670
-556
-422
-269
-93
70
152
146
114
92
72
48
39
46
43
30
35
56
65
60
61
67
81
92
77
50
54
79
87
95
117
122
109
111
114
85
59
77
83
37
17
71
128
132
115
108
105
88
73
87
95
70
72
85
57
100
237
351
587
926
792
139
-234
-110
-15
-70
-64
-40
-62
-61
-57
-80
-75
-44
-47
-72
-63
-34
-25
-15
31
79
105
142
207
258
263
223
173
142
100
15
-68
-101
-111
-139
-182
-205
-203
-201
-203
-199
-191
-174
-156
-164
-170
-120
-42
-11
-35
-69
-78
-79
-92
-96
-88
-109
-122
-85
-96
-141
-60
69
148
335
468
154
-300
-353
-195
-180
-194
-151
-155
-175
-153
-137
-152
-159
-138
-114
-118
-113
-48
21
45
85
170
244
303
352
355
316
270
216
146
66
-2
-26
-21
-37
-63
-62
-49
-50
-53
-53
-61
-54
-18
11
8
11
37
50
26
-8
-27
-37
-50
-56
-39
-23
-23
-13
-5
-24
8
102
168
291
492
414
-11
-258
-150
-56
-93
-93
-65
-79
-92
-85
-74
-48
-22
-24
-26
2
27
32
55
105
147
176
208
232
245
251
227
172
121
72
6
-40
-47
-58
-78
-75
-64
-71
-84
-100
-128
-155
-161
-149
-137
-140
-130
-91
-64
-76
-96
-108
-124
-140
-142
-127
-114
-119
-110
-82
-101
-120
-31
73
139
275
295
-31
-346
-303
-170
-173
-170
-129
-144
-165
-146
-135
-134
-114
-87
-74
-62
-41
-24
-6
46
123
179
212
264
324
343
314
274
222
144
69
26
8
-6
-23
-28
-16
-11
-3
29
42
48
123
232
375
646
903
1025
1328
1803
1745
972
194
-174
-330
-407
-415
-432
-470
-474
-465
-480
-502
-521
-545
-589
-646
-689
-703
-701
-678
-616
-523
-401
-241
-75
49
135
190
188
133
84
76
78
57
31
24
20
9
18
40
32
4
3
24
27
6
-14
-14
-2
2
3
11
10
7
21
20
-19
-52
-63
-68
-64
-64
-97
-119
-71
5
27
0
-28
-42
-52
-62
-56
-40
-42
-32
-1
-19
-25
96
228
364
653
746
264
-257
-265
-109
-132
-157
-130
-158
-179
-141
-117
-119
-110
-94
-82
-67
-43
-7
42
88
124
175
246
306
334
337
326
313
285
220
149
112
83
34
-5
-19
-31
-43
-43
-40
-40
-40
-41
-46
-43
-34
-43
-54
-2
77
66
-23
-62
-37
-44
-84
-68
-32
-61
-83
-58
-83
-107
-22
72
220
517
556
87
-313
-262
-138
-162
-158
-117
-120
-116
-98
-105
-108
-98
-97
-91
-66
-37
-8
32
73
111
153
206
260
288
280
254
232
195
116
24
-27
-45
-63
-85
-103
-110
-103
-98
-107
-117
-130
-153
-150
-107
-74
-77
-68
-25
4
-17
-62
-96
-109
-110
-112
-109
-104
-109
-95
-69
-82
-74
24
124
221
360
292
-76
-310
-205
-94
-124
-131
-105
-115
-119
-105
-107
-108
-96
-87
-73
-47
-30
-13
27
78
120
169
222
261
287
283
256
228
153
62
51
-5
-119
-16
48
-381
-701
-301
118
20
-87
-4
-27
-87
-35
-2
-30
-25
18
45
36
-2
-39
-52
-51
-46
-29
-9
-12
-12
15
6
-17
58
175
280
477
556
192
-264
-302
-128
-100
-139
-130
-118
-114
-109
-111
-102
-81
-63
-45
-36
-28
5
53
95
145
205
256
298
333
353
361
351
301
223
142
66
8
-14
-12
-13
-31
-54
-59
-54
-32
47
135
220
448
772
966
1178
1579
1712
1178
362
-189
-411
-487
-519
-527
-533
-556
-578
-584
-604
-641
-667
-689
-732
-786
-813
-794
-742
-670
-568
-430
-272
-108
42
120
113
89
78
51
15
-6
-21
-43
-50
-26
-3
-11
-26
-23
-20
-23
-14
-5
-11
-11
0
2
-5
-4
4
8
13
28
37
24
9
17
25
5
-13
-6
-4
-24
-42
-38
9
87
119
78
42
50
46
26
44
61
40
48
64
24
66
224
340
501
709
527
-11
-242
-84
-3
-56
-58
-47
-65
-68
-60
-51
-45
-52
-50
-29
-20
-23
-7
39
102
157
205
264
326
359
351
328
308
270
206
145
91
41
10
-7
-28
-41
-44
-54
-54
-34
-20
-33
-53
-53
-39
-38
-35
-11
18
36
28
-35
-108
-124
-118
-125
-119
-126
-145
-127
-131
-155
-73
28
117
417
651
296
-260
-345
-185
-202
-264
-229
-208
-227
-231
-222
-213
-198
-178
-157
-131
-96
-54
-3
50
98
158
226
267
278
285
275
224
147
72
3
-61
-107
-124
-126
-128
-129
-125
-124
-120
-113
-114
-127
-133
-123
-101
-92
-103
-81
-14
13
-40
-103
-117
-88
-68
-88
-92
-75
-94
-104
-88
-118
-119
-24
58
218
481
390
-130
-411
-253
-136
-179
-151
-85
-88
-95
-74
-56
-37
-23
-31
-31
-4
13
18
51
116
177
227
285
338
366
376
374
341
268
189
138
104
68
46
47
42
33
41
50
43
42
41
21
5
15
27
18
-1
5
41
60
32
-20
-60
-70
-72
-96
-116
-114
-110
-87
-65
-93
-89
-9
81
312
662
596
20
-352
-263
-175
-230
-224
-182
-179
-168
-145
-141
-129
-107
-92
-77
-56
-31
0
33
68
113
166
216
259
287
295
284
250
184
103
36
-5
-35
-62
-71
-73
-85
-75
-36
-21
4
90
174
307
605
898
1041
1259
1535
1390
729
39
-348
-491
-533
-550
-566
-580
-597
-614
-624
-647
-685
-710
-729
-767
-799
-788
-750
-703
-612
-453
-270
-108
33
132
160
140
103
52
2
-24
-28
-39
-64
-70
-47
-27
-26
-27
-24
-19
-12
-8
-6
6
22
24
22
32
37
30
31
46
59
58
52
53
54
49
51
58
47
27
26
36
37
43
83
151
202
194
153
132
128
122
139
158
125
109
161
156
113
215
372
493
755
915
506
-68
-132
59
53
10
60
53
