# session 168
4
-11
-9
-8
-21
-26
-13
-6
-12
-14
-9
-6
-1
3
6
5
-2
-12
-10
3
7
-2
-12
-15
-11
-7
-12
-16
-8
-9
-26
-30
-18
-13
-16
-18
-23
-23
-15
-16
-25
-25
-26
-30
-21
-8
-19
-33
-22
-13
-31
-48
-44
-46
-67
-75
-54
-36
-33
-14
29
54
40
9
-18
-31
-31
-33
-37
-31
-39
-59
-45
-33
-64
-50
31
124
339
601
464
-42
-302
-200
-140
-185
-175
-154
-171
-170
-161
-165
-155
-141
-141
-131
-111
-108
-103
-75
-43
-18
7
37
78
125
161
183
201
210
207
202
191
156
108
72
44
5
-26
-40
-57
-74
-76
-69
-67
-67
-63
-47
-2
122
351
620
874
1084
1086
836
684
737
528
-47
-427
-398
-301
-302
-317
-336
-361
-373
-388
-391
-365
-342
-337
-326
-304
-286
-265
-236
-207
-186
-168
-143
-116
-103
-95
-80
-67
-74
-91
-94
-85
-80
-83
-86
-81
-63
-47
-52
-67
-66
-41
-17
6
78
183
273
441
736
993
1230
1610
1835
1454
676
35
-297
-407
-405
-418
-459
-457
-433
-440
-453
-447
-447
-466
-490
-514
-544
-571
-588
-609
-624
-600
-542
-468
-359
-222
-94
21
123
198
251
266
225
164
113
62
27
28
33
24
18
13
7
9
15
1
-28
-15
46
39
-23
30
166
265
363
319
-32
-321
-219
-40
-51
-84
-61
-54
-40
-17
-32
-52
-37
-13
1
16
33
38
44
96
181
230
261
327
380
387
400
402
325
218
148
79
0
-29
-24
-55
-102
-111
-94
-86
-94
-98
-81
-69
-91
-104
-78
-67
-95
-108
-75
-41
-30
39
209
372
487
677
893
1006
1243
1725
1895
1281
344
-214
-356
-402
-452
-460
-451
-459
-461
-450
-452
-463
-465
-472
-502
-537
-557
-580
-617
-642
-638
-623
-590
-510
-400
-295
-193
-78
27
81
85
86
95
76
44
33
32
26
22
19
16
17
17
16
20
29
31
20
10
13
18
15
14
13
7
4
4
2
-2
-2
3
5
-9
-42
-67
-55
-34
-48
-65
-12
76
91
46
18
-1
-16
2
13
-17
-24
-9
-25
-20
4
-42
-59
58
187
393
760
779
193
-284
-222
-100
-167
-191
-151
-155
-159
-149
-163
-172
-147
-110
-97
-113
-122
-93
-51
-27
1
49
89
113
152
196
213
221
242
236
191
146
113
69
13
-31
-52
-69
-92
-95
-83
-86
-92
-89
-97
-95
-57
-23
12
93
179
310
590
893
1112
1450
1800
1599
803
43
-304
-361
-315
-277
-301
-344
-364
-375
-381
-367
-351
-360
-382
-390
-400
-432
-453
-447
-438
-431
-405
-342
-241
-132
-41
41
101
120
107
84
67
61
43
12
7
17
5
9
32
24
7
17
23
20
23
27
45
60
30
10
46
58
24
20
45
35
1
0
26
16
-12
8
31
1
-17
0
-22
-79
-86
-55
-57
-91
-101
-82
-65
-66
-86
-114
-129
-131
-137
-153
-166
-156
-131
-121
-117
-81
-22
1
-28
-60
-60
-49
-48
-37
-13
-5
-9
7
33
21
5
66
180
260
262
118
-158
-309
-198
-53
-43
-58
-38
-40
-54
-40
-24
-37
-52
-40
-19
-9
-3
12
25
36
58
87
121
176
232
257
270
303
333
328
305
292
274
230
170
109
55
25
11
-6
-20
-20
-26
-36
-20
0
-14
-44
-44
-16
1
-9
-23
-26
-40
-47
-20
-9
-44
-34
45
86
60
36
26
5
-4
10
15
-1
-9
-8
-13
-3
10
-11
-23
25
123
265
315
74
-258
-297
-136
-84
-112
-97
-85
-95
-91
-83
-84
-85
-88
-92
-89
-82
-73
-59
-39
-18
10
56
120
178
216
255
296
313
298
268
216
137
63
25
5
-29
-63
-67
-55
-65
-83
-83
-86
-107
-113
-104
-108
-115
-106
-104
-113
-110
-108
-133
-153
-127
-100
-115
-114
-59
-24
-52
-87
-103
-125
-145
-145
-147
-158
-152
-143
-156
-157
-139
-149
-141
-46
95
276
413
223
-210
-380
-218
-119
-156
-156
-130
-128
-113
-105
-126
-132
-113
-102
-99
-91
-80
-59
-23
12
37
69
124
200
277
332
374
410
421
394
333
255
181
112
38
-18
-47
-70
-87
-82
-71
-74
-81
-79
-66
-54
-54
-54
-43
-31
-4
61
178
362
589
768
852
836
721
654
715
594
121
-280
-318
-264
-303
-314
-290
-308
-329
-322
-318
-325
-330
-330
-324
-313
-304
-297
-277
-242
-208
-175
-133
-94
-67
-46
-24
2
24
20
6
13
22
1
-22
-16
-9
-18
-12
11
13
-2
10
33
25
18
62
160
334
587
834
1030
1168
1129
892
667
533
337
62
-158
-284
-343
-358
-360
-363
-352
-342
-358
-388
-414
-434
-452
-463
-469
-489
-518
-517
-490
-484
-504
-495
-431
-342
-256
-176
-97
-20
43
78
94
110
118
111
101
96
93
93
94
88
75
60
57
67
66
51
42
40
27
15
20
26
21
20
21
15
10
15
24
34
45
43
29
28
44
63
77
74
57
62
82
77
58
70
104
130
138
130
123
124
116
90
75
83
86
72
61
52
32
10
-9
-31
-43
-30
-17
-25
-19
36
94
91
58
46
36
16
13
27
37
32
19
28
44
22
26
122
254
442
654
539
49
-265
-184
-85
-116
-115
-90
-104
-110
-104
-113
-115
-117
-137
-152
-139
-111
-94
-99
-110
-90
-25
33
48
64
115
163
181
183
172
147
122
91
33
-31
-68
-91
-119
-136
-137
-135
-131
-121
-115
-117
-113
-104
-102
-106
-105
-112
-133
-151
-152
-142
-137
-141
-135
-103
-73
-78
-105
-129
-145
-149
-137
-129
-140
-144
-138
-136
-118
-97
-114
-92
29
161
287
363
147
-259
-369
-167
-62
-95
-77
-45
-55
-55
-44
-46
-47
-47
-53
-48
-30
-6
25
50
66
100
159
221
288
365
435
482
503
498
460
378
269
176
101
22
-42
-66
-80
-100
-102
-89
-87
-79
-51
-25
11
98
203
305
496
769
982
1197
1550
1725
1302
522
-41
-242
-301
-359
-410
-428
-426
-430
-440
-441
-443
-460
-480
-497
-519
-542
-568
-603
-631
-624
-593
-543
-448
-317
-192
-77
38
118
142
129
87
40
26
12
-26
-37
-21
-34
-59
-57
-60
-71
-56
-31
-30
-36
-35
-38
-45
-42
-38
-38
-29
-10
-5
-12
-10
-5
-12
-20
-18
-21
-36
-46
-44
-44
-49
-43
-34
-53
-79
-78
-64
-59
-58
-66
-65
-19
37
34
-3
-16
-13
-13
-14
-26
-30
1
35
48
39
3
24
148
260
398
637
617
136
-247
-168
-14
-33
-55
-36
-39
-40
-45
-70
-73
-54
-48
-52
-51
-43
-26
-11
3
25
50
79
128
189
238
278
313
333
343
342
315
263
205
153
113
77
44
29
24
13
14
25
35
85
170
234
354
583
783
970
1272
1378
909
200
-188
-260
-285
-327
-358
-386
-403
-414
-427
-432
-437
-452
-462
-466
-482
-507
-540
-567
-563
-536
-509
-457
-366
-261
-165
-87
-33
-2
2
-32
-75
-93
-101
-112
-107
-87
-77
-66
-37
-11
-1
5
17
29
30
23
13
1
-8
-14
-23
-36
-41
-41
-49
-56
-49
-47
-60
-67
-59
-53
-52
-48
-39
-33
-35
-38
-29
-8
-3
-21
-41
-43
-24
-7
-12
0
65
119
105
75
69
56
44
61
78
67
58
63
64
56
34
38
111
209
339
538
544
159
-220
-220
-77
-54
-66
-49
-49
-51
-42
-50
-59
-52
-45
-46
-43
-35
-29
-23
-9
20
57
91
134
192
242
273
299
323
331
320
294
255
206
156
107
65
38
19
-9
-30
-26
-22
-30
-24
-6
26
107
194
270
453
722
929
1151
1386
1250
648
42
-264
-374
-405
-399
-406
-424
-426
-419
-415
-424
-446
-469
-490
-517
-548
-574
-597
-610
-598
-557
-496
-411
-299
-176
-63
30
92
108
87
50
12
-12
-23
-41
-61
-64
-56
-58
-54
-42
-46
-60
-58
-45
-41
-48
-58
-62
-53
-48
-55
-51
-31
-28
-42
-37
-23
-33
-40
-13
9
-2
-9
5
8
2
6
10
-11
-42
-43
-18
-27
-57
-35
30
60
44
25
13
2
-2
-10
-21
-7
11
1
3
20
-18
-25
99
242
431
737
732
175
-291
-235
-82
-111
-131
-107
-127
-140
-121
-118
-127
-121
-104
-84
-73
-64
-40
-4
26
50
83
130
187
248
298
334
366
396
402
383
355
315
254
185
128
85
54
40
25
-10
-23
11
45
84
164
244
361
591
817
1008
1331
1533
1130
372
-106
-249
-323
-367
-376
-412
-451
-453
-455
-478
-503
-528
-556
-577
-597
-627
-649
-646
-626
-589
-519
-426
-320
-197
-71
34
104
130
113
75
39
7
-18
-37
-49
-62
-71
-74
-78
-89
-89
-84
-93
-102
-90
-81
-83
-76
-65
-68
-78
-78
-69
-63
-66
-56
-36
-39
-53
-38
-16
-16
-7
18
19
4
4
11
13
17
14
5
6
17
18
20
54
99
105
78
64
53
25
14
32
50
58
54
47
56
50
26
73
182
299
494
631
367
-112
-271
-141
-90
-117
-93
-73
-79
-71
-64
-66
-58
-51
-47
-35
-19
-10
-2
15
44
78
112
152
195
225
253
292
319
321
318
317
288
226
164
118
72
31
-2
-35
-62
-68
-73
-90
-99
-102
-112
-101
-65
-51
-26
52
137
261
497
705
840
1097
1312
1032
377
-114
-295
-352
-374
-379
-390
-404
-410
-413
-408
-400
-397
-394
-389
-387
-396
-414
-431
-447
-464
-467
-437
-383
-315
-224
-112
-4
78
122
123
96
56
14
-21
-47
-69
-88
-108
-131
-136
-119
-112
-121
-121
-116
-121
-128
-128
-129
-133
-141
-143
-138
-136
-132
-116
-109
-119
-121
-107
-90
-74
-62
-53
-44
-54
-84
-88
-57
-33
-36
-28
35
124
163
143
118
111
102
91
82
80
90
90
88
109
96
69
174
350
482
700
843
489
-62
-162
33
61
2
27
42
26
39
50
40
45
62
62
58
77
101
106
113
141
181
229
282
321
355
400
446
468
465
450
423
369
284
197
135
89
59
46
15
-15
4
17
15
103
236
338
540
817
1039
1389
1779
1533
599
-178
-400
-418
-460
-489
-507
-520
-508
-492
-482
-471
-471
-493
-520
-559
-627
-681
-718
-846
-1052
-1131
-1022
-871
-742
-599
-441
-304
-214
-174
-173
-186
-192
-194
-207
-212
-188
-170
-183
-179
-154
-162
-192
-184
-151
-128
-111
-65
67
299
520
667
812
888
727
447
307
256
94
-160
-348
-419
-454
-507
-518
-460
-416
-420
-429
-440
-469
-499
-522
-561
-615
-654
-665
-669
-695
-712
-661
-560
-480
-417
-328
-219
-119
-37
27
76
114
139
148
150
159
178
193
199
207
219
228
233
237
241
248
258
255
252
279
307
289
275
328
379
354
325
358
400
401
390
401
430
450
452
466
505
527
520
532
567
579
575
590
612
629
651
664
662
669
683
687
702
741
779
810
845
881
916
959
1004
1038
1056
1065
1078
1101
1113
1104
1113
1162
1197
1175
1141
1140
1155
1157
1145
1151
1180
1196
1197
1208
1196
1169
1223
1368
1530
1611
1347
605
-199
-642
-923
-1337
-1784
-2145
-2515
-2932
-3334
-3720
-4085
-4390
-4664
-4927
-5101
-5237
-5483
-5620
-5273
-4583
-3956
-3435
-2902
-2412
-1992
-1589
-1225
-929
-671
-441
-260
-116
3
101
194
285
366
440
515
585
648
706
762
818
873
918
953
987
1024
1050
1064
1086
1124
1145
1135
1139
1181
1214
1201
1166
1133
1102
1082
1075
1063
1043
1033
1016
982
977
971
910
900
1002
1114
1283
1502
1365
820
480
561
649
584
535
530
522
507
475
446
430
401
379
373
346
305
283
280
280
278
286
316
351
374
395
416
418
405
373
302
190
77
-9
-72
-118
-147
-166
-200
-249
-289
-303
-309
-319
-335
-349
-343
-304
-266
-237
-169
-73
44
247
462
584
788
1093
1037
447
-180
-491
-615
-680
-686
-682
-698
-706
-702
-699
-697
-705
-721
-730
-738
-759
-783
-800
-815
-826
-825
-803
-752
-669
-557
-434
-314
-186
-71
-30
-27
-9
-37
-104
-111
-114
-180
-191
-145
-173
-223
-197
-167
-167
-152
-140
-136
-103
-72
-70
-57
-27
-12
-9
-9
-15
-11
12
28
26
27
44
63
62
50
69
113
124
98
90
119
146
135
110
127
179
196
166
143
131
107
92
97
96
104
122
117
123
150
128
123
232
352
518
837
887
364
-134
-121
27
1
-34
-12
-9
-17
-21
-30
-29
-18
-11
-6
0
4
1
4
34
77
97
110
153
206
240
276
311
318
312
305
273
220
175
127
63
2
-40
-64
-80
-101
-109
-96
-83
-52
11
70
185
399
560
665
913
1077
736
97
-314
-407
-386
-383
-426
-471
-487
-503
-531
-541
-538
-537
-538
-540
-549
-566
-581
-583
-569
-543
-496
-418
-321
-226
-133
-38
36
64
52
24
1
-13
-32
-56
-67
-70
-71
-66
-57
-55
-52
-39
-29
-23
-8
9
16
20
32
48
56
60
71
86
88
80
78
86
102
121
128
121
126
148
158
158
170
191
203
208
212
215
217
216
213
216
224
231
227
203
177
173
172
150
142
179
217
209
176
151
139
142
151
152
161
168
155
160
184
161
161
259
367
526
771
724
228
-145
-82
28
-18
-44
-35
-70
-89
-85
-114
-151
-154
-147
-156
-171
-181
-189
-193
-191
-190
-186
-165
-135
-117
-104
-81
-56
-50
-80
-121
-146
-195
-312
-439
-516
-583
-668
-738
-791
-845
-880
-892
-885
-856
-812
-730
-546
-290
-52
