# session 0
-86
50
176
282
362
432
518
609
677
723
761
783
780
763
750
753
764
773
784
798
802
809
832
848
838
826
825
822
818
824
830
825
821
823
821
811
804
785
755
744
742
716
697
697
665
629
637
639
608
592
579
545
522
508
482
455
436
422
410
384
351
331
305
279
283
277
235
234
279
284
240
150
-13
-146
-139
-85
-86
-95
-95
-128
-175
-204
-250
-306
-329
-337
-321
-283
-292
-241
42
355
507
644
608
119
-379
-395
-249
-276
-316
-301
-304
-279
-257
-307
-323
-260
-239
-273
-276
-254
-245
-242
-242
-245
-232
-200
-180
-179
-171
-157
-150
-139
-127
-125
-107
-80
-135
-350
-721
-1110
-1274
-1136
-912
-796
-750
-690
-631
-599
-567
-513
-454
-410
-372
-327
-282
-249
-237
-248
-268
-259
-197
-137
-153
-195
-170
-110
-83
-75
-73
-74
-39
5
-12
-35
4
30
4
2
28
33
33
28
11
34
81
70
40
51
35
-19
-13
37
34
29
90
132
101
107
204
289
294
285
321
364
370
363
356
325
301
337
379
364
345
348
333
335
379
387
349
338
345
335
314
294
391
656
874
988
1166
1176
735
249
160
240
214
172
175
167
147
117
83
93
112
44
-45
-44
-31
-91
-139
-133
-149
-196
-216
-213
-216
-217
-220
-232
-204
-139
-137
-189
-188
-153
-151
-159
-176
-210
-207
-209
-332
-508
-600
-657
-733
-746
-682
-631
-601
-564
-541
-531
-507
-476
-451
-427
-405
-393
-367
-307
-247
-219
-201
-164
-116
-71
-44
-37
-24
-20
-62
-112
-91
-36
-24
-16
46
100
105
135
209
268
286
279
292
406
572
647
665
767
871
793
619
566
624
685
758
815
775
688
633
561
452
388
388
385
347
333
390
441
417
409
453
461
447
435
282
-89
-549
-896
-856
-353
93
-11
-350
-394
-205
-81
-81
-107
-68
13
49
58
51
-15
-95
-183
-345
-445
-359
-289
-314
-241
-111
-89
-91
-88
-152
-156
-131
-342
-613
-624
-631
-819
-910
-952
-1207
-1408
-1258
-1004
-884
-790
-630
-485
-405
-343
-264
-203
-177
-139
-71
-26
-14
8
49
79
109
166
219
228
228
251
269
269
273
280
271
264
262
244
230
238
231
202
195
198
179
162
164
158
149
164
189
198
189
179
180
190
193
193
203
206
186
164
170
196
209
196
182
184
175
151
168
233
271
263
239
211
190
185
171
150
142
139
145
156
131
87
82
86
50
46
75
14
-35
130
318
380
589
766
365
-255
-368
-194
-202
-244
-185
-177
-209
-189
-167
-172
-165
-154
-151
-143
-137
-141
-128
-109
-136
-196
-208
-161
-109
-66
-23
4
22
55
101
142
155
140
140
176
213
222
214
189
145
102
73
51
30
12
-5
-16
-13
-4
-10
-22
-18
-4
2
7
11
10
11
19
25
25
15
-8
-25
-34
-66
-122
-164
-206
-266
-298
-279
-269
-284
-272
-246
-245
-244
-222
-208
-213
-211
-191
-170
-154
-134
-116
-112
-104
-77
-62
-76
-81
-62
-51
-47
-30
-23
-40
-38
-20
-18
-7
45
89
81
45
14
0
-2
-16
-48
-68
-68
-73
-84
-85
-91
-105
-114
-122
-114
-95
-123
-111
52
217
321
489
491
76
-330
-320
-185
-197
-219
-189
-200
-225
-202
-177
-187
-193
-173
-160
-166
-155
-132
-136
-151
-131
-96
-87
-89
-65
-32
-24
-19
20
64
79
112
175
204
209
241
262
257
262
208
148
194
143
23
184
155
-219
696
2960
3467
1369
-292
-211
23
-157
-150
-56
-95
-88
-42
-40
-22
5
9
25
46
50
64
98
124
134
143
151
158
168
194
221
233
241
265
296
318
339
358
365
378
401
392
346
308
271
189
89
29
-3
-54
-125
-173
-193
-213
-230
-233
-252
-255
-176
-149
-401
-839
-1130
-1187
-1197
-1267
-1307
-1209
-1024
-877
-778
-687
-630
-602
-556
-498
-450
-423
-406
-301
-111
45
229
433
311
-144
-387
-250
-110
-109
-96
-62
-57
-36
5
17
9
18
42
66
77
69
63
86
122
152
179
187
176
190
221
228
232
260
292
327
369
395
404
409
418
438
450
427
387
358
333
311
294
271
256
270
282
266
247
243
242
246
254
250
226
200
181
163
145
128
113
104
96
86
76
66
60
48
11
-23
-17
-8
-32
-69
-102
-123
-132
-156
-178
-162
-142
-158
-183
-192
-191
-197
-212
-219
-226
-239
-227
-180
-150
-152
-152
-152
-153
-155
-241
-434
-572
-546
-463
-423
-382
-335
-350
-396
-382
-356
-395
-437
-440
-465
-452
-264
7
213
432
588
370
-65
-174
30
131
103
129
165
152
156
188
202
204
206
196
194
225
251
236
222
237
251
245
237
235
240
257
275
277
279
296
300
301
328
347
339
342
333
285
255
257
216
147
113
94
61
28
2
-14
-17
-23
-29
-31
-38
-50
-55
-62
-76
-81
-75
-78
-79
-60
-58
-89
-97
-76
-100
-148
-139
-103
-116
-150
-143
-122
-139
-165
-143
-100
-102
-135
-133
-108
-123
-163
-159
-131
-143
-162
-139
-111
-90
-41
-4
-34
-73
-67
-61
-86
-116
-133
-125
-94
-82
-111
-130
-104
-89
-116
-116
-80
-104
-133
-12
172
286
403
407
90
-241
-198
1
44
20
33
13
-18
8
36
12
-19
-16
4
19
15
-5
-4
21
34
36
34
18
19
63
91
71
61
95
137
167
182
173
171
206
227
192
154
140
103
40
-7
-41
-76
-100
-114
-121
-119
-119
-128
-134
-131
-132
-131
-119
-112
-115
-118
-119
-106
-78
-67
-84
-100
-102
-103
-104
-98
-85
-84
-102
-107
-81
-67
-92
-114
-102
-74
-70
-93
-98
-73
-60
-74
-88
-80
-57
-39
-25
5
45
63
47
18
3
9
4
-20
-28
-9
4
5
17
43
58
50
66
110
109
114
245
396
495
666
734
432
94
108
241
232
197
203
191
180
183
157
102
86
160
267
284
200
117
81
62
40
15
-1
5
8
-2
0
13
10
11
34
60
73
72
65
60
60
60
40
-18
-68
-68
-72
-121
-153
-141
-140
-167
-185
-180
-164
-158
-170
-183
-196
-218
-222
-189
-170
-192
-207
-196
-192
-199
-196
-177
-165
-179
-194
-183
-172
-170
-153
-137
-145
-149
-138
-138
-144
-134
-127
-141
-158
-158
-152
-155
-149
-121
-105
-87
-17
61
61
0
-48
-55
-48
-71
-116
-125
-107
-114
-131
-136
-140
-120
-89
-77
-53
-30
-44
15
183
337
468
531
317
-48
-145
25
139
131
130
156
166
164
172
184
187
192
203
207
208
216
226
224
215
206
198
197
211
242
260
234
200
213
228
208
210
238
220
179
182
193
162
108
55
15
-4
-32
-80
-107
-109
-126
-137
-117
-113
-143
-156
-138
-118
-115
-123
-119
-102
-102
-110
-91
-62
-59
-59
-39
-25
-18
-4
-3
-23
-28
-20
-24
-35
-44
-57
-53
-30
-22
-44
-73
-85
-86
-88
-86
-73
-63
-42
8
41
22
-11
-30
-53
-78
-90
-99
-108
-111
-109
-112
-120
-116
-106
-118
-120
-97
-119
-131
-19
125
229
364
332
-47
-377
-320
-167
-168
-184
-151
-147
-164
-170
-167
-161
-164
-166
-150
-142
-142
-118
-96
-116
-128
-91
-65
-70
-48
-15
-21
-1
79
119
98
120
184
210
216
239
251
254
265
258
224
192
170
154
158
185
219
250
258
218
171
179
206
196
179
172
136
79
39
14
-5
-11
-22
-46
-56
-41
-26
-26
-22
-4
12
9
1
8
8
-20
-30
-12
-24
-54
-50
-36
-42
-48
-54
-49
-22
-19
-45
-13
62
83
37
-15
-36
-33
-35
-61
-86
-89
-80
-77
-85
-89
-77
-77
-95
-91
-90
-111
-42
113
206
291
399
251
-146
-328
-198
-102
-138
-141
-90
-78
-104
-111
-99
-97
-88
-69
-74
-84
-62
-42
-58
-61
-26
-4
-17
-18
3
15
31
62
79
98
141
163
148
153
177
169
152
166
165
111
49
19
-4
-43
-72
-73
-66
-79
-100
-106
-95
-80
-76
-80
-78
-73
-71
-63
-58
-68
-72
-62
-56
-51
-43
-46
-57
-53
-39
-37
-48
-50
-32
-21
-34
-40
-23
-17
-26
-17
-2
-9
-25
-22
-2
1
-18
-11
23
27
13
48
105
117
96
71
44
29
20
3
-7
-7
-12
-10
3
1
-4
7
7
3
20
3
-27
65
230
326
394
372
92
-216
-215
-65
-37
-58
-34
-24
-34
-24
-9
-11
-10
2
6
-5
-3
12
8
4
22
26
10
18
33
28
41
74
90
105
135
149
153
168
186
200
208
193
160
124
88
51
8
-38
-58
-59
-80
-115
-124
-107
-98
-105
-113
-114
-110
-110
-109
-98
-90
-95
-95
-88
-90
-89
-82
-85
-93
-88
-81
-80
-79
-74
-64
-56
-59
-72
-79
-69
-50
-49
-60
-48
-37
-72
-93
-47
-7
-15
-14
11
37
73
99
76
28
6
4
-15
-45
-63
-69
-56
-28
-28
-50
-39
-34
-67
-59
-28
-51
-19
135
283
408
480
267
-133
-266
-115
-30
-70
-95
-91
-89
-85
-81
-68
-60
-71
-73
-58
-58
-58
-34
-16
-20
-21
-14
-4
15
33
41
61
94
108
117
144
168
179
200
227
249
248
210
175
177
155
88
51
49
31
15
19
15
3
7
26
35
17
-14
-22
-5
5
1
-1
3
6
2
-12
-20
-9
-14
-50
-67
-33
-2
-21
-58
-60
-32
-7
0
-15
-36
-25
4
7
-11
-29
-37
-20
-8
-20
-13
12
15
32
89
122
100
54
14
6
16
-8
-53
-69
-58
-47
-41
-58
-78
-67
-63
-84
-71
-52
-68
-12
135
244
307
284
34
-269
-308
-174
-118
-138
-142
-123
-105
-109
-120
-135
-177
-218
-221
-224
-230
-197
-158
-157
-158
-144
-142
-141
-121
-99
-85
-70
-67
-65
-21
34
47
45
57
73
129
209
227
194
198
221
204
158
115
92
109
156
189
179
143
127
151
178
188
215
249
216
115
26
4
11
-23
-66
-52
-41
-86
-110
-93
-100
-108
-89
-97
-122
-117
-128
-177
-186
-150
-157
-205
-222
-206
-193
-175
-139
-118
-120
-118
-90
-54
-22
27
79
64
-8
-47
-45
-61
-94
-114
-126
-132
-128
-119
-98
-50
19
90
164
228
245
270
403
563
656
765
751
344
-145
-217
-41
12
-12
1
12
18
25
19
30
57
66
72
84
83
71
49
19
29
71
72
45
54
72
58
67
133
198
217
208
206
223
230
201
167
166
179
167
126
71
4
-57
-75
-67
-82
-110
-131
-156
-170
-148
-108
-86
-97
-123
-128
-108
-113
-149
-153
-114
-88
-97
-106
-109
-117
-115
-92
-61
-36
-18
12
51
60
24
-16
-40
-72
-117
-173
-245
-301
-305
-277
-242
-210
-202
-193
-145
-110
-124
-140
-148
-164
-163
-149
-154
-154
-135
-122
-105
-74
-61
-62
-59
-56
-38
-33
-67
-32
97
184
250
277
24
-368
-424
-202
-98
-122
-126
-141
-171
-173
-175
-190
-189
-181
-189
-203
-207
-202
-202
-209
-212
-213
-215
-210
-198
-176
-119
-21
101
229
333
373
354
350
409
484
503
484
489
527
549
534
514
517
529
538
543
525
494
466
422
359
313
286
263
235
208
197
177
101
18
10
37
18
-32
-69
-93
-127
-170
-196
-207
-213
-202
-189
-197
-183
-121
-91
-150
-246
-322
-368
-387
-394
-409
-423
-421
-397
-360
-339
-314
-213
-60
28
46
73
113
131
150
194
232
242
238
228
193
135
94
82
59
31
36
17
-29
38
209
358
487
494
203
-131
-140
15
41
5
28
62
68
71
84
105
116
117
129
135
110
82
82
81
68
76
94
82
61
77
112
128
129
134
137
142
150
167
195
189
114
42
18
-45
-174
-268
-302
-282
-216
-239
-300
-134
-119
-910
-1878
-1763
-779
-133
-114
-166
-64
-26
-80
-26
-4
-185
-211
-87
-201
152
1356
1744
577
-364
-142
153
-366
-1366
-1745
-988
-149
-121
-300
-176
-107
-189
-190
-145
-133
-111
-110
-141
-131
-75
-39
-55
-103
-98
22
132
95
-6
-58
-76
-90
-112
-117
-22
118
132
63
67
65
17
102
273
398
660
914
593
-84
-312
-124
-77
-176
-181
-136
-105
-57
-18
-20
-38
-50
-58
-63
-66
-68
-49
15
102
158
167
181
225
263
274
284
319
379
434
422
394
416
391
418
643
623
329
738
1578
1305
303
168
623
668
511
471
405
379
440
417
342
352
384
340
280
296
345
255
-78
-542
-868
-889
-713
-558
-476
-401
-311
-224
-129
-18
95
180
229
195
-17
-332
-501
-484
-475
-475
-356
-209
-150
-68
106
229
242
291
414
460
381
253
69
-162
-314
-357
-377
-394
-411
-498
-641
-734
-766
-823
-922
-1002
-1073
-1168
-1136
-813
-396
-108
224
601
574
155
-71
48
166
163
135
132
219
362
349
125
-106
-211
-247
-289
-383
-522
-608
-564
-462
-408
-409
-419
-413
-389
-361
-324
-238
-88
64
165
229
275
284
268
278
312
331
337
337
312
267
229
191
157
147
148
149
145
129
135
176
193
170
168
192
209
217
213
191
184
201
198
155
117
121
143
149
159
204
246
235
206
212
229
231
260
321
353
335
305
290
299
320
310
277
279
285
215
100
16
-51
-119
-159
-178
-192
-198
-223
-271
-296
-288
-265
-228
-191
-170
-162
-163
-136
-58
64
229
283
-6
-428
-520
-331
-232
-262
-271
-254
-241
-215
-187
-164
-133
-101
-73
