# session 101
-30
-63
-127
-196
-235
-248
-262
-276
-274
-262
-249
-222
-191
-179
-139
-52
52
260
619
931
1187
1608
1901
1482
542
-192
-477
-544
-552
-539
-541
-555
-541
-522
-542
-573
-581
-594
-625
-642
-641
-611
-539
-440
-333
-215
-104
-14
68
125
124
82
44
27
21
26
43
63
66
50
46
65
78
73
74
84
86
77
68
69
84
98
89
75
91
104
85
79
87
55
28
58
67
22
38
134
181
150
126
114
78
59
77
72
56
88
89
32
87
231
323
489
633
348
-134
-225
-77
-81
-118
-82
-85
-99
-79
-74
-60
-28
-34
-47
-21
6
19
47
93
146
204
248
259
259
275
275
220
146
89
27
-35
-59
-65
-80
-90
-94
-98
-101
-111
-133
-141
-122
-104
-94
-73
-38
-3
9
-27
-86
-117
-120
-108
-92
-97
-102
-96
-120
-129
-58
37
194
398
305
-126
-357
-224
-131
-176
-168
-136
-150
-137
-93
-80
-89
-88
-69
-40
-16
3
43
103
147
178
229
276
278
244
198
147
98
45
-13
-61
-90
-96
-84
-84
-99
-99
-84
-76
-84
-103
-103
-83
-71
-39
30
51
3
-31
-45
-79
-94
-67
-62
-106
-112
-67
-83
-135
-89
32
186
368
322
-67
-355
-272
-135
-145
-160
-137
-124
-112
-114
-123
-97
-61
-58
-62
-41
1
44
76
109
162
217
238
230
229
226
182
99
24
-19
-52
-83
-86
-67
-80
-117
-99
-40
-20
2
84
208
446
812
1108
1371
1785
1958
1390
443
-195
-418
-467
-473
-478
-495
-494
-472
-476
-519
-546
-552
-582
-622
-627
-614
-596
-547
-459
-343
-212
-95
-20
22
48
55
36
7
-17
-36
-40
-19
-10
-34
-44
-11
15
-1
-25
-23
-13
-13
-15
-20
-22
-10
-7
-18
-13
-7
-28
-32
-1
-4
-55
-60
8
52
42
70
161
218
194
156
146
145
147
136
91
68
104
93
46
109
229
343
540
590
197
-239
-240
-77
-83
-120
-88
-75
-80
-77
-83
-73
-47
-50
-55
-22
3
7
43
103
145
181
225
261
270
252
221
183
140
97
43
-20
-60
-69
-79
-92
-100
-108
-111
-110
-119
-126
-112
-97
-88
-39
31
32
-38
-78
-68
-87
-127
-112
-77
-81
-94
-111
-132
-96
-30
57
225
264
-51
-355
-284
-133
-153
-160
-99
-106
-135
-110
-88
-77
-47
-46
-67
-36
29
62
83
127
180
234
276
277
249
221
188
135
64
-9
-52
-63
-84
-115
-113
-84
-78
-94
-104
-110
-116
-92
-55
-51
-42
16
50
14
-24
-33
-38
-48
-67
-87
-89
-71
-45
-54
-97
-77
10
101
211
220
-42
-312
-267
-114
-112
-141
-104
-92
-111
-100
-80
-79
-71
-49
-33
-23
-1
41
90
126
157
213
267
276
262
250
217
159
94
37
-6
-48
-85
-78
-60
-76
-76
-45
-7
70
172
317
637
1014
1249
1561
1931
1711
800
-23
-355
-456
-486
-460
-470
-510
-504
-491
-512
-526
-532
-578
-633
-638
-615
-615
-598
-517
-404
-283
-135
-11
32
44
68
57
6
-24
-24
-27
-25
-14
-14
-24
-26
-17
-2
4
-10
-22
-9
6
-1
-6
10
12
-7
-6
12
5
-1
16
10
-26
-34
-15
-26
-51
-24
58
121
114
73
43
20
17
38
25
-4
31
50
-3
30
164
278
484
678
414
-120
-270
-107
-89
-155
-117
-74
-85
-93
-93
-87
-61
-42
-39
-23
1
15
46
101
139
171
243
303
304
287
265
215
172
152
109
40
-16
-50
-74
-84
-74
-56
-59
-93
-122
-100
-52
-45
-49
12
69
29
-25
-30
-69
-135
-116
-51
-61
-81
-44
-78
-180
-145
12
154
285
254
-77
-358
-300
-161
-152
-164
-157
-154
-126
-98
-104
-106
-87
-70
-62
-46
-8
39
76
124
187
231
256
282
286
244
174
92
13
-35
-56
-81
-107
-115
-110
-103
-95
-94
-104
-113
-95
-58
-37
-38
-14
35
45
3
-29
-35
-58
-84
-76
-71
-86
-68
-43
-80
-98
-27
89
262
385
180
-207
-302
-148
-110
-161
-134
-92
-96
-97
-92
-87
-69
-59
-56
-36
-7
24
66
109
148
190
228
251
268
258
208
151
101
39
-11
-29
-54
-101
-119
-88
-47
-37
-34
12
89
227
524
855
1052
1333
1726
1646
893
98
-286
-406
-456
-471
-465
-454
-445
-453
-478
-501
-510
-524
-552
-568
-568
-564
-532
-458
-356
-236
-108
-7
43
53
44
35
33
30
3
-47
-70
-46
-22
-28
-37
-23
1
3
-13
-15
1
-1
-17
-13
-2
-12
-6
30
32
-2
-7
10
-11
-47
-38
-3
-2
-21
10
91
132
94
53
55
51
23
21
33
32
37
25
14
97
223
331
496
508
106
-306
-266
-76
-84
-123
-89
-92
-101
-64
-54
-77
-65
-34
-18
-5
13
35
75
134
191
235
270
308
341
329
267
217
205
157
37
-60
-65
-52
-81
-114
-113
-102
-107
-127
-132
-97
-60
-59
-48
4
36
11
-28
-58
-79
-84
-73
-79
-104
-98
-75
-106
-136
-77
35
227
448
348
-95
-345
-228
-126
-164
-168
-139
-141
-138
-117
-106
-103
-95
-86
-78
-60
-23
17
47
88
146
190
207
223
233
209
150
79
20
-21
-49
-69
-81
-88
-93
-87
-68
-67
-101
-122
-96
-52
-37
-45
-20
39
53
6
-24
-24
-48
-72
-57
-50
-70
-61
-55
-102
-104
-10
123
331
497
293
-143
-290
-153
-109
-156
-132
-102
-117
-111
-96
-105
-99
-67
-48
-43
-14
28
59
92
152
207
218
225
259
261
205
159
134
82
21
-22
-49
-53
-43
-46
-41
-11
36
84
103
198
506
817
938
1115
1297
979
280
-172
-291
-338
-355
-344
-359
-357
-337
-355
-386
-387
-390
-412
-434
-451
-457
-431
-384
-322
-229
-118
-30
25
58
66
51
25
-3
-23
-31
-32
-25
-19
-21
-24
-26
-28
-24
-26
-35
-31
-23
-25
-28
-29
-33
-33
-36
-48
-54
-41
-30
-35
-45
-50
-69
-96
-84
-39
-21
-23
18
75
76
37
10
-5
-13
-2
7
-5
11
34
-1
-5
97
217
377
558
414
-60
-306
-178
-75
-99
-88
-71
-86
-69
-47
-55
-42
-13
-13
-14
17
52
85
126
164
205
270
329
346
348
351
322
261
199
135
70
20
-12
-32
-44
-58
-72
-73
-67
-72
-83
-81
-55
-36
-39
-16
45
69
26
-22
-41
-65
-86
-77
-80
-98
-65
-39
-98
-106
-7
110
328
529
283
-227
-361
-182
-138
-182
-149
-135
-159
-146
-122
-116
-109
-102
-92
-70
-51
-26
21
69
106
151
201
231
239
230
198
136
59
-7
-56
-98
-117
-115
-128
-155
-159
-144
-132
-133
-158
-181
-154
-106
-95
-89
-45
-6
-24
-70
-97
-104
-105
-101
-107
-117
-97
-97
-163
-172
-49
151
449
676
420
-144
-362
-216
-162
-223
-207
-166
-164
-164
-163
-151
-119
-110
-118
-90
-50
-29
22
96
127
145
216
287
286
249
224
189
127
64
11
-34
-57
-65
-84
-96
-70
-43
-28
34
118
203
442
823
1115
1436
1961
2165
1536
535
-147
-431
-520
-520
-511
-522
-533
-545
-552
-555
-587
-635
-657
-670
-702
-720
-686
-612
-524
-419
-284
-149
-51
8
43
55
45
19
-3
8
24
5
-13
8
26
22
30
32
10
12
40
43
43
73
82
94
246
541
827
1095
1396
1514
1292
997
849
652
284
-77
-300
-395
-394
-359
-332
-318
-332
-380
-433
-467
-497
-555
-630
-672
-682
-690
-687
-660
-614
-535
-427
-322
-234
-159
-87
-15
39
55
52
61
78
91
108
124
122
106
98
107
122
119
96
93
111
99
74
85
98
80
59
56
57
54
50
43
34
34
43
33
6
8
41
42
-4
-44
-48
-31
-19
-28
-22
36
97
91
46
17
-3
-24
-20
-14
-25
-15
-7
-26
9
120
268
437
424
70
-272
-261
-114
-85
-101
-92
-84
-77
-75
-73
-57
-49
-53
-41
-17
6
42
82
111
152
215
262
284
305
310
274
228
191
125
35
-13
-23
-49
-78
-83
-87
-94
-92
-87
-81
-84
-91
-55
-2
21
98
237
345
515
775
962
1195
1531
1454
753
24
-312
-410
-430
-417
-434
-468
-476
-476
-484
-499
-512
-504
-497
-520
-536
-510
-483
-468
-403
-274
-146
-53
14
47
39
12
-21
-54
-80
-98
-111
-118
-121
-120
-111
-95
-86
-97
-109
-101
-90
-96
-96
-85
-88
-94
-87
-89
-109
-131
-136
-111
-81
-75
-51
13
40
-1
-35
-24
-13
-12
-2
-6
-19
17
48
3
11
140
259
395
552
381
-106
-325
-162
-55
-87
-71
-50
-75
-73
-52
-45
-25
-7
-19
-10
42
84
99
137
207
268
322
382
426
433
411
370
317
248
159
72
20
-11
-50
-75
-51
-26
-33
9
98
154
318
711
1060
1258
1592
1874
1505
614
-101
-391
-468
-488
-489
-480
-471
-484
-514
-535
-537
-543
-580
-641
-667
-648
-625
-588
-506
-391
-249
-102
-10
24
51
61
28
-17
-42
-45
-49
-64
-65
-58
-74
-82
-54
-40
-62
-68
-47
-40
-59
-76
-72
-57
-52
-60
-57
-47
-50
-52
-40
-41
-66
-83
-83
-81
-70
-56
-49
-13
57
79
34
9
22
1
-33
-21
0
7
16
-1
1
91
191
335
586
573
92
-290
-215
-84
-122
-131
-93
-102
-100
-65
-58
-71
-66
-52
-34
1
33
46
77
149
211
246
287
321
328
329
311
261
215
166
81
9
-14
-40
-72
-64
-44
-61
-84
-82
-95
-112
-65
-7
-29
-48
28
87
39
-27
-34
-37
-63
-67
-54
-58
-35
9
-4
6
164
418
716
909
656
63
-273
-238
-204
-246
-236
-216
-214
-186
-175
-201
-207
-191
-184
-170
-155
-166
-161
-114
-94
-96
-43
30
50
61
88
83
62
54
10
-58
-68
-38
-45
-72
-68
-52
-57
-77
-90
-75
-32
-7
-7
14
60
79
56
13
-33
-53
-41
-31
-37
-48
-48
-35
-44
-64
-23
77
230
418
391
25
-276
-226
-101
-114
-137
-108
-90
-87
-84
-78
-60
-41
-30
-6
36
61
80
137
202
225
252
316
347
315
279
247
185
105
38
-4
-29
-52
-73
-73
-58
-56
-73
-87
-90
-87
-80
-65
-42
-19
9
37
42
16
-22
-55
-81
-98
-90
-74
-83
-87
-78
-115
-143
-70
60
251
435
277
-189
-388
-205
-93
-155
-162
-126
-142
-139
-90
-76
-98
-98
-76
-55
-29
-5
11
60
146
207
232
274
326
325
272
219
161
69
-25
-69
-69
-68
-81
-89
-88
-98
-98
-79
-99
-139
-98
-27
-41
-79
-31
46
67
42
11
-13
-42
-77
-79
-49
-34
-20
-21
-74
-76
40
182
371
540
329
-178
-356
-147
-46
-109
-97
-61
-82
-76
-39
-30
-27
-10
-11
-20
-1
34
72
123
185
246
297
328
344
351
320
247
165
77
-16
-69
-88
-121
-150
-148
-151
-160
-149
-143
-157
-160
-150
-146
-138
-128
-114
-69
-21
-43
-108
-136
-147
-184
-197
-169
-142
-106
-85
-133
-151
-63
59
277
537
416
-83
-343
-224
-136
-171
-172
-153
-143
-121
-118
-127
-109
-79
-60
-45
-26
6
38
70
138
214
236
253
308
315
270
254
201
65
-4
31
20
-56
-88
-80
-79
-66
-52
-54
14
132
171
281
633
950
1126
1475
1757
1346
475
-129
-360
-461
-473
-444
-456
-467
-446
-445
-470
-488
-497
-511
-538
-571
-575
-533
-471
-408
-325
-211
-91
-2
45
58
52
41
29
3
-24
-27
-18
-26
-38
-28
-9
-9
-26
-29
-6
8
-16
-34
-4
12
-22
-25
15
15
0
24
21
-11
14
54
18
-29
-7
13
-24
-41
2
21
6
53
124
108
65
86
89
33
14
39
27
9
44
40
-16
31
152
231
389
534
289
-163
-276
-120
-66
-92
-87
-96
-100
-71
-69
-86
-52
3
7
-11
16
58
72
97
142
167
193
250
282
270
266
262
208
129
78
50
8
-43
-59
-53
-70
-89
-79
-78
-97
-99
-100
-125
-133
-98
-67
-77
-73
-3
50
0
-69
-76
-83
-117
-115
-91
-102
-107
-85
-103
-135
-99
0
223
539
543
72
-321
-276
-131
-143
-174
-155
-143
-144
-134
-111
-100
-104
-82
-43
-39
-38
9
58
77
108
173
242
285
285
256
221
168
94
33
-14
-60
-78
-72
-83
-101
-93
-85
-97
-95
-82
-88
-104
-106
-88
-69
-63
-37
40
97
70
15
-14
-30
-36
-33
-37
-47
-38
-16
-35
-68
-19
79
222
519
693
338
-183
-275
-121
-102
-124
-87
-88
-110
-94
-78
-78
-69
-56
-46
-36
-21
2
43
91
133
171
216
256
269
251
220
185
139
73
5
-41
-68
-88
-96
-91
-85
-84
-92
-106
-113
-114
-120
-127
-123
-116
-112
-91
-37
8
6
-22
-54
-80
-90
-95
-107
-117
-116
-96
-77
-112
-145
-80
82
350
603
469
-24
-306
-228
-163
-194
-175
-152
-164
-147
-120
-119
-123
-118
-97
-65
-57
-50
-2
50
85
129
167
188
209
224
217
187
125
49
-10
-47
-67
-79
-94
-109
-108
-94
-88
-92
-86
-73
-85
-111
-113
-98
-87
-62
-9
57
130
203
292
482
733
876
1059
1522
1793
1251
308
-211
-302
-358
-401
-368
-357
-392
-409
-407
-404
-390
-391
-434
-465
-446
-438
-458
-438
-378
-321
-228
-79
48
122
177
190
145
101
81
41
-9
-17
-1
-9
-21
-4
4
-11
-4
11
-3
-16
-7
-7
-7
10
17
6
2
11
14
-10
-40
-33
-16
-29
-23
48
117
115
79
65
58
38
25
28
28
15
14
37
46
12
