# session 56
-1
16
42
46
34
44
65
70
81
113
132
128
147
198
241
282
342
392
437
507
543
502
450
408
325
227
149
61
-6
-10
-17
-56
-70
-60
-63
-70
-72
-71
-58
-42
-49
-69
-81
-83
-64
-9
36
30
9
2
-8
-16
-13
-31
-67
-71
-46
-46
-64
-49
-35
-62
-33
73
144
260
433
301
-152
-370
-219
-112
-151
-150
-124
-141
-148
-132
-135
-143
-123
-99
-97
-94
-65
-31
-10
10
53
122
196
250
288
307
291
247
186
101
9
-66
-131
-178
-181
-159
-154
-163
-162
-148
-131
-120
-121
-134
-141
-120
-94
-103
-114
-70
9
59
51
12
-10
3
7
-12
-22
-22
-31
-36
-37
-47
-33
-15
-49
-50
44
132
234
362
225
-196
-402
-257
-139
-153
-135
-97
-101
-95
-68
-57
-52
-34
-14
0
21
45
61
82
122
177
229
277
338
399
417
405
391
351
267
173
92
39
16
-5
-33
-46
-47
-66
-88
-43
55
122
241
512
750
845
1000
1112
802
234
-112
-214
-280
-321
-333
-372
-412
-419
-417
-437
-472
-501
-517
-541
-575
-596
-601
-589
-539
-441
-309
-171
-49
54
127
150
135
115
90
50
21
19
17
1
-7
-2
-1
-2
-4
-10
-13
-11
-19
-30
-29
-27
-30
-26
-19
-33
-56
-51
-24
-20
-37
-40
-38
-37
-28
-26
-36
-32
-15
-6
-5
-6
6
19
6
-9
2
26
64
116
119
70
48
56
45
28
27
30
40
37
25
51
58
3
46
205
348
585
797
463
-218
-442
-239
-163
-201
-165
-152
-176
-158
-128
-110
-93
-89
-80
-49
-19
-1
26
71
133
198
252
306
378
448
468
435
404
383
309
194
103
28
-50
-88
-86
-112
-160
-174
-161
-161
-167
-152
-128
-101
-41
28
45
32
32
-1
-73
-97
-90
-130
-158
-120
-91
-71
-7
20
60
299
604
803
972
883
276
-323
-390
-260
-282
-311
-276
-270
-270
-259
-262
-255
-239
-244
-249
-240
-243
-254
-246
-227
-205
-162
-95
-20
52
112
153
170
148
85
20
-22
-56
-94
-114
-108
-106
-129
-142
-126
-129
-156
-145
-106
-95
-91
-63
-43
-30
17
79
103
81
49
26
21
16
-22
-60
-48
-46
-76
-54
-26
-53
8
151
247
470
747
511
-114
-336
-141
-78
-147
-131
-111
-133
-123
-109
-113
-102
-92
-95
-83
-61
-44
-14
34
89
160
240
311
373
428
448
425
374
299
210
131
59
-5
-36
-48
-71
-90
-81
-70
-78
-82
-68
-60
-63
-57
-51
-51
-23
12
10
14
43
20
-40
-58
-72
-125
-142
-110
-114
-131
-112
-129
-162
-78
37
116
385
687
459
-135
-375
-250
-198
-226
-199
-183
-191
-172
-142
-113
-87
-76
-66
-46
-28
-2
36
69
100
145
201
260
306
329
336
326
272
179
93
28
-30
-66
-74
-86
-102
-107
-114
-108
-73
-40
5
74
135
271
537
743
878
1106
1128
611
-14
-251
-271
-324
-351
-340
-363
-386
-378
-376
-391
-404
-427
-463
-492
-518
-562
-600
-596
-560
-496
-384
-238
-95
39
156
213
199
158
123
100
88
80
73
74
76
70
63
60
55
51
45
27
6
-4
-8
-12
-17
-29
-42
-39
-25
-25
-33
-27
-10
-2
-1
2
6
7
14
22
10
-13
-3
35
42
10
10
76
144
141
90
57
49
47
40
16
12
52
33
-26
68
254
415
693
860
424
-224
-344
-142
-116
-156
-115
-103
-111
-98
-124
-147
-101
-67
-79
-63
-32
-32
-4
71
121
158
238
317
346
361
373
349
295
230
148
65
-6
-76
-127
-151
-185
-229
-223
-180
-175
-207
-205
-167
-143
-138
-140
-149
-121
-41
9
-22
-73
-95
-115
-134
-129
-129
-147
-128
-101
-142
-119
68
224
301
404
263
-226
-503
-333
-173
-196
-186
-148
-167
-183
-167
-142
-117
-121
-129
-100
-62
-38
-1
37
78
161
268
345
399
447
457
412
336
234
110
8
-52
-99
-143
-169
-185
-192
-185
-178
-166
-126
-72
-15
61
180
382
640
846
1071
1505
1973
1989
1388
536
-91
-340
-389
-428
-468
-470
-466
-486
-509
-518
-542
-590
-635
-673
-720
-770
-811
-833
-806
-705
-571
-435
-271
-97
17
75
121
130
91
61
62
62
44
22
14
17
24
36
50
51
40
30
24
17
10
16
33
39
36
45
54
47
40
48
55
52
40
17
-1
11
31
14
-16
15
96
142
119
77
55
43
45
59
51
43
62
39
12
118
266
384
640
785
355
-245
-326
-125
-123
-190
-156
-140
-168
-171
-164
-151
-117
-103
-112
-99
-71
-51
-11
55
105
147
212
280
329
363
369
342
296
220
120
44
-3
-55
-114
-156
-172
-165
-156
-161
-162
-150
-140
-133
-123
-115
-106
-96
-97
-99
-80
-51
-44
-71
-105
-123
-126
-119
-103
-103
-110
-80
-62
-94
-53
88
197
327
455
252
-200
-359
-196
-111
-139
-123
-100
-110
-105
-78
-59
-64
-73
-42
0
5
12
55
95
131
183
228
274
355
416
396
339
288
222
141
66
-5
-54
-72
-80
-85
-79
-68
-55
-55
-66
-52
-19
9
60
141
238
409
623
784
1002
1297
1271
762
193
-120
-272
-347
-352
-355
-376
-379
-383
-406
-425
-442
-474
-512
-548
-585
-618
-648
-671
-657
-598
-511
-393
-236
-75
52
143
197
203
168
122
88
65
44
17
-7
-14
-18
-33
-39
-21
-10
-24
-45
-51
-42
-30
-33
-38
-27
-12
-3
8
14
11
11
5
-28
-50
-26
-8
-39
-54
5
82
99
67
58
63
35
19
46
49
44
80
62
18
149
346
469
716
867
410
-228
-313
-117
-123
-176
-144
-146
-151
-124
-126
-142
-131
-102
-74
-67
-62
-21
17
36
94
190
257
296
355
405
394
354
322
252
145
65
3
-80
-140
-157
-175
-195
-192
-189
-192
-187
-196
-207
-178
-156
-185
-189
-115
-41
-24
-36
-55
-67
-81
-115
-125
-89
-60
-39
-30
-59
-7
168
314
523
808
649
23
-284
-113
-26
-90
-62
-20
-41
-35
-11
-14
-9
17
38
47
59
75
88
107
151
216
284
340
380
396
385
344
270
171
71
-12
-72
-138
-247
-391
-529
-628
-651
-597
-516
-452
-409
-380
-350
-303
-261
-240
-187
-47
132
299
502
718
865
1060
1436
1758
1631
1012
252
-263
-435
-440
-450
-482
-492
-484
-486
-503
-520
-532
-549
-574
-603
-638
-678
-699
-686
-646
-577
-464
-328
-204
-88
30
114
137
129
120
103
75
53
54
67
68
61
65
74
85
103
112
108
108
111
106
103
107
111
109
93
65
51
68
92
86
67
94
165
208
177
121
101
101
77
62
75
87
95
83
43
71
171
280
477
632
373
-120
-269
-109
-52
-96
-80
-59
-75
-75
-68
-74
-67
-44
-22
-6
10
29
51
73
105
150
200
250
294
320
322
306
277
229
155
63
-17
-69
-102
-129
-151
-164
-166
-165
-170
-170
-168
-166
-152
-134
-139
-139
-96
-63
-95
-147
-160
-146
-148
-163
-174
-179
-167
-141
-152
-168
-86
52
154
225
144
-172
-405
-315
-155
-132
-130
-97
-98
-114
-109
-97
-79
-56
-44
-40
-29
-7
28
71
120
175
232
288
348
389
394
383
343
249
143
76
17
-55
-107
-129
-132
-124
-120
-124
-121
-114
-108
-87
-58
-46
-42
-7
71
159
227
276
361
509
630
704
906
1199
1185
711
147
-162
-260
-308
-333
-321
-315
-333
-349
-366
-383
-378
-377
-415
-464
-492
-514
-535
-536
-517
-482
-411
-299
-178
-57
55
127
153
148
108
50
27
29
10
-11
-5
4
4
13
27
31
36
42
40
35
37
38
28
11
1
13
33
29
16
41
98
120
86
46
27
12
-4
-2
1
-16
-13
5
-20
-7
110
229
388
591
442
-109
-418
-275
-152
-187
-166
-127
-164
-192
-169
-145
-140
-136
-120
-87
-53
-37
-14
43
102
139
194
279
347
391
421
407
350
289
202
79
-7
-31
-65
-125
-144
-122
-121
-141
-136
-110
-88
-69
-56
-54
-40
0
32
19
-33
-83
-103
-111
-119
-123
-127
-111
-69
-84
-109
5
163
296
577
723
263
-330
-368
-160
-156
-169
-93
-90
-123
-107
-102
-108
-84
-63
-61
-40
-9
4
11
43
101
176
257
330
374
379
360
322
239
115
12
-56
-125
-180
-185
-173
-176
-177
-175
-189
-201
-182
-149
-133
-139
-137
-92
-6
71
111
148
204
271
378
534
655
767
1052
1435
1466
939
241
-182
-313
-347
-365
-365
-368
-383
-396
-405
-421
-440
-459
-487
-526
-567
-612
-655
-679
-688
-690
-651
-551
-421
-277
-116
27
117
152
143
105
59
34
33
16
-26
-38
-16
-15
-20
5
30
33
41
45
27
22
46
50
15
-5
31
92
119
103
80
61
26
-2
15
36
35
63
81
44
91
224
308
520
853
703
42
-304
-151
-65
-145
-138
-101
-129
-138
-107
-91
-88
-66
-48
-44
-10
65
124
147
166
199
248
308
352
378
398
387
327
249
173
90
14
-42
-83
-116
-127
-127
-135
-144
-143
-149
-150
-124
-117
-147
-129
-52
-27
-75
-111
-105
-104
-124
-137
-129
-122
-112
-82
-85
-115
-53
52
127
348
603
400
-134
-346
-204
-131
-161
-147
-125
-125
-111
-96
-92
-85
-68
-52
-48
-41
-8
32
59
96
156
211
254
297
325
318
282
223
147
66
-4
-53
-83
-101
-117
-129
-134
-135
-143
-153
-153
-139
-116
-108
-111
-76
14
98
138
164
244
407
564
642
782
1037
1106
784
300
-68
-259
-323
-337
-353
-361
-365
-391
-419
-428
-448
-489
-523
-545
-577
-618
-639
-643
-640
-603
-505
-377
-245
-100
44
154
220
235
208
167
122
77
45
27
14
12
18
15
19
28
17
0
12
37
45
41
32
29
49
64
41
27
81
167
200
173
137
112
90
96
132
118
58
77
126
76
78
246
405
605
887
732
36
-382
-223
-74
-146
-171
-138
-147
-140
-109
-105
-125
-140
-130
-102
-82
-62
-32
-9
33
119
211
277
337
387
398
377
322
223
103
11
-48
-104
-158
-188
-196
-197
-198
-203
-206
-192
-165
-150
-160
-154
-90
-12
13
-11
-49
-84
-105
-117
-120
-115
-120
-104
-67
-106
-132
36
206
256
463
610
172
-399
-405
-179
-192
-244
-189
-162
-171
-159
-142
-131
-130
-126
-87
-56
-65
-44
26
68
92
165
253
298
333
371
358
281
186
97
11
-62
-110
-135
-147
-156
-167
-167
-147
-131
-132
-129
-110
-88
-77
-90
-95
-39
59
132
181
239
334
488
644
771
1022
1465
1740
1446
708
39
-261
-314
-334
-363
-366
-370
-389
-395
-398
-427
-463
-491
-516
-535
-558
-609
-656
-657
-624
-569
-488
-385
-267
-132
-1
81
101
96
86
52
9
0
12
4
-10
-10
-4
11
29
21
1
7
26
17
-4
1
7
-11
-9
29
43
30
59
120
136
104
80
67
46
37
54
63
57
69
64
30
82
198
272
420
593
379
-132
-320
-146
-65
-121
-116
-80
-81
-86
-90
-102
-102
-99
-94
-59
-20
-19
-23
23
85
119
157
222
279
307
320
320
290
227
151
89
36
-26
-72
-86
-93
-106
-115
-117
-117
-110
-104
-104
-93
-77
-79
-76
-37
4
3
-22
-39
-51
-59
-50
-37
-49
-70
-56
-49
-82
-55
58
149
244
332
155
-234
-378
-226
-130
-136
-98
-68
-95
-101
-74
-61
-54
-38
-25
-18
-7
16
45
68
95
141
200
253
295
320
324
315
282
208
124
56
-9
-68
-99
-110
-119
-120
-116
-120
-126
-129
-133
-132
-122
-104
-76
-39
17
96
165
202
287
469
599
639
857
1259
1337
848
203
-193
-345
-388
-391
-400
-419
-419
-414
-423
-437
-452
-472
-497
-534
-582
-615
-629
-651
-675
-666
-607
-500
-351
-186
-30
99
177
202
200
180
145
111
84
57
34
23
24
24
15
17
40
54
42
30
29
17
-10
-16
10
30
8
-18
21
105
165
174
142
89
50
48
69
80
50
30
73
89
63
150
309
436
642
719
286
-247
-274
-63
-31
-49
-23
-44
-61
-31
-28
-49
-49
-40
-26
-8
-10
-22
-3
65
147
194
239
332
412
420
410
397
322
207
112
22
-59
-86
-94
-145
-196
-180
-139
-145
-177
-169
-133
-124
-139
-130
-86
-35
-2
-10
-55
-87
-93
-116
-137
-127
-140
-159
-121
-119
-154
-31
163
263
456
616
263
-299
-377
-169
-155
-211
-173
-152
-164
-156
-151
-140
-114
-114
-124
-105
-79
-70
-44
11
70
127
196
273
330
356
355
320
241
144
55
-21
-74
-101
-131
-162
-165
-157
-164
-163
-146
-143
-143
-117
-93
-111
-129
-98
-49
-33
-38
-50
-75
-103
-118
-125
-127
-124
-105
-84
-117
-138
-22
117
202
446
659
331
-238
-353
-163
-131
-179
-157
-151
-162
-141
-133
-135
-108
-83
-86
-74
-33
0
16
45
97
164
230
280
319
358
370
327
262
199
100
-28
-104
-108
-110
-134
-134
-101
-85
-92
-73
-38
-13
53
164
259
425
709
934
1130
1506
1745
1352
586
40
-213
-354
-409
-412
-426
-429
-422
-441
-468
-483
-504
-532
-567
-618
-650
-638
-622
-619
-583
-487
-351
-207
-85
9
85
132
138
127
107
70
39
35
42
40
32
33
45
46
33
40
67
70
54
62
79
64
44
56
73
65
60
70
74
66
59
45
23
19
31
34
26
28
55
97
117
89
52
45
50
41
27
24
23
18
