# session 143
-9
-19
-21
3
19
5
-2
9
7
10
27
32
41
69
89
114
167
208
221
236
249
240
223
195
151
124
125
112
88
100
141
153
132
137
184
212
185
142
120
102
84
88
86
69
83
90
47
57
142
234
421
599
392
-63
-215
-71
-20
-74
-78
-64
-68
-66
-67
-75
-67
-61
-68
-59
-30
-10
18
72
114
133
167
207
225
225
206
152
80
15
-41
-87
-127
-162
-187
-196
-198
-212
-223
-190
-132
-120
-155
-185
-207
-231
-239
-239
-252
-244
-227
-253
-236
-115
-15
116
378
390
-80
-460
-375
-229
-264
-275
-223
-210
-197
-167
-177
-191
-147
-86
-71
-78
-55
2
73
142
197
244
295
341
347
307
244
164
80
26
2
-22
-53
-70
-55
-29
-38
-63
-45
8
40
18
-25
-43
-58
-104
-143
-156
-162
-143
-132
-135
-47
100
200
319
348
56
-276
-260
-106
-96
-116
-85
-74
-67
-43
-33
-31
-11
23
46
46
58
112
168
205
252
302
340
376
391
363
312
243
152
77
46
27
-1
-19
-14
-6
-3
11
41
89
135
131
81
46
35
22
16
3
-27
-27
-18
-39
-18
34
69
266
586
529
42
-277
-239
-183
-205
-191
-174
-185
-179
-167
-171
-168
-147
-124
-111
-102
-78
-46
-28
1
54
87
101
133
149
119
75
19
-57
-101
-109
-133
-162
-153
-120
-98
-88
-82
-64
-16
26
12
-43
-83
-88
-84
-96
-117
-111
-83
-97
-141
-109
-22
56
204
306
65
-321
-386
-221
-168
-198
-182
-171
-193
-191
-156
-142
-162
-158
-108
-80
-94
-80
-18
43
93
153
210
243
250
236
209
177
137
91
54
35
29
28
30
51
84
89
69
84
136
154
127
105
92
68
64
82
72
61
90
81
40
80
159
255
464
552
226
-162
-180
-48
-50
-76
-53
-52
-63
-65
-65
-57
-54
-64
-54
-25
-2
26
57
82
129
185
204
208
232
248
215
149
92
48
-6
-53
-67
-77
-107
-121
-106
-101
-101
-64
-14
-22
-77
-118
-131
-135
-143
-166
-186
-154
-122
-166
-177
-59
75
227
419
309
-178
-466
-328
-200
-241
-242
-199
-205
-217
-204
-186
-162
-148
-154
-137
-80
-22
13
46
101
184
273
322
306
267
250
219
118
-1
-57
-67
-90
-120
-123
-101
-88
-112
-135
-83
12
48
19
-11
-33
-62
-66
-42
-50
-72
-37
-18
-64
-2
164
223
277
376
165
-255
-310
-89
-66
-147
-102
-61
-91
-91
-66
-65
-64
-50
-37
-27
-19
3
45
93
150
216
261
287
316
315
254
175
107
27
-45
-66
-69
-104
-130
-107
-63
-34
-24
-10
41
92
75
20
4
7
-19
-48
-51
-27
5
-22
-67
-3
92
175
461
744
473
-99
-269
-122
-99
-155
-137
-109
-105
-93
-86
-94
-84
-54
-43
-54
-31
23
53
72
118
164
190
207
211
193
159
105
37
-4
-19
-55
-96
-98
-95
-111
-102
-69
-58
-62
-50
-31
-36
-67
-109
-136
-126
-94
-89
-104
-88
-75
-96
-66
14
66
210
417
301
-114
-300
-186
-140
-194
-178
-141
-154
-166
-152
-139
-134
-135
-131
-110
-81
-59
-27
21
63
92
125
165
190
187
165
132
88
45
12
-16
-33
-36
-48
-53
-21
3
-23
-26
41
92
75
35
-1
-34
-42
-26
-33
-62
-46
-11
-45
-75
-10
79
201
346
236
-146
-332
-198
-97
-124
-120
-84
-78
-75
-45
-6
4
-4
22
65
71
61
87
147
213
265
295
318
352
362
313
246
196
127
43
-1
-18
-53
-88
-95
-82
-82
-114
-119
-55
4
1
-40
-94
-137
-139
-120
-107
-106
-115
-116
-117
-110
-38
79
241
487
540
135
-326
-380
-236
-203
-219
-205
-189
-184
-181
-170
-157
-151
-139
-120
-96
-45
17
53
89
156
213
244
278
298
271
215
149
78
19
-21
-56
-77
-82
-82
-83
-76
-53
-32
-25
6
75
106
66
26
29
33
11
-15
-14
22
25
-41
-46
40
101
261
562
521
7
-334
-243
-141
-170
-166
-151
-163
-158
-157
-163
-140
-123
-132
-119
-85
-61
-33
13
56
94
139
171
182
195
192
139
53
-13
-35
-45
-67
-85
-92
-85
-57
-39
-61
-71
-20
42
48
12
-21
-43
-68
-91
-88
-84
-97
-98
-118
-167
-130
-12
66
142
160
-83
-381
-370
-214
-192
-201
-149
-121
-127
-119
-90
-52
-34
-39
-27
10
43
71
103
143
197
249
280
304
318
293
238
181
123
73
53
48
40
36
43
60
83
96
88
83
111
147
133
81
51
40
12
-4
0
-7
-1
12
-25
-28
70
166
319
572
522
33
-301
-207
-96
-138
-130
-75
-86
-116
-104
-86
-84
-76
-57
-42
-19
16
46
80
135
193
237
272
301
314
297
243
171
109
62
30
13
-8
-42
-67
-60
-35
-39
-70
-58
-1
28
13
-14
-59
-107
-123
-127
-149
-166
-154
-160
-205
-175
-39
53
129
252
134
-287
-512
-377
-255
-267
-262
-245
-249
-241
-236
-230
-201
-186
-201
-186
-124
-82
-74
-24
68
132
176
234
263
245
196
120
37
-34
-113
-176
-185
-187
-210
-205
-181
-201
-235
-210
-135
-54
-10
-38
-90
-104
-131
-176
-155
-112
-126
-136
-142
-170
-78
107
188
247
291
31
-360
-387
-180
-154
-224
-186
-131
-140
-144
-118
-89
-62
-46
-32
2
36
47
75
132
186
243
296
301
278
268
237
171
105
44
-8
-18
0
-2
-25
-29
-3
36
59
63
83
142
204
211
179
156
144
136
162
199
202
200
189
156
190
292
421
746
1158
1078
517
202
289
323
234
236
287
269
221
209
207
169
129
133
151
148
155
190
230
257
282
315
342
335
309
288
247
164
89
50
21
6
14
11
-5
11
50
62
41
29
61
103
91
35
-3
-28
-74
-108
-110
-126
-156
-166
-198
-238
-195
-117
-39
101
120
-170
-453
-437
-348
-374
-398
-394
-424
-462
-484
-505
-515
-502
-475
-457
-448
-436
-427
-422
-404
-378
-365
-371
-388
-394
-392
-427
-512
-604
-675
-720
-751
-797
-851
-887
-907
-918
-897
-859
-838
-823
-811
-827
-881
-944
-981
-983
-961
-925
-893
-863
-813
-763
-731
-643
-488
-334
-114
127
61
-270
-381
-195
-51
-4
82
184
265
352
440
529
626
703
759
825
882
898
899
930
1000
1109
1225
1308
1368
1414
1420
1400
1379
1341
1313
1321
1304
1248
1222
1204
1151
1120
1120
1085
1052
1077
1092
1036
970
962
978
969
963
992
1012
1014
1033
1014
992
1092
1230
1325
1516
1600
1222
765
762
933
889
767
672
507
287
54
-210
-439
-585
-726
-902
-1037
-1102
-1153
-1204
-1226
-1235
-1250
-1241
-1182
-1110
-1096
-1148
-1195
-1218
-1274
-1362
-1438
-1500
-1535
-1494
-1359
-1171
-1025
-1004
-1042
-1012
-939
-922
-941
-915
-825
-703
-601
-599
-729
-871
-891
-878
-931
-912
-776
-660
-471
-222
-349
-826
-1018
-846
-745
-769
-738
-703
-724
-729
-688
-653
-661
-668
-640
-588
-492
-328
-164
-44
94
272
426
540
650
744
789
810
815
775
720
705
711
704
703
717
733
745
743
743
789
883
953
944
881
825
780
724
692
699
682
652
641
618
621
696
773
920
1166
1138
721
428
480
538
460
373
314
284
264
209
172
181
150
91
91
96
53
33
57
85
115
133
124
128
145
136
95
40
-17
-64
-100
-119
-123
-131
-140
-135
-129
-116
-83
-67
-81
-84
-88
-148
-227
-265
-299
-350
-367
-362
-382
-379
-347
-368
-393
-325
-236
-123
74
85
-256
-538
-483
-363
-365
-375
-359
-364
-369
-366
-378
-401
-419
-426
-425
-422
-412
-383
-341
-297
-260
-225
-188
-158
-150
-169
-207
-244
-282
-318
-323
-291
-272
-275
-261
-226
-181
-119
-55
-13
52
192
344
393
355
339
364
368
363
388
404
390
389
388
366
364
385
465
645
654
290
-34
34
175
114
36
50
54
23
-1
-13
-37
-93
-151
-172
-198
-243
-236
-178
-139
-99
-19
52
91
112
92
45
26
9
-10
62
236
396
479
509
529
567
613
652
676
671
654
665
655
564
448
368
308
266
235
167
89
46
-36
-139
-108
8
84
179
148
-240
-639
-625
-465
-484
-540
-524
-535
-570
-579
-595
-629
-649
-656
-659
-646
-617
-586
-534
-446
-347
-272
-230
-201
-171
-173
-226
-288
-337
-392
-404
-346
-308
-317
-289
-237
-235
-241
-209
-205
-231
-152
47
175
134
61
69
101
104
126
163
159
141
135
98
83
157
253
390
537
375
-79
-287
-141
-62
-125
-119
-70
-67
-73
-79
-73
-33
-23
-52
-35
15
35
61
119
179
237
298
333
331
314
311
316
275
195
160
176
157
110
95
95
93
109
119
100
101
132
159
186
213
223
249
326
440
570
698
846
1107
1426
1479
1072
455
15
-150
-172
-158
-130
-104
-88
-72
-60
-62
-73
-87
-118
-173
-214
-208
-189
-187
-145
-31
97
201
300
376
378
330
292
254
193
133
80
23
-4
2
-16
-81
-152
-196
-235
-296
-355
-375
-372
-404
-463
-476
-434
-413
-436
-452
-457
-468
-463
-447
-467
-478
-410
-334
-297
-203
-43
89
201
209
-26
-272
-228
-73
-67
-119
-122
-141
-186
-211
-229
-254
-262
-247
-233
-230
-228
-218
-191
-151
-106
-60
-10
37
64
62
48
25
-29
-110
-166
-171
-140
-70
38
101
82
63
82
67
10
-15
9
29
-4
-66
-58
32
75
17
-44
-55
-40
-4
61
163
261
262
220
209
44
-345
-620
-617
-582
-626
-640
-618
-613
-625
-655
-681
-670
-645
-633
-611
-577
-557
-547
-527
-497
-458
-380
-253
-127
-60
-12
76
141
158
320
670
901
866
784
783
778
742
720
705
672
650
678
726
727
679
638
636
658
689
729
753
763
778
762
759
883
1032
1125
1315
1420
1080
659
694
925
967
960
1027
1062
1064
1098
1127
1120
1127
1177
1237
1291
1357
1439
1506
1528
1552
1615
1554
1217
770
420
109
-229
-516
-748
-987
-1206
-1357
-1459
-1542
-1636
-1744
-1807
-1817
-1867
-1962
-1978
-1918
-1917
-1982
-2021
-2029
-2051
-2049
-1987
-1901
-1821
-1725
-1635
-1566
-1411
-1152
-941
-786
-662
-759
-1012
-1002
-714
-505
-413
-281
-166
-140
-151
-168
-173
-126
-36
32
46
69
173
325
433
492
555
617
637
633
629
598
517
406
301
231
196
153
85
31
-22
-112
-187
-206
-234
-292
-303
-264
-245
-269
-313
-359
-393
-417
-427
-433
-445
-438
-421
-424
-360
-210
-116
8
297
347
-116
-556
-559
-441
-447
-447
-389
-334
-293
-255
-186
-48
149
376
583
727
814
827
704
522
509
721
961
1112
1222
1325
1407
1458
1450
1404
1398
1472
1597
1741
1883
1997
2072
2149
2261
2372
2457
2529
2553
2471
2315
2122
1870
1566
1263
989
724
466
254
67
-142
-294
-349
-389
-333
-172
-311
-837
-1200
-1186
-1140
-1185
-1205
-1229
-1279
-1283
-1259
-1258
-1256
-1233
-1201
-1171
-1137
-1094
-1035
-968
-900
-832
-764
-712
-681
-661
-644
-645
-671
-695
-696
-688
-689
-678
-633
-589
-598
-608
-548
-465
-432
-411
-361
-319
-312
-320
-329
-337
-335
-318
-295
-282
-274
-249
-231
-244
-234
-177
-97
59
199
49
-289
-399
-272
-197
-204
-192
-182
-186
-178
-174
-178
-173
-159
-147
-143
-137
-119
-90
-57
-24
-2
8
20
25
5
-26
-60
-101
-133
-152
-179
-193
-170
-146
-139
-98
6
150
287
360
377
422
507
563
574
589
619
642
675
717
718
679
646
567
424
368
426
528
750
920
600
1
-236
-153
-179
-297
-355
-408
-469
-510
-561
-602
-591
-550
-499
-449
-427
-420
-385
-317
-210
-68
38
66
83
150
229
269
237
140
73
100
154
179
219
270
274
249
237
202
135
121
206
299
287
202
167
192
203
210
230
201
152
152
121
57
132
290
373
421
335
-9
-254
-129
47
43
23
60
98
137
165
181
222
272
311
359
397
428
522
643
708
765
870
952
990
1056
1106
1037
907
847
834
796
737
651
499
315
142
-7
-78
-76
-110
-175
-148
-75
-81
-99
-50
-13
40
203
370
505
793
1089
934
330
-248
-554
-696
-768
-783
-778
-783
-796
-836
-905
-955
-985
-1053
-1161
-1286
-1432
-1554
-1599
-1621
-1632
-1550
-1388
-1236
-1100
-974
-893
-849
-822
-811
-781
-718
-676
-656
-581
-479
-462
-518
-531
-464
-367
-302
-284
-240
-148
-117
-165
-152
-29
74
75
32
31
77
134
188
196
105
-20
-103
-181
-243
-205
-99
68
296
279
-91
-292
-86
87
94
206
364
404
439
517
546
574
642
666
634
620
626
633
656
687
716
762
805
795
740
669
572
458
360
278
195
109
40
3
-14
-34
-45
-23
1
-10
-22
27
103
130
108
89
96
114
119
113
110
133
208
279
270
287
429
552
659
878
892
479
166
291
451
432
440
490
501
524
553
546
538
558
600
650
681
692
721
795
893
944
898
789
627
389
131
-71
-233
-371
-468
-546
-622
-668
-705
-801
-935
-1020
-1055
-1057
-955
-745
-535
-254
185
389
-65
-829
-1267
-1345
-1351
-1331
-1258
-1204
-1154
-1051
-936
-855
-814
-813
-800
-749
-744
-814
-869
-871
-796
-575
-283
-96
-23
34
78
98
170
324
467
525
559
631
687
663
612
596
594
580
584
600
579
538
533
540
504
455
425
391
348
303
236
177
180
201
181
166
191
191
142
106
84
30
-13
-8
-31
-96
-115
-127
-174
-145
-45
41
206
339
75
-404
-546
-401
-360
-406
-376
-328
-308
-266
-190
-113
-48
