# session 5
-121
-28
-5
-3
32
68
61
17
-40
-101
-164
-219
-241
-240
-260
-283
-261
-241
-265
-272
-238
-195
-121
-62
-102
-80
210
585
648
247
-378
-799
-828
-654
-497
-382
-284
-224
-208
-206
-197
-186
-180
-176
-164
-146
-135
-129
-102
-56
-10
46
128
224
325
430
535
615
649
663
678
636
511
399
335
244
143
121
153
190
251
356
543
791
974
1151
1458
1591
1142
383
-117
-273
-317
-352
-375
-385
-387
-396
-402
-401
-422
-457
-471
-476
-498
-526
-541
-531
-491
-461
-471
-476
-425
-350
-297
-247
-164
-66
13
64
84
76
66
75
90
93
87
86
91
91
88
92
92
83
77
68
55
57
68
60
41
28
9
-19
-27
-19
-20
-26
-25
-30
-30
-15
-8
-21
-37
-43
-42
-38
-46
-60
-55
-43
-50
-61
-53
-31
-17
-20
-11
22
26
-15
-25
13
32
17
3
-10
-5
37
73
66
54
72
61
-24
-61
58
193
165
37
-15
57
166
296
444
378
-8
-306
-220
-34
-10
-45
-41
-37
-49
-72
-98
-97
-64
-49
-67
-71
-54
-73
-134
-163
-146
-128
-112
-86
-53
0
56
57
23
35
75
77
53
31
-2
-39
-70
-110
-150
-158
-137
-109
-88
-75
-70
-71
-79
-82
-58
-15
7
4
26
82
124
133
138
156
186
218
251
287
308
308
305
273
215
232
322
420
536
510
158
-202
-202
-50
-34
-79
-98
-118
-126
-124
-132
-128
-117
-130
-144
-130
-108
-105
-99
-70
-27
10
39
57
76
114
163
197
219
246
242
184
144
169
170
79
-31
-96
-137
-166
-179
-196
-219
-225
-222
-224
-218
-204
-198
-197
-179
-137
-102
-108
-146
-169
-171
-180
-181
-161
-155
-152
-125
-142
-160
-33
139
257
485
603
175
-401
-455
-223
-181
-219
-174
-152
-173
-169
-155
-154
-149
-131
-113
-111
-111
-92
-64
-40
-13
15
45
85
130
171
218
276
316
321
312
303
269
190
104
44
-5
-46
-54
-43
-51
-70
-59
-32
-32
-15
70
124
111
256
638
872
595
-15
-511
-694
-630
-422
-181
-22
32
20
-29
-70
-83
-89
-77
-38
-23
-43
-35
3
22
41
91
142
204
316
423
477
529
579
558
489
432
359
237
126
69
14
-68
-133
-170
-212
-248
-263
-282
-299
-289
-287
-308
-278
-194
-155
-145
-33
187
339
220
-191
-624
-799
-740
-610
-459
-303
-193
-146
-128
-96
-27
36
41
18
20
35
43
61
96
132
161
193
224
246
279
346
430
490
515
515
479
409
340
283
212
126
59
20
-9
-34
-51
-64
-79
-90
-80
-52
-40
-66
-90
-75
-61
-87
-120
-127
-125
-117
-103
-114
-147
-162
-165
-175
-175
-169
-180
-190
-185
-174
-159
-151
-161
-167
-163
-166
-162
-131
-103
-115
-144
-130
-62
0
11
-6
-32
-63
-66
-20
7
-4
15
32
5
65
221
352
577
812
550
-83
-326
-139
-53
-102
-78
-55
-79
-68
-37
-38
-37
-7
13
7
13
44
64
64
73
102
138
169
185
200
229
257
273
288
291
270
254
251
219
157
117
105
75
14
-25
-17
-11
-36
-56
-49
-47
-52
-41
-30
-37
-31
4
24
-3
-47
-69
-85
-111
-116
-100
-108
-115
-111
-154
-177
-80
22
114
309
332
-72
-455
-429
-301
-333
-366
-334
-327
-348
-356
-343
-314
-291
-286
-276
-255
-227
-190
-146
-104
-66
-35
-6
36
93
164
249
328
372
388
390
350
255
161
104
52
-4
-32
-37
-42
-50
-53
-52
-60
-66
-15
54
33
7
124
198
-56
-502
-770
-762
-636
-488
-327
-192
-104
-36
9
14
10
27
62
109
162
202
230
261
291
313
344
393
451
516
587
649
688
697
676
630
562
476
381
288
218
173
122
53
5
-16
-48
-81
-92
-107
-120
-94
-59
-25
75
164
13
-412
-826
-957
-840
-676
-541
-393
-239
-126
-65
-33
1
41
88
149
199
205
183
170
186
219
242
274
355
452
510
544
588
613
589
533
450
336
214
108
10
-96
-192
-253
-282
-309
-343
-362
-365
-376
-395
-404
-409
-415
-413
-408
-405
-391
-360
-314
-275
-271
-292
-301
-297
-308
-323
-315
-301
-310
-316
-302
-284
-261
-223
-194
-174
-146
-135
-149
-148
-132
-139
-163
-164
-131
-100
-90
-59
20
92
103
85
79
79
98
132
127
118
159
157
145
301
500
626
894
1070
616
-43
-128
109
118
28
46
68
56
53
47
49
68
72
61
57
64
66
51
41
60
84
100
130
151
149
177
232
254
257
264
247
210
188
162
100
27
-20
-50
-79
-97
-108
-118
-102
-65
-55
-68
-59
-35
-34
-36
-8
31
31
-14
-65
-100
-127
-146
-145
-150
-163
-156
-160
-155
-35
120
211
374
469
127
-355
-406
-204
-160
-195
-171
-153
-147
-119
-94
-69
-42
-34
-35
-21
3
22
36
54
73
91
111
134
164
192
201
204
224
237
221
183
107
1
-74
-118
-172
-211
-205
-193
-197
-203
-206
-207
-200
-183
-146
-98
-77
-80
-47
8
0
-66
-103
-105
-119
-116
-88
-86
-91
-89
-127
-105
57
190
321
606
649
134
-332
-268
-91
-125
-165
-137
-140
-139
-109
-102
-106
-82
-57
-56
-54
-38
-23
-21
-16
5
44
90
122
141
176
226
260
273
286
282
243
186
122
43
-21
-45
-59
-75
-72
-68
-81
-77
-43
-15
-5
9
26
47
82
113
100
46
18
30
22
-7
-8
4
8
1
-21
15
137
238
347
489
362
-81
-325
-193
-79
-118
-125
-101
-120
-139
-145
-162
-176
-186
-203
-208
-207
-215
-210
-175
-137
-101
-54
0
47
84
123
164
199
221
233
230
190
118
56
20
-13
-46
-57
-46
-46
-60
-65
-58
-51
-35
-11
-15
-20
29
85
61
-5
-26
-23
-42
-49
-31
-40
-69
-74
-99
-146
-104
4
82
193
245
-6
-345
-358
-176
-133
-168
-144
-119
-119
-109
-109
-123
-113
-82
-63
-58
-48
-37
-33
-26
-5
19
46
79
110
135
171
216
255
280
286
269
230
167
93
33
-4
-20
-4
15
32
90
171
278
525
841
1052
1281
1539
1379
728
133
-130
-238
-284
-280
-297
-331
-338
-346
-371
-394
-421
-455
-478
-509
-561
-604
-621
-634
-631
-581
-493
-389
-284
-185
-92
6
94
134
125
107
94
67
32
14
9
0
-3
5
3
-11
-12
-4
-1
-2
-3
-5
-5
5
19
21
15
19
43
59
48
29
22
11
-10
-14
-15
-43
-67
-43
11
39
23
-12
-37
-54
-55
-28
-11
-10
27
42
-1
68
259
417
666
936
668
-38
-334
-135
-42
-125
-129
-94
-102
-110
-112
-108
-97
-108
-126
-130
-141
-149
-140
-127
-107
-85
-83
-67
-13
38
70
106
131
145
170
194
188
154
107
57
0
-56
-91
-114
-139
-153
-169
-188
-168
-125
-126
-138
-81
16
81
103
98
71
50
47
51
52
44
52
98
85
24
125
323
396
484
580
278
-231
-304
-80
-64
-144
-95
-68
-116
-92
-19
-4
-19
-12
2
15
27
23
14
25
56
99
134
153
182
232
274
289
279
250
207
141
51
-39
-113
-167
-195
-216
-247
-264
-261
-269
-286
-281
-261
-256
-258
-219
-139
-92
-104
-132
-157
-180
-179
-156
-146
-160
-150
-97
-95
-120
14
228
338
530
747
462
-153
-337
-135
-96
-183
-166
-141
-170
-174
-156
-147
-135
-120
-104
-77
-52
-38
-23
5
35
60
99
156
203
233
277
323
332
317
309
277
204
133
88
54
21
-8
-32
-50
-71
-95
-110
-95
-56
-37
-61
-75
-32
25
39
15
-10
-25
-50
-68
-45
-23
-22
6
-7
-84
-21
161
252
464
851
755
75
-336
-227
-136
-189
-178
-145
-165
-188
-188
-159
-121
-107
-90
-45
-1
30
52
58
63
87
113
124
142
176
213
238
248
243
228
189
121
47
-12
-54
-79
-90
-105
-122
-120
-119
-139
-144
-109
-82
-96
-117
-110
-77
-50
-77
-142
-173
-176
-202
-215
-196
-205
-216
-179
-185
-207
-93
65
196
415
459
29
-401
-363
-196
-217
-245
-198
-185
-192
-181
-178
-176
-156
-138
-126
-102
-72
-56
-46
-30
-5
34
74
102
130
163
182
194
213
217
197
163
114
57
18
-1
-15
-28
-40
-41
-28
-15
-17
-12
15
48
63
73
109
156
169
145
126
122
124
130
136
124
121
166
185
131
135
250
378
520
574
290
-126
-204
-33
25
-14
-26
-51
-83
-73
-69
-93
-100
-92
-94
-86
-61
-53
-61
-49
-15
12
28
48
75
106
131
139
149
162
145
97
54
10
-37
-71
-103
-129
-121
-99
-71
-8
53
134
351
625
799
960
1067
800
229
-175
-292
-333
-368
-373
-374
-376
-373
-382
-398
-408
-420
-436
-457
-488
-512
-523
-534
-539
-514
-458
-382
-292
-196
-105
-11
82
137
140
127
115
85
47
22
7
-10
-16
-11
-21
-41
-41
-30
-34
-47
-45
-35
-32
-39
-39
-22
-9
-5
11
32
37
38
47
43
20
16
39
51
34
20
43
93
124
106
63
45
38
13
-5
-7
-9
25
47
0
41
221
373
584
854
664
6
-330
-170
-71
-133
-131
-112
-127
-110
-97
-107
-82
-49
-62
-87
-78
-59
-50
-41
-29
-10
22
38
19
10
49
112
168
200
209
207
193
160
118
70
15
-29
-59
-85
-106
-118
-122
-120
-114
-92
-48
-17
-14
14
85
128
123
136
186
248
358
527
655
746
989
1372
1490
1042
296
-235
-377
-340
-344
-409
-436
-368
-277
-250
-247
-220
-218
-256
-287
-308
-332
-333
-338
-401
-477
-511
-523
-523
-479
-403
-319
-213
-95
-8
46
78
71
34
0
-31
-51
-44
-50
-82
-83
-63
-78
-93
-78
-79
-95
-80
-60
-78
-87
-46
8
45
56
15
-38
-31
-8
-21
-29
-28
-13
45
54
21
140
332
449
668
811
400
-204
-313
-146
-149
-185
-128
-114
-142
-132
-118
-120
-102
-61
-34
-35
-31
2
35
37
28
38
67
101
138
179
219
244
251
256
256
223
155
80
15
-30
-53
-77
-106
-106
-88
-96
-97
-50
5
24
35
61
95
127
131
75
14
10
3
-47
-62
-36
-43
-63
-78
-86
-16
87
198
504
786
477
-164
-362
-188
-143
-191
-160
-140
-152
-143
-154
-191
-193
-155
-119
-111
-116
-99
-64
-44
-35
-15
8
38
85
118
128
158
209
228
198
142
72
8
-27
-54
-86
-103
-101
-106
-119
-123
-119
-107
-85
-67
-67
-67
-35
21
39
-1
-35
-30
-22
-25
-19
3
40
100
213
399
590
700
819
1046
1132
747
107
-258
-271
-239
-275
-287
-264
-252
-272
-311
-315
-282
-287
-324
-305
-264
-287
-329
-329
-336
-363
-359
-348
-368
-368
-322
-277
-238
-173
-93
-27
23
51
48
30
31
41
27
15
33
36
2
-5
33
62
59
48
59
96
127
120
78
33
14
15
27
41
40
46
71
68
72
156
260
372
498
384
-20
-252
-124
11
0
-8
14
21
26
29
31
44
53
64
89
97
83
94
128
143
138
143
168
201
228
249
273
284
270
245
209
156
99
43
-17
-64
-86
-87
-79
-90
-113
-107
-86
-85
-64
-6
9
-30
-37
-18
-49
-109
-138
-160
-196
-198
-173
-184
-189
-131
-106
-131
-67
53
128
218
216
-75
-381
-355
-201
-185
-213
-192
-178
-176
-165
-155
-143
-125
-107
-87
-65
-47
-27
0
22
41
67
103
139
168
193
224
253
257
240
221
181
93
-1
-50
-82
-130
-158
-148
-143
-164
-173
-140
-86
-43
-29
-36
-35
-6
22
1
-49
-62
-41
-46
-58
-43
-39
-43
-38
-73
-64
91
223
322
562
596
93
-365
-294
-113
-139
-170
-138
-136
-136
-118
-111
-107
-99
-80
-48
-34
-41
-33
-12
7
42
81
99
121
170
222
268
313
334
323
291
226
140
88
66
18
-49
-63
-17
8
11
75
202
384
671
963
1171
1475
1817
1663
888
88
-317
-454
-505
-523
-542
-564
-572
-584
-601
-611
-629
-657
-686
-728
-780
-810
-823
-846
-863
-844
-780
-687
-586
-471
-327
-172
-45
53
151
245
290
292
296
307
297
270
246
236
239
231
208
204
218
218
211
216
209
173
136
114
93
74
67
59
34
-5
-43
-54
-44
-53
-78
-61
6
52
49
31
11
-25
-42
-16
-14
-49
-31
-2
-49
-17
162
276
402
688
649
48
-388
-276
-140
-215
-235
-185
-189
-194
-163
-148
-163
-163
-116
-61
-57
-76
-67
-45
-22
24
79
105
115
148
191
209
200
193
201
212
186
123
75
52
9
-45
-69
-77
-89
-81
-62
-66
-66
-22
25
35
52
110
147
126
99
93
73
48
66
88
65
64
103
71
18
116
275
379
545
613
248
-226
-268
-68
-40
-111
-108
-90
-121
-158
-149
-110
-107
-141
-138
-100
-84
-87
-79
-69
-44
10
56
79
109
149
171
190
211
205
161
96
25
-39
-92
-141
-174
-178
-181
-197
-201
-185
-184
-182
-145
-120
-136
-129
-80
-53
-75
-112
-128
-116
-116
-134
-135
-126
-121
-116
-137
-135
-35
81
180
300
216
-174
-428
-304
-148
-168
-197
-168
-146
-146
-147
-144
-140
-138
-124
-105
-98
-86
-59
-49
-41
-3
38
64
100
142
166
191
229
247
236
219
187
127
60
7
-33
-56
-56
-45
-51
-58
-38
-1
34
63
72
64
87
161
217
207
181
187
194
181
177
174
162
185
216
193
218
353
482
612
751
662
338
44
