# session 99
-33
41
168
237
278
424
546
495
388
303
179
56
-50
-218
-376
-402
-354
-317
-292
-295
-322
-315
-284
-297
-356
-423
-485
-518
-506
-472
-429
-357
-266
-178
-89
-3
60
100
138
165
161
140
148
179
192
210
272
338
411
541
653
702
805
883
661
217
-93
-193
-234
-263
-264
-266
-277
-284
-298
-323
-350
-381
-419
-452
-469
-472
-451
-389
-300
-203
-103
-17
36
65
79
64
27
5
23
53
50
19
-9
-22
-23
-13
-11
-19
-7
7
1
18
25
-15
32
184
287
436
620
401
-148
-358
-179
-87
-119
-104
-86
-94
-89
-86
-88
-68
-30
-3
0
19
89
179
263
350
426
467
483
472
403
282
153
42
-51
-115
-137
-147
-181
-187
-125
-82
-116
-129
-48
40
48
17
19
32
10
7
103
234
306
399
568
694
854
1270
1684
1536
812
43
-372
-440
-390
-412
-482
-493
-465
-476
-522
-552
-570
-609
-652
-686
-738
-792
-795
-752
-688
-594
-469
-335
-209
-112
-50
5
45
25
-27
-42
-24
-17
-1
32
35
14
52
178
332
424
512
804
1214
1327
1148
1006
741
187
-164
-111
-145
-360
-393
-293
-295
-329
-325
-344
-372
-389
-431
-492
-540
-571
-584
-578
-538
-450
-343
-229
-80
67
144
180
223
243
220
187
164
159
182
231
307
421
558
721
926
1047
981
880
807
590
310
185
36
-294
-520
-471
-365
-348
-373
-400
-393
-349
-352
-432
-508
-530
-527
-512
-455
-348
-232
-132
-27
85
164
184
165
144
126
106
100
107
90
56
57
81
64
26
31
53
46
40
33
-9
-41
-24
-25
-57
-50
-27
-51
-83
-84
-72
-54
-42
-60
-74
-63
-62
-82
-84
-65
-52
-51
-54
-51
-29
-4
6
26
66
94
93
77
56
33
23
34
39
25
29
43
24
36
124
228
358
444
221
-206
-352
-186
-84
-100
-86
-64
-74
-77
-78
-73
-45
-22
-19
-7
21
46
76
133
197
233
260
302
324
303
274
247
194
115
40
-20
-69
-112
-144
-147
-130
-134
-148
-122
-77
-79
-104
-69
10
46
18
-24
-45
-38
-5
40
99
194
302
392
484
619
877
1320
1665
1356
423
-347
-513
-443
-460
-482
-475
-500
-532
-540
-546
-570
-623
-676
-689
-693
-734
-785
-784
-733
-675
-589
-442
-285
-158
-46
30
61
80
109
254
570
843
1098
1711
2367
2188
1222
305
-229
-487
-500
-397
-358
-379
-423
-485
-522
-541
-591
-662
-717
-747
-753
-718
-623
-469
-285
-116
13
103
150
144
120
115
111
87
63
52
48
63
106
144
130
85
75
100
108
104
122
150
148
116
102
123
126
99
90
100
96
84
73
57
49
55
48
18
-3
5
21
20
12
42
114
156
122
76
63
55
53
65
51
41
66
45
24
133
266
404
681
745
233
-289
-266
-85
-116
-150
-98
-95
-108
-77
-65
-77
-60
-38
-44
-30
18
39
52
122
213
252
257
267
263
237
204
156
70
-26
-87
-128
-177
-212
-223
-238
-251
-247
-237
-201
-144
-126
-119
-59
-11
-44
-91
-100
-113
-127
-113
-99
-102
-85
-74
-99
-69
56
183
279
274
20
-319
-391
-241
-158
-172
-170
-143
-120
-116
-126
-121
-93
-65
-52
-43
-13
30
70
121
194
258
298
329
343
310
238
149
50
-44
-112
-162
-190
-191
-188
-198
-199
-179
-147
-112
-101
-111
-89
-27
-8
-49
-74
-68
-84
-101
-80
-66
-62
-32
-37
-55
35
176
307
484
473
55
-332
-280
-98
-86
-105
-74
-70
-68
-33
-9
1
20
30
25
35
74
129
178
212
266
358
430
450
450
419
330
224
128
26
-50
-74
-90
-113
-110
-102
-121
-126
-89
-66
-82
-55
46
122
142
187
256
323
470
683
828
989
1331
1592
1331
613
-55
-374
-465
-512
-533
-517
-520
-557
-576
-581
-613
-658
-690
-718
-755
-803
-849
-856
-805
-723
-615
-463
-303
-180
-82
-5
17
2
5
2
-38
-68
-54
-19
1
-6
-17
-9
-4
-19
-19
8
22
3
-15
18
102
166
163
129
111
99
89
108
120
97
109
132
82
106
270
376
535
885
863
217
-261
-164
-27
-79
-78
-36
-59
-71
-50
-43
-33
-19
-20
-8
34
73
106
158
224
296
371
422
430
400
335
252
163
52
-51
-101
-131
-178
-205
-197
-188
-182
-145
-101
-101
-109
-62
-7
-15
-40
-43
-68
-109
-94
-52
-66
-87
-56
-59
-71
31
161
311
645
828
399
-188
-301
-181
-202
-237
-206
-195
-195
-195
-206
-183
-145
-143
-142
-117
-93
-64
-22
21
71
121
151
166
171
151
105
40
-26
-64
-84
-114
-131
-134
-153
-165
-154
-148
-137
-106
-103
-116
-77
-10
-4
-55
-91
-94
-93
-98
-102
-102
-83
-69
-89
-73
12
91
259
554
555
70
-337
-296
-148
-140
-141
-110
-105
-94
-65
-48
-34
-13
5
27
61
89
118
170
224
261
299
338
348
325
294
246
167
84
23
-16
-44
-58
-59
-61
-77
-97
-95
-66
-45
-50
-41
-1
19
5
-15
-25
-5
68
156
249
397
539
623
820
1202
1393
1037
363
-148
-349
-387
-391
-400
-420
-439
-457
-488
-521
-545
-579
-633
-682
-718
-753
-770
-734
-661
-569
-439
-271
-100
47
138
158
153
146
106
57
42
38
26
24
17
0
7
27
20
6
16
28
45
109
184
183
117
80
80
75
80
90
75
89
117
72
75
226
366
524
776
684
98
-282
-140
8
-55
-77
-26
-21
-33
-25
-32
-50
-48
-35
-19
10
33
53
111
185
231
295
393
437
399
325
227
115
28
-24
-67
-125
-182
-202
-199
-209
-211
-174
-140
-142
-133
-78
-22
-12
-31
-50
-75
-103
-104
-85
-102
-130
-86
-42
-91
-84
49
126
218
432
365
-123
-422
-288
-162
-195
-201
-190
-210
-197
-177
-187
-171
-132
-129
-123
-70
-17
11
65
155
222
253
284
302
264
198
146
77
-28
-88
-73
-76
-117
-112
-76
-89
-107
-59
-6
-21
-46
-11
49
57
12
-30
-40
-42
-46
-36
-2
52
124
195
261
342
457
673
975
998
473
-147
-331
-263
-268
-290
-271
-275
-271
-250
-258
-264
-248
-260
-289
-303
-324
-348
-341
-312
-292
-262
-191
-94
-10
44
82
103
91
56
38
37
25
16
27
26
3
7
48
76
75
78
106
143
153
114
62
42
33
13
12
25
27
35
24
-14
22
118
195
357
508
283
-156
-278
-145
-120
-163
-142
-126
-138
-129
-113
-105
-85
-53
-27
-5
27
67
107
159
225
287
330
360
368
342
282
195
99
20
-30
-65
-100
-125
-132
-143
-166
-157
-102
-50
-3
90
235
450
727
921
1028
1283
1576
1400
687
-31
-397
-504
-528
-553
-591
-610
-600
-604
-639
-683
-727
-781
-832
-858
-865
-869
-857
-796
-671
-488
-280
-104
13
89
118
92
63
61
43
0
-19
-5
16
22
17
31
63
73
62
68
83
91
99
97
75
56
57
60
48
26
24
81
162
172
108
75
98
101
77
64
67
99
133
90
63
197
362
525
823
886
343
-214
-207
-21
-30
-49
-10
-12
-23
-24
-36
-20
18
31
44
65
67
82
137
200
253
298
317
317
312
272
192
120
69
-1
-85
-139
-157
-172
-186
-181
-169
-166
-153
-135
-144
-156
-117
-55
-35
-59
-91
-108
-118
-125
-125
-129
-120
-87
-93
-113
-25
86
144
352
562
284
-237
-343
-163
-133
-169
-138
-134
-141
-118
-120
-128
-104
-96
-104
-69
-11
18
48
116
189
235
268
291
284
242
169
69
-30
-96
-141
-182
-200
-198
-202
-204
-205
-219
-211
-158
-132
-160
-145
-60
-5
-24
-59
-74
-84
-94
-86
-84
-105
-93
-66
-103
-101
27
137
265
482
412
-63
-353
-215
-86
-138
-165
-132
-120
-112
-93
-86
-70
-38
-26
-22
7
50
89
135
185
234
292
338
337
312
277
212
129
65
19
-18
-36
-39
-36
-32
-34
-45
-46
-22
1
3
18
67
99
79
47
38
35
14
-5
2
19
27
15
-29
-38
45
126
215
410
444
73
-293
-274
-140
-143
-164
-143
-140
-148
-143
-127
-115
-117
-107
-75
-58
-46
1
59
103
155
217
261
278
274
240
174
87
4
-44
-69
-103
-122
-110
-104
-102
-77
-37
46
171
293
493
808
1066
1286
1626
1738
1181
301
-271
-453
-492
-510
-530
-549
-563
-590
-618
-640
-695
-768
-795
-802
-848
-896
-872
-777
-640
-466
-278
-111
19
98
113
87
50
21
8
1
-13
-18
-5
3
3
9
12
10
34
57
15
-42
-11
50
32
-13
3
34
20
-17
-36
-18
10
-8
-33
38
167
213
165
131
124
90
62
79
82
65
86
80
53
155
314
436
665
755
298
-253
-277
-82
-87
-124
-89
-98
-125
-116
-106
-94
-78
-70
-57
-41
-30
11
80
129
171
238
296
319
312
268
211
180
123
12
-69
-104
-145
-164
-142
-141
-161
-155
-130
-96
-47
5
72
197
412
692
938
1133
1405
1714
1721
1228
494
-89
-381
-485
-524
-549
-564
-576
-594
-604
-601
-618
-666
-719
-755
-777
-791
-779
-710
-582
-425
-262
-112
0
52
59
49
32
-3
-38
-47
-43
-50
-64
-69
-56
-34
-29
-45
-48
-31
-22
-28
-23
-12
-17
-39
-64
-74
-47
-12
-23
-40
5
65
70
47
42
29
2
9
42
33
13
38
45
34
123
243
309
431
464
140
-231
-220
-45
-12
-27
-18
-47
-59
-13
13
-9
-14
25
67
76
89
136
190
231
275
320
352
371
368
333
279
212
130
48
-16
-63
-94
-105
-102
-94
-91
-93
-85
-53
-21
-22
-27
15
66
57
12
-13
-28
-54
-60
-39
-39
-49
-24
-21
-60
-9
116
221
425
614
356
-172
-348
-211
-168
-195
-167
-153
-170
-175
-174
-173
-165
-148
-124
-105
-82
-30
32
80
132
189
230
264
294
279
187
57
-49
-117
-169
-216
-240
-241
-237
-227
-221
-239
-248
-215
-194
-218
-209
-132
-72
-85
-117
-123
-135
-170
-162
-104
-95
-118
-85
-81
-117
4
215
324
475
578
224
-296
-355
-142
-106
-147
-116
-102
-104
-79
-67
-77
-80
-66
-34
-3
21
61
113
169
255
349
406
433
434
383
291
184
70
-24
-77
-106
-131
-148
-147
-135
-135
-139
-106
-38
22
80
196
429
735
974
1124
1346
1627
1642
1190
481
-97
-361
-424
-449
-474
-488
-510
-538
-562
-582
-607
-649
-703
-745
-778
-812
-814
-764
-669
-521
-334
-156
-9
100
155
159
130
89
61
57
65
70
63
59
67
72
70
75
88
89
72
46
33
49
65
49
22
6
-4
-1
10
4
12
73
123
97
56
44
24
3
24
43
27
28
40
6
16
105
191
390
693
612
66
-279
-190
-117
-181
-165
-112
-129
-127
-74
-53
-61
-44
-12
14
37
59
91
138
188
243
296
320
322
325
306
248
175
103
23
-44
-72
-83
-110
-135
-134
-133
-147
-158
-151
-137
-137
-144
-126
-83
-68
-95
-131
-159
-176
-173
-156
-163
-182
-164
-148
-172
-142
-31
72
181
227
0
-339
-393
-233
-162
-166
-141
-132
-143
-128
-106
-98
-87
-83
-95
-75
-12
39
72
128
202
272
341
385
380
343
283
193
95
13
-50
-86
-96
-101
-110
-113
-114
-121
-118
-88
-62
-72
-75
-25
31
31
-4
-25
-29
-33
-33
-24
-33
-45
-20
-7
-22
46
172
296
532
700
382
-149
-282
-126
-79
-101
-89
-90
-78
-47
-53
-65
-42
-22
-19
-1
41
77
96
131
209
284
327
364
386
351
278
208
131
37
-42
-71
-65
-69
-78
-56
-40
-75
-93
-44
-11
-48
-68
4
118
217
303
381
498
688
858
988
1237
1511
1358
697
27
-293
-389
-434
-444
-437
-441
-452
-477
-508
-522
-539
-585
-644
-696
-744
-792
-811
-776
-708
-613
-467
-314
-217
-142
-58
-36
-104
-182
-221
-252
-288
-302
-290
-284
-294
-303
-302
-295
-278
-245
-209
-174
-142
-133
-126
-84
-54
-73
-65
17
102
111
65
46
69
72
56
65
77
89
119
104
99
220
364
531
856
944
417
-122
-95
95
65
10
38
52
62
73
63
73
102
104
103
126
161
200
241
293
368
436
468
488
493
453
380
306
218
120
47
3
-34
-65
-77
-77
-81
-92
-92
-66
-27
3
40
117
222
337
496
683
845
1057
1332
1380
1000
430
-19
-293
-439
-492
-510
-515
-503
-513
-558
-590
-597
-604
-622
-656
-707
-734
-731
-728
-677
-531
-362
-241
-145
-65
-6
41
40
-19
-55
-49
-75
-118
-116
-90
-83
-84
-77
-58
-39
-37
-38
-25
-18
-30
-33
-27
-40
-45
-9
13
-7
13
81
98
55
31
31
22
11
16
29
27
32
51
37
32
114
223
344
487
397
-18
-303
-214
-81
-82
-84
-72
-90
-97
-87
-79
-69
-67
-65
-38
-7
7
29
75
136
202
262
310
349
363
329
263
193
117
30
-36
-65
-83
-105
-111
-94
-74
-68
-65
-37
18
65
117
215
348
515
718
866
977
1209
1416
1214
622
54
-264
-390
-419
-430
-455
-477
-490
-504
-523
-559
-608
-650
-684
-722
-768
-801
-797
-756
-673
-524
-333
-162
-28
75
132
142
121
87
62
45
12
-3
34
64
38
14
31
48
56
67
51
30
61
93
61
26
39
53
42
22
3
29
127
219
212
152
133
141
122
116
139
117
90
128
122
74
186
383
509
731
885
483
-122
-163
94
35
