# session 89
2
-12
-38
-49
-41
-50
-45
-3
-16
-67
-3
133
249
406
429
67
-336
-346
-178
-149
-179
-175
-171
-166
-168
-179
-156
-120
-119
-117
-87
-59
-37
12
69
108
149
198
230
239
240
223
183
131
75
11
-48
-94
-130
-156
-170
-179
-191
-187
-149
-87
-36
-7
65
271
544
702
793
1037
1270
1047
416
-114
-329
-393
-418
-421
-434
-448
-443
-462
-510
-532
-533
-571
-632
-666
-691
-723
-718
-669
-600
-479
-293
-123
-5
97
159
140
86
75
114
106
28
82
363
661
793
704
318
-204
-505
-542
-501
-391
-201
-50
21
56
58
47
72
120
159
206
287
403
542
664
733
763
784
774
707
607
500
391
283
156
35
-2
-5
-76
-150
-137
-114
-138
-155
-152
-143
-117
-100
-113
-115
-103
-107
-102
-75
-68
-79
-81
-89
-109
-105
-78
-75
-111
-138
-122
-108
-115
-110
-107
-131
-136
-110
-108
-116
-96
-84
-97
-107
-121
-124
-96
-107
-165
-136
-17
20
-38
-65
-62
-78
-80
-80
-96
-75
-66
-98
-17
157
277
501
741
463
-159
-356
-166
-117
-172
-133
-100
-115
-104
-81
-68
-62
-60
-41
-6
6
10
55
120
167
208
260
314
345
337
300
250
189
130
73
-2
-74
-99
-116
-164
-193
-181
-169
-148
-97
-65
-81
-83
-31
23
6
-50
-64
-52
-81
-117
-117
-112
-99
-90
-115
-83
47
158
288
442
276
-206
-427
-262
-143
-181
-192
-154
-112
-84
-87
-84
-61
-47
-30
-5
7
32
79
114
145
208
280
336
372
376
336
263
171
72
-21
-87
-116
-127
-139
-148
-144
-132
-122
-114
-109
-102
-78
-36
-7
-12
-35
-56
-71
-69
-49
-50
-69
-39
-3
-37
-31
83
190
339
542
420
-59
-304
-154
-45
-91
-94
-59
-64
-75
-60
-26
-4
-13
-16
18
60
81
91
116
181
257
296
314
334
326
284
240
188
101
8
-48
-73
-88
-94
-98
-109
-109
-83
-51
-39
-44
-33
8
48
59
71
108
157
242
376
463
511
702
977
960
534
26
-274
-381
-421
-437
-427
-423
-449
-480
-500
-520
-541
-569
-617
-656
-674
-707
-746
-741
-691
-615
-504
-355
-191
-46
48
94
103
65
9
-7
-6
-20
-17
-1
-10
-25
-8
25
38
24
23
48
54
47
79
132
164
187
188
135
78
66
71
70
65
61
74
69
58
136
254
389
707
923
488
-200
-326
-84
-45
-102
-63
-46
-50
-13
-1
-7
22
39
36
76
133
148
165
238
326
388
452
521
556
555
521
429
302
201
130
55
-15
-41
-37
-60
-105
-107
-74
-82
-103
-49
54
134
200
262
318
442
633
791
971
1243
1332
935
260
-244
-457
-549
-606
-598
-570
-590
-615
-621
-647
-689
-714
-740
-781
-832
-879
-900
-898
-874
-795
-658
-503
-349
-198
-78
-9
21
16
-15
-37
-38
-37
-36
-24
-21
-31
-21
6
6
-8
6
13
-11
-9
18
1
-20
40
118
129
104
87
59
28
40
67
49
32
55
40
32
152
280
400
684
796
325
-203
-192
10
-3
-56
-27
-15
-20
-20
-25
-5
33
40
31
55
95
117
146
216
308
383
435
472
486
461
396
315
233
148
54
-29
-70
-82
-111
-148
-144
-105
-74
-60
-46
-13
38
58
29
0
-10
-38
-67
-59
-48
-48
-34
-47
-75
-11
94
185
414
600
305
-211
-346
-207
-170
-188
-162
-157
-161
-137
-120
-124
-117
-99
-95
-90
-51
-7
9
39
103
162
199
229
242
223
182
119
17
-87
-136
-159
-205
-232
-216
-205
-219
-218
-183
-141
-127
-127
-99
-56
-46
-72
-96
-111
-130
-139
-126
-119
-115
-100
-115
-123
-36
73
160
304
310
-38
-377
-340
-183
-178
-192
-154
-156
-173
-146
-130
-149
-146
-109
-74
-50
-27
2
50
112
176
248
309
333
348
357
307
216
137
61
-15
-54
-68
-89
-101
-85
-61
-47
-36
-23
-16
1
63
130
138
102
60
20
6
29
26
4
47
76
38
117
302
387
525
729
488
-130
-364
-156
-70
-161
-168
-114
-107
-121
-112
-94
-85
-70
-41
-25
-14
22
69
119
192
275
345
395
409
391
352
266
141
38
-35
-105
-153
-152
-132
-150
-194
-188
-136
-139
-184
-160
-70
-14
-18
-58
-112
-146
-144
-123
-131
-168
-147
-89
-121
-131
35
211
341
512
404
-118
-454
-325
-180
-215
-232
-209
-202
-187
-180
-185
-171
-156
-149
-125
-92
-65
-26
32
98
168
237
293
328
332
296
222
125
26
-51
-96
-127
-152
-155
-151
-177
-196
-159
-123
-142
-147
-75
12
29
-10
-43
-59
-86
-101
-87
-97
-114
-80
-79
-114
-19
135
219
422
612
315
-192
-277
-113
-107
-131
-71
-56
-73
-45
-19
-27
-30
-11
17
39
59
91
137
185
234
288
343
382
378
329
258
179
93
14
-42
-87
-118
-122
-122
-145
-171
-167
-143
-124
-111
-92
-49
9
24
-13
-38
-39
-40
-28
-20
-37
-20
-3
-41
-3
134
230
418
691
546
-24
-313
-188
-127
-188
-161
-114
-121
-117
-105
-106
-80
-37
-31
-43
-27
6
35
74
127
170
202
238
271
283
267
212
128
48
-12
-61
-82
-78
-93
-128
-150
-155
-147
-120
-101
-95
-48
42
117
170
229
311
436
570
691
855
987
862
462
44
-208
-309
-334
-345
-364
-381
-396
-417
-442
-470
-506
-546
-584
-622
-659
-687
-695
-675
-624
-538
-411
-268
-152
-56
33
71
38
3
-1
-15
-51
-73
-72
-71
-70
-63
-62
-65
-53
-41
-49
-59
-45
-13
15
22
31
80
141
149
115
90
69
63
101
120
90
106
133
74
92
270
404
536
722
554
8
-239
-58
50
7
21
40
25
40
49
29
31
45
49
59
67
66
91
156
226
279
333
411
489
500
443
374
298
192
97
38
-6
-41
-65
-95
-111
-79
-52
-84
-106
-35
87
194
275
359
508
723
890
1048
1341
1529
1207
521
-45
-337
-473
-530
-543
-537
-534
-548
-564
-591
-641
-672
-680
-720
-782
-833
-879
-901
-872
-800
-677
-504
-332
-199
-97
-32
-13
-25
-49
-73
-93
-103
-105
-102
-98
-92
-83
-72
-61
-54
-48
-44
-54
-64
-48
-22
-26
-44
-11
66
114
106
81
58
37
43
60
36
23
80
80
18
110
283
365
589
844
525
-135
-310
-101
-67
-132
-94
-81
-113
-80
-36
-51
-57
-18
11
14
34
74
104
149
237
325
370
394
422
422
382
326
250
145
49
-15
-65
-98
-106
-117
-134
-121
-89
-74
-76
-62
-16
16
-3
-37
-49
-80
-124
-111
-77
-86
-81
-53
-77
-56
81
202
346
567
494
11
-307
-207
-83
-115
-132
-105
-101
-103
-92
-79
-70
-48
-13
3
5
26
64
106
165
226
263
286
303
297
266
213
127
22
-61
-105
-126
-137
-136
-140
-151
-158
-154
-121
-59
-25
-11
80
206
271
376
564
685
823
1126
1283
957
388
-48
-289
-383
-385
-393
-423
-429
-432
-451
-460
-477
-517
-546
-557
-577
-597
-601
-597
-564
-480
-365
-254
-154
-63
7
33
19
-6
-32
-68
-98
-107
-112
-119
-115
-104
-110
-115
-108
-106
-113
-108
-108
-130
-148
-139
-119
-117
-125
-99
-45
-31
-63
-72
-61
-75
-77
-49
-42
-29
17
6
-24
82
221
306
496
603
261
-188
-222
-53
-27
-45
-18
-18
-29
-10
18
44
60
68
85
112
141
173
202
240
313
402
462
495
522
516
459
384
300
190
87
23
-21
-53
-60
-65
-88
-85
-30
23
61
161
342
569
828
1048
1199
1461
1826
1796
1115
275
-196
-341
-394
-426
-443
-461
-466
-455
-459
-495
-543
-582
-614
-628
-632
-666
-714
-707
-641
-550
-423
-259
-110
-19
22
30
12
-21
-63
-102
-120
-125
-132
-125
-106
-112
-141
-144
-129
-139
-152
-133
-122
-145
-173
-179
-165
-156
-182
-201
-141
-46
-11
-36
-57
-67
-87
-89
-68
-71
-69
-23
-35
-71
53
226
344
633
853
445
-204
-329
-137
-119
-165
-132
-121
-133
-117
-106
-104
-82
-51
-46
-70
-78
-31
44
104
152
207
257
280
286
294
270
199
128
75
12
-49
-78
-89
-100
-114
-127
-108
-58
-33
-38
-14
60
140
161
97
27
19
14
-31
-65
-91
-110
-82
-86
-132
-50
119
251
463
577
200
-303
-326
-114
-95
-125
-69
-55
-79
-55
-28
-34
-28
-3
10
20
53
92
123
170
242
311
366
407
426
417
374
288
179
85
22
-16
-35
-41
-48
-65
-81
-83
-69
-31
14
31
65
166
257
320
473
668
789
979
1270
1295
877
324
-78
-311
-421
-458
-482
-516
-541
-542
-547
-585
-622
-635
-654
-688
-713
-734
-742
-705
-627
-532
-411
-262
-128
-48
-3
24
21
-12
-34
-40
-57
-75
-69
-59
-65
-61
-50
-56
-62
-49
-45
-59
-64
-64
-75
-69
-45
-42
-49
-12
42
39
-8
-32
-27
-33
-43
-40
-51
-61
-43
-57
-75
22
154
242
389
422
68
-314
-282
-86
-63
-93
-56
-22
-20
-26
-27
-12
9
26
50
86
122
149
181
252
347
425
495
555
568
539
496
423
316
217
145
75
10
-29
-48
-61
-63
-61
-60
-42
-15
16
109
267
399
519
710
900
1035
1270
1581
1543
951
205
-244
-387
-418
-442
-466
-473
-478
-496
-510
-538
-602
-646
-655
-700
-766
-793
-822
-850
-794
-662
-524
-386
-246
-115
0
47
10
-27
-22
-20
-33
-48
-58
-52
-44
-49
-39
-14
-2
1
-3
-21
-28
-32
-58
-73
-66
-86
-106
-56
20
37
4
-21
-35
-54
-56
-37
-38
-24
29
23
11
145
288
388
657
791
334
-204
-197
-7
-32
-65
-20
-29
-40
-12
-15
-31
-20
-7
4
24
39
63
103
145
201
279
329
339
351
357
313
238
162
84
13
-36
-69
-87
-102
-125
-135
-116
-82
-55
-63
-96
-72
4
17
-37
-68
-81
-105
-95
-65
-83
-100
-63
-73
-113
-12
141
236
440
566
194
-308
-335
-133
-117
-152
-114
-107
-127
-121
-108
-90
-60
-41
-36
-13
30
72
97
122
170
229
280
315
318
292
246
162
53
-17
-49
-97
-147
-155
-148
-168
-190
-181
-157
-138
-131
-128
-93
-26
4
-30
-65
-63
-48
-38
-52
-89
-90
-53
-79
-127
-54
61
135
294
394
120
-260
-299
-159
-140
-165
-156
-171
-182
-166
-166
-169
-144
-117
-104
-88
-58
-24
12
52
103
160
210
241
256
258
234
174
98
32
-16
-46
-64
-85
-99
-99
-109
-129
-114
-67
-50
-43
41
193
336
431
499
610
822
1094
1288
1179
660
39
-283
-345
-394
-442
-436
-438
-470
-480
-478
-505
-551
-588
-619
-652
-691
-736
-754
-715
-652
-572
-428
-242
-86
56
196
264
256
240
214
169
147
137
112
100
113
124
130
126
116
129
165
180
154
113
121
188
220
212
285
449
613
778
923
995
1161
1536
1754
1403
672
65
-205
-257
-270
-310
-325
-303
-315
-360
-377
-380
-413
-480
-561
-610
-616
-652
-720
-721
-650
-579
-494
-364
-227
-98
11
42
14
6
8
-16
-24
-11
-42
-84
-48
14
-7
-73
-79
-36
-9
-7
-33
-80
-80
-13
16
-49
-114
-86
8
75
56
-18
-61
-50
-34
-42
-67
-80
-46
-29
-66
-1
169
277
448
675
465
-120
-352
-183
-125
-181
-147
-117
-138
-129
-110
-103
-83
-70
-69
-54
-19
25
68
105
149
219
299
356
378
377
356
298
205
104
14
-51
-86
-115
-146
-152
-149
-167
-169
-127
-85
-23
102
242
411
664
891
1037
1261
1508
1466
1048
456
-73
-374
-454
-456
-467
-487
-499
-505
-523
-559
-591
-612
-636
-673
-719
-753
-746
-690
-600
-474
-302
-116
30
116
150
137
95
57
36
20
6
-2
3
19
18
-2
2
37
57
51
45
39
34
40
40
21
15
32
40
34
59
118
148
124
102
104
81
53
77
93
67
87
114
58
59
177
273
429
646
498
-22
-301
-202
-117
-131
-114
-99
-109
-101
-87
-81
-63
-41
-40
-48
-32
3
29
56
92
123
154
204
248
260
255
242
193
118
56
5
-50
-82
-81
-83
-98
-102
-88
-64
-41
-44
-57
-29
24
41
33
55
93
147
262
380
419
520
771
882
602
140
-194
-355
-411
-409
-407
-426
-436
-434
-441
-462
-489
-521
-559
-597
-629
-660
-687
-690
-666
-611
-513
-375
-226
-95
1
55
76
69
36
8
11
15
0
-5
11
30
52
70
61
38
35
48
58
69
86
102
128
176
209
188
145
134
137
122
111
117
125
135
116
83
151
281
380
624
893
620
-41
-278
-74
12
-35
-11
9
-3
21
34
18
31
62
72
71
81
108
158
217
265
318
393
463
500
506
478
415
316
186
78
34
-1
-69
-112
-111
-124
-141
-128
-109
-94
-67
-25
66
210
334
446
607
762
904
1138
1339
1172
605
-7
-375
-504
-534
-558
-578
-575
-573
-594
-620
-640
-666
-698
-727
-759
-795
-830
-855
-855
-809
-712
-576
-410
-236
-93
-1
49
62
42
13
-4
-9
-12
-15
-15
-8
-4
-5
3
25
26
-3
-10
15
1
-42
-37
-29
-75
-80
6
71
54
22
17
10
-9
-2
12
-3
11
60
39
29
153
262
377
680
767
257
-252
-225
-68
-111
-139
-75
-52
-71
-76
-69
-58
-47
-33
-19
-12
7
52
98
139
205
281
324
332
340
345
305
218
130
62
-3
-55
-75
-85
-101
-100
-85
-71
-50
-20
-10
-4
44
110
126
91
61
44
31
26
