# session 17
43
43
30
23
33
33
8
-10
-7
-3
2
22
42
38
35
63
104
108
77
65
73
68
69
82
64
40
55
40
14
100
217
286
410
428
110
-205
-139
44
46
-1
17
28
16
14
21
38
54
60
72
100
121
125
140
182
227
260
296
346
405
453
469
460
433
367
275
211
176
117
50
31
35
0
-59
-111
-179
-268
-334
-356
-369
-408
-457
-463
-415
-371
-368
-377
-388
-424
-464
-454
-412
-400
-393
-330
-299
-353
-293
-75
66
209
477
393
-204
-575
-404
-224
-258
-254
-164
-82
-29
-3
36
101
121
101
109
132
145
181
237
264
271
317
398
445
449
463
457
368
250
177
108
15
-43
-57
-73
-95
-122
-156
-181
-190
-188
-187
-199
-201
-167
-143
-143
-112
-53
-24
-37
-72
-103
-109
-131
-198
-248
-239
-189
-145
-157
-134
25
173
290
547
619
134
-366
-324
-108
-90
-117
-107
-119
-115
-115
-165
-194
-170
-162
-188
-192
-166
-145
-118
-61
10
108
240
324
369
490
618
589
454
340
241
151
105
79
41
15
4
-19
-55
-80
-78
-56
-38
-22
7
22
-9
-41
-10
63
111
107
77
54
37
32
55
67
42
60
110
74
65
222
362
487
770
785
197
-316
-242
-56
-85
-112
-94
-128
-147
-125
-118
-120
-110
-96
-76
-51
-20
13
23
10
18
75
136
162
181
216
215
152
77
8
-68
-129
-166
-210
-247
-241
-216
-209
-214
-205
-181
-181
-209
-211
-190
-209
-249
-242
-197
-144
-93
-80
-117
-164
-203
-239
-241
-211
-208
-215
-190
-193
-195
-66
100
195
367
460
119
-315
-316
-138
-152
-208
-182
-172
-179
-165
-158
-145
-99
-52
-34
-24
8
40
51
82
157
202
199
243
336
362
318
302
291
206
96
43
28
13
5
-3
-17
-4
36
55
57
77
92
71
60
91
122
114
90
97
146
180
166
135
118
108
106
120
121
80
53
70
64
46
114
236
370
508
428
37
-253
-182
-56
-76
-93
-69
-73
-68
-49
-58
-54
-9
15
6
12
25
23
31
62
100
131
155
171
183
199
208
195
158
99
24
-43
-85
-107
-123
-139
-145
-128
-107
-104
-115
-118
-113
-112
-110
-89
-69
-72
-69
-35
-6
-21
-64
-102
-122
-135
-155
-178
-208
-239
-239
-243
-275
-214
-64
48
228
405
122
-476
-665
-434
-331
-395
-397
-381
-410
-425
-427
-425
-394
-345
-317
-294
-239
-175
-136
-114
-69
19
135
240
325
398
433
427
422
397
319
239
176
85
13
29
67
55
46
72
92
99
117
118
83
73
110
125
106
121
164
185
186
172
147
133
105
68
78
106
110
121
91
52
195
419
532
723
855
421
-225
-319
-82
-56
-119
-106
-125
-150
-125
-129
-154
-131
-104
-120
-143
-150
-137
-94
-53
-31
13
94
166
213
241
242
219
157
50
-33
-66
-128
-220
-256
-239
-232
-241
-243
-233
-205
-168
-150
-167
-186
-158
-123
-153
-188
-107
46
139
143
124
122
122
111
121
141
127
123
132
91
114
278
411
584
904
867
254
-204
-142
-57
-144
-179
-172
-202
-210
-198
-195
-181
-161
-144
-126
-125
-136
-122
-82
-49
-31
6
69
121
145
161
158
118
63
-3
-102
-188
-218
-232
-264
-286
-286
-284
-280
-274
-274
-258
-204
-141
-113
-123
-148
-163
-120
5
144
232
340
508
624
707
964
1308
1299
789
139
-277
-414
-413
-403
-426
-448
-440
-433
-466
-516
-549
-572
-603
-644
-695
-737
-741
-718
-688
-634
-529
-386
-252
-149
-39
81
132
111
104
131
163
205
238
235
230
256
289
297
275
247
226
208
217
250
247
214
221
256
264
249
218
182
184
209
197
170
191
246
280
293
306
308
282
244
223
207
182
183
209
177
123
181
309
433
611
640
253
-192
-224
-58
-43
-83
-52
-41
-73
-80
-62
-55
-59
-53
-38
-34
-42
-37
-9
13
19
53
114
152
171
194
201
181
162
137
80
6
-53
-95
-122
-142
-169
-186
-167
-136
-124
-129
-140
-154
-162
-160
-153
-154
-173
-184
-158
-121
-129
-178
-223
-239
-243
-244
-246
-257
-260
-239
-246
-280
-233
-129
-64
12
11
-290
-648
-646
-456
-418
-450
-427
-423
-440
-430
-424
-434
-435
-432
-426
-395
-368
-362
-316
-201
-91
-15
90
233
354
430
479
498
474
410
327
256
205
159
121
115
140
166
177
176
175
186
184
147
129
155
160
128
127
177
235
269
262
227
216
230
223
215
234
238
243
263
215
192
372
568
660
873
958
477
-64
-38
176
151
96
131
138
128
115
53
21
82
130
101
69
64
33
-19
-29
-14
-36
-63
-18
58
83
75
56
-6
-94
-161
-221
-283
-320
-327
-327
-332
-341
-349
-332
-278
-230
-208
-141
-13
126
319
578
806
1071
1457
1592
1093
276
-282
-500
-587
-615
-604
-615
-641
-639
-627
-635
-651
-664
-691
-727
-744
-764
-811
-836
-806
-758
-683
-540
-376
-252
-138
-19
47
58
65
69
58
52
51
46
52
67
69
70
83
87
81
83
90
90
88
90
93
99
104
106
111
111
107
114
131
128
101
94
125
144
113
81
113
188
238
228
190
163
137
111
121
124
89
99
134
94
106
267
408
569
819
703
82
-317
-175
-11
-62
-98
-76
-70
-63
-62
-71
-58
-36
-29
-22
-2
22
36
45
70
109
151
196
236
253
255
247
223
199
163
91
12
-40
-80
-115
-135
-150
-157
-145
-138
-143
-129
-109
-118
-134
-122
-112
-130
-135
-90
-44
-55
-101
-121
-124
-142
-156
-144
-122
-91
-65
-92
-113
-26
92
188
328
307
-83
-443
-386
-201
-179
-173
-121
-123
-132
-103
-97
-100
-64
-25
-16
-9
6
23
53
99
132
160
218
283
305
305
313
304
269
212
123
37
-2
-22
-51
-62
-65
-77
-71
-53
-58
-66
-53
-57
-71
-41
-3
-20
-29
28
70
39
-3
-12
-19
-32
-24
-1
-9
-27
-22
-33
-40
35
139
249
382
316
-50
-306
-219
-97
-111
-112
-85
-98
-104
-86
-92
-87
-32
15
15
6
12
25
43
59
76
119
171
203
224
241
234
210
178
122
50
-13
-61
-92
-102
-114
-129
-125
-111
-119
-141
-148
-140
-133
-123
-110
-108
-102
-67
-34
-47
-85
-112
-130
-148
-148
-129
-128
-138
-113
-97
-117
-58
78
181
312
390
95
-366
-443
-231
-155
-184
-163
-142
-130
-100
-93
-99
-80
-59
-47
-33
-25
-13
22
60
94
145
200
245
293
338
367
379
352
267
174
115
71
33
9
-6
-24
-37
-47
-48
-32
-21
-36
-49
-36
-33
-54
-48
12
70
87
69
27
-18
-32
-20
-14
-24
-26
-1
2
-23
59
231
343
532
777
557
-85
-374
-194
-85
-120
-94
-67
-91
-104
-100
-78
-49
-46
-48
-52
-66
-37
21
31
36
101
173
232
296
319
302
292
264
181
63
-36
-72
-82
-125
-170
-172
-157
-152
-157
-161
-145
-121
-107
-109
-155
-223
-237
-205
-178
-135
-89
-103
-148
-156
-128
-113
-141
-171
-127
-72
-104
-85
85
222
317
474
377
-119
-432
-275
-107
-142
-148
-104
-113
-119
-95
-91
-99
-85
-65
-49
-16
31
55
70
124
188
220
261
329
355
327
305
283
216
122
40
-29
-81
-101
-110
-137
-164
-161
-144
-136
-137
-135
-124
-100
-77
-82
-100
-87
-41
0
10
-3
-25
-61
-93
-79
-53
-76
-81
-38
-61
-76
64
199
301
554
607
107
-368
-315
-143
-175
-204
-169
-165
-158
-130
-115
-102
-86
-68
-38
-14
-11
1
37
77
121
184
248
293
317
327
332
315
247
152
77
17
-44
-86
-103
-103
-86
-58
2
105
195
311
562
839
1008
1228
1465
1285
649
74
-183
-297
-384
-424
-431
-444
-467
-483
-494
-512
-533
-563
-608
-644
-656
-660
-637
-565
-479
-395
-284
-160
-58
18
70
90
84
62
40
38
37
9
-16
-8
-2
-11
-9
0
-2
-8
-11
-10
2
8
9
17
14
1
19
49
48
40
48
47
35
39
52
41
17
25
50
32
-9
-3
32
39
32
51
96
138
132
85
63
71
67
61
72
85
97
84
52
107
244
363
472
468
150
-234
-260
-81
-56
-109
-80
-50
-64
-58
-39
-44
-47
-38
-36
-33
-19
-2
18
47
73
98
141
190
218
228
237
243
227
190
149
113
66
15
-16
-27
-33
-40
-50
-58
-53
-45
-50
-55
-50
-47
-50
-49
-49
-58
-54
-17
21
24
4
-14
-26
-32
-21
-7
-2
24
5
-191
-451
-563
-595
-562
-295
-97
-391
-764
-674
-399
-319
-312
-261
-227
-200
-167
-149
-128
-100
-83
-66
-42
-11
34
88
134
178
240
308
365
417
469
493
472
419
337
244
167
109
67
48
35
17
8
3
-2
5
13
-2
-22
-6
35
35
-7
0
80
137
116
76
64
57
33
17
27
30
23
28
4
-7
122
287
389
593
712
318
-238
-310
-101
-77
-138
-107
-77
-85
-83
-98
-127
-130
-119
-97
-48
-22
-37
-24
38
94
142
203
267
328
363
339
285
241
182
95
19
-33
-78
-106
-95
-79
-109
-149
-137
-108
-112
-115
-91
-75
-82
-98
-102
-65
5
56
50
-8
-58
-66
-76
-97
-87
-81
-89
-73
-98
-116
37
229
344
539
568
75
-431
-395
-192
-209
-240
-185
-180
-205
-194
-183
-190
-182
-157
-144
-148
-138
-106
-76
-52
-11
47
105
151
183
203
201
153
70
-6
-70
-138
-197
-223
-228
-234
-244
-252
-259
-254
-223
-193
-196
-209
-195
-166
-152
-158
-157
-115
-55
-30
-54
-83
-96
-112
-124
-104
-95
-109
-86
-73
-100
-23
129
242
498
758
446
-207
-390
-179
-131
-187
-139
-106
-127
-116
-91
-79
-63
-47
-28
7
39
53
75
114
155
204
271
333
382
421
434
420
394
343
266
193
148
131
117
89
76
96
124
145
163
165
157
167
189
203
213
232
256
290
343
391
411
411
400
387
391
414
426
424
455
500
486
490
592
692
822
1090
1157
745
338
371
544
563
549
591
637
615
441
131
-170
-348
-398
-429
-555
-741
-907
-1060
-1202
-1317
-1420
-1513
-1578
-1647
-1744
-1834
-1915
-2029
-2161
-2262
-2353
-2438
-2440
-2371
-2318
-2186
-1841
-1412
-1086
-828
-568
-353
-195
-34
147
317
455
564
678
819
928
966
996
1061
1114
1157
1222
1264
1284
1360
1430
1418
1462
1614
1732
1841
1939
1749
1369
1322
1598
1736
1691
1666
1647
1609
1591
1566
1515
1462
1406
1333
1227
1100
988
851
639
417
239
65
-102
-227
-343
-487
-637
-779
-931
-1094
-1244
-1378
-1501
-1586
-1649
-1727
-1733
-1609
-1488
-1420
-1322
-1286
-1332
-1178
-910
-995
-1338
-1476
-1428
-1421
-1416
-1381
-1365
-1340
-1323
-1313
-1202
-1014
-905
-826
-707
-691
-718
-494
-113
200
571
827
536
55
39
292
385
412
486
517
530
565
575
574
599
623
635
652
671
687
710
731
744
776
838
899
930
934
931
914
853
748
650
571
488
430
422
418
390
358
316
255
174
52
-95
-174
-141
-68
-32
-20
18
93
165
188
164
140
134
122
108
124
142
122
129
162
129
146
319
446
539
765
717
132
-297
-175
-41
-120
-121
-120
-270
-362
-313
-285
-305
-303
-274
-237
-218
-215
-188
-161
-139
-47
43
-59
-285
-368
-269
-153
-110
-139
-222
-300
-330
-330
-337
-362
-393
-407
-397
-379
-352
-323
-306
-293
-278
-258
-232
-230
-254
-232
-141
-68
-65
-94
-118
-136
-155
-164
-149
-135
-125
-100
-104
-93
54
211
325
594
734
274
-301
-319
-107
-116
-165
-123
-108
-110
-88
-83
-87
-78
-71
-56
-24
-2
7
22
50
92
149
214
283
329
333
316
294
243
156
60
-26
-80
-104
-122
-134
-121
-105
-99
-81
-71
-99
-123
-100
-53
-6
22
21
21
69
147
187
163
127
110
95
92
116
121
113
140
139
115
204
332
430
721
1006
697
59
-129
43
77
24
52
68
48
70
117
124
85
67
112
171
182
163
187
262
309
310
353
448
494
469
451
453
414
325
235
154
28
-130
-221
-290
-470
-646
-571
-294
-136
-235
-348
-239
-19
121
105
-170
-646
-988
-1016
-894
-788
-735
-725
-717
-681
-650
-635
-602
-558
-549
-561
-544
-509
-494
-472
-401
-295
-170
-29
81
145
211
285
316
297
265
243
233
226
217
219
222
208
195
205
223
225
208
199
214
223
213
212
220
210
195
209
239
242
216
198
200
192
171
174
187
173
153
151
141
129
133
133
129
149
159
133
134
187
216
193
174
169
140
111
114
113
93
88
83
43
40
125
234
333
355
124
-258
-404
-272
-165
-167
-159
-142
-147
-145
-137
-133
-122
-117
-119
-102
-75
-66
-66
-46
-12
21
56
93
130
162
169
154
141
127
87
34
-7
-56
-114
-153
-171
-183
-190
-191
-191
-187
-181
-171
-161
-171
-189
-183
-163
-151
-147
-139
-108
-58
-48
-92
-117
-113
-133
-146
-114
-103
-119
-97
-97
-120
-13
153
257
453
591
224
-337
-414
-179
-127
-179
-155
-141
-158
-139
-110
-100
-94
-83
-66
-49
-35
-9
33
83
132
182
257
355
421
450
483
477
394
297
225
148
80
51
37
24
18
14
12
23
35
47
66
70
58
83
126
125
130
187
222
228
268
285
240
189
153
200
254
-191
-1242
-1982
-1735
-1022
-549
-306
1
253
79
-348
-452
-215
-45
-46
