# session 186
3
-118
-2650
-4228
-2180
435
848
464
646
790
668
643
645
579
544
513
459
434
416
386
366
345
333
347
351
327
320
325
301
291
319
313
263
240
243
217
167
132
132
146
133
107
108
109
85
64
64
76
94
103
103
108
108
80
39
33
60
51
-6
-20
31
56
27
2
-4
-20
-32
-28
-32
-40
-44
-62
-63
-38
-62
-79
30
153
281
567
681
231
-301
-339
-167
-174
-237
-222
-188
-189
-232
-258
-237
-229
-214
-173
-207
-248
-171
-145
-189
-106
-90
-162
24
24
-242
287
408
-2045
-4222
-2429
461
751
98
309
419
191
218
255
161
173
201
161
156
151
107
105
123
98
93
134
121
60
65
112
119
131
162
146
134
179
162
51
15
57
4
-48
50
87
0
42
66
-33
107
136
-114
499
1004
-1184
-3772
-2589
182
632
30
242
371
140
182
274
207
212
257
246
244
251
251
258
268
283
290
285
313
361
377
383
416
473
510
474
439
486
482
340
214
199
208
161
100
121
104
-24
72
227
-105
-112
506
-644
-3659
-4204
-1343
663
417
275
766
953
1000
1274
1598
1666
1243
551
88
-79
-146
-157
-153
-176
-173
-159
-183
-189
-165
-185
-236
-258
-262
-285
-324
-351
-388
-462
-506
-482
-460
-404
-284
-220
-128
63
77
92
355
216
-86
458
305
-1786
-2637
-608
853
318
60
432
349
187
282
249
171
214
208
156
164
170
142
129
126
111
109
115
87
55
66
77
61
60
58
27
4
0
-26
-57
-21
33
-33
-85
39
66
7
183
84
-258
288
367
-2099
-4019
-2023
632
625
-7
269
295
74
262
411
434
715
817
339
-111
-71
69
37
15
45
29
25
66
68
28
23
68
114
121
90
74
86
89
79
98
141
169
176
195
235
274
306
340
338
314
348
361
192
1
23
107
66
18
34
11
-35
-32
-18
8
95
186
289
522
783
934
1192
1519
1340
575
-82
-260
-240
-271
-318
-320
-308
-319
-350
-400
-449
-456
-448
-455
-448
-453
-498
-539
-573
-545
-449
-520
-581
-291
-250
-437
238
325
-2115
-3843
-1751
736
590
-9
297
335
113
190
220
140
174
179
125
137
157
135
134
147
146
139
132
135
148
146
139
153
170
166
152
137
133
155
164
140
143
152
109
96
110
31
16
118
36
-3
204
-14
-229
467
126
-2283
-2996
-574
999
390
113
452
324
181
296
251
184
247
237
199
238
224
171
239
365
489
729
873
537
12
-118
37
72
12
9
16
-9
-35
-42
-40
-42
-49
-38
-20
-28
-54
-63
-44
1
19
9
88
147
56
139
302
70
136
696
-65
-1796
-1539
209
569
-18
44
173
-48
-66
12
-64
-88
-43
-41
-32
12
86
181
291
493
756
901
1052
1369
1409
810
83
-221
-272
-336
-378
-382
-404
-423
-422
-417
-421
-438
-439
-422
-450
-507
-512
-509
-575
-638
-640
-637
-629
-552
-433
-330
-224
-101
9
96
143
130
105
114
112
87
88
108
108
99
89
74
61
46
34
42
50
32
14
20
40
64
76
79
86
88
85
87
83
75
87
99
86
76
76
72
73
62
28
21
50
54
28
15
3
-8
12
27
-1
11
91
130
102
83
72
44
40
41
14
-2
-4
-37
-55
-55
-100
-87
71
241
416
625
521
11
-315
-203
-82
-125
-134
-106
-123
-128
-116
-132
-139
-115
-105
-106
-78
-46
-48
-59
-53
-40
-7
45
91
135
184
209
224
252
254
228
239
263
228
146
89
86
73
13
-24
-27
-28
1
-6
-34
100
199
160
460
735
524
1067
1775
-400
-3690
-3102
-112
643
-66
84
299
40
17
81
-39
-65
-22
-59
-74
-64
-100
-132
-143
-172
-213
-237
-220
-176
-154
-139
-74
25
115
203
275
300
300
277
200
160
215
204
137
193
187
73
179
170
-98
274
389
-1772
-3982
-2648
147
743
177
315
480
302
323
406
332
299
310
281
261
245
214
204
205
198
204
217
194
156
166
189
142
98
145
163
102
96
123
82
81
140
116
59
38
20
73
78
-38
85
162
-221
18
598
-1018
-3503
-2643
293
1222
679
553
319
-60
71
234
114
99
157
120
113
138
115
90
91
100
107
105
105
101
69
52
88
118
114
117
136
151
169
195
218
225
212
211
207
154
125
130
32
-25
45
-124
-233
197
-381
-3050
-4760
-2868
-70
552
134
257
391
254
295
430
458
507
636
832
1020
1064
1117
1376
1506
1127
516
119
-64
-184
-220
-202
-237
-279
-248
-211
-230
-263
-289
-316
-328
-327
-331
-339
-360
-393
-412
-403
-375
-338
-293
-225
-125
-17
59
115
179
224
223
207
198
170
124
90
90
117
125
91
72
85
90
96
134
206
351
591
851
1048
1146
1096
861
538
327
246
109
-55
-148
-306
-347
-139
-300
-532
51
-165
-2295
-3106
-1035
442
-91
-385
-61
-139
-263
-159
-196
-246
-177
-198
-244
-157
-55
-18
53
166
217
195
193
224
216
170
159
174
145
105
122
131
79
76
116
76
85
151
34
43
266
-17
-183
597
7
-2829
-3616
-888
972
463
208
577
469
310
421
416
364
381
338
303
319
290
260
274
256
222
231
232
211
217
212
174
176
195
147
116
144
113
127
261
189
47
214
98
-207
385
360
-2031
-3513
-1438
725
481
-6
291
362
317
550
773
765
417
-42
-121
39
23
-36
31
59
7
-16
-15
-16
15
45
15
-27
1
49
48
22
-2
22
98
98
96
225
204
115
352
303
-60
500
536
-2170
-4258
-2129
719
750
82
342
387
147
205
223
117
148
181
131
118
116
89
89
109
104
89
97
127
141
113
77
62
47
22
10
11
-4
-39
-27
44
28
-46
16
68
98
437
664
485
613
182
-2045
-3338
-1410
569
266
-198
127
99
-91
43
75
-2
65
91
34
57
103
96
96
114
125
156
207
250
291
334
360
369
376
348
275
210
153
63
-17
-32
-32
-76
-133
-164
-158
-135
-118
-109
-95
-92
-110
-79
64
213
317
591
1095
1520
1743
1830
1546
772
-5
-351
-406
-420
-426
-428
-451
-464
-452
-449
-465
-474
-480
-503
-531
-540
-544
-572
-625
-667
-687
-713
-740
-725
-653
-565
-480
-365
-225
-101
7
108
177
217
241
238
229
236
239
232
223
214
236
286
289
230
189
173
127
55
13
9
7
4
24
41
31
36
48
16
-3
37
50
8
-12
-9
-6
13
14
-1
33
72
39
-6
8
41
41
12
-3
11
-3
-38
-23
-27
-94
-63
87
252
496
690
557
305
184
10
-179
-148
-76
-130
-144
-89
-83
-96
-91
-107
-126
-109
-80
-63
-41
-11
2
10
50
106
138
170
215
254
304
323
288
310
339
269
275
291
116
123
213
-111
17
484
-1046
-3478
-2766
-44
610
-156
-64
210
21
26
157
100
106
206
217
177
128
74
72
92
59
0
-19
11
35
31
35
10
-52
7
174
318
562
728
315
-328
-429
-225
-253
-290
-157
-119
-179
-133
-34
-19
-82
-131
-93
-30
-34
-49
-5
34
31
47
92
130
183
259
300
317
374
421
390
344
312
246
160
85
25
-5
-38
-63
-10
22
-40
-16
28
-64
-5
100
-142
-41
438
-386
-1897
-1416
242
483
-54
24
137
-2
41
112
85
110
101
74
141
151
59
89
215
242
319
603
680
229
-254
-285
-127
-110
-159
-198
-260
-324
-308
-216
-258
-361
-169
-104
-470
-176
358
-1132
-3212
-2269
226
734
109
234
477
400
469
556
534
559
500
356
344
366
267
172
160
152
132
124
125
141
123
56
54
115
80
20
81
105
74
164
197
190
381
252
-89
414
452
-1620
-2911
-1046
783
392
-54
307
289
83
271
445
492
721
909
649
160
-40
73
156
104
50
49
61
63
70
58
-6
-67
-80
-84
-90
-114
-157
-113
-60
-149
-109
86
-24
6
533
-303
-3158
-4429
-2021
665
914
367
465
529
346
324
331
235
201
245
267
240
220
265
292
211
171
266
302
206
175
260
302
254
217
233
211
117
150
267
134
50
295
124
-176
480
339
-2001
-3031
-747
1202
901
370
206
-143
-175
84
79
15
91
121
93
55
13
48
98
55
19
51
50
27
60
82
49
39
79
112
101
110
223
305
206
214
381
203
41
459
-220
-3115
-4953
-2965
-14
615
102
207
404
278
262
324
269
245
300
335
322
274
271
344
368
317
291
264
188
155
202
233
197
148
151
206
222
163
151
251
358
500
789
1010
778
79
-391
148
1070
928
-3
-335
-146
-201
-315
-241
-210
-221
-165
-144
-170
-150
-110
-99
-85
-68
-68
-31
62
109
94
137
228
223
130
86
105
82
-27
-124
-115
-112
-186
-156
-101
-240
-227
-71
-299
-201
335
-1117
-4221
-4362
-1144
746
304
132
448
313
182
275
230
165
206
209
190
204
204
185
175
180
173
183
273
349
404
669
918
606
39
-89
55
45
17
75
45
-24
-10
2
-34
-35
-9
-30
-72
-59
-3
24
17
19
27
23
23
46
80
115
155
194
218
220
208
182
141
93
43
4
1
7
-16
-32
-21
-42
-77
-49
-7
-24
-58
-61
-42
-15
-12
-32
-17
31
47
28
1
-31
-43
-46
-78
-111
-112
-118
-127
-98
-67
-104
-135
-38
99
204
413
582
324
-144
-284
-169
-142
-164
-142
-148
-169
-149
-134
-139
-125
-98
-90
-88
-75
-60
-46
-21
11
30
51
89
118
141
184
212
211
232
266
267
257
238
183
127
92
35
-12
7
28
-7
-47
-70
-104
-120
-114
-151
-208
-210
-187
-183
-171
-152
-133
-90
-44
-50
-78
-86
-97
-121
-124
-108
-103
-103
-110
-115
-86
-70
-90
-23
120
217
380
559
334
-178
-332
-136
-72
-143
-136
-109
-119
-113
-98
-98
-94
-73
-51
-50
-54
-30
0
3
22
76
120
149
191
223
242
290
353
378
368
342
287
209
130
59
-8
-77
-134
-148
-131
-136
-158
-163
-154
-141
-122
-112
-112
-99
-87
-97
-102
-74
-32
4
25
25
11
-11
-42
-58
-57
-67
-81
-75
-80
-85
-56
-61
-88
13
173
293
536
731
408
-148
-267
-77
-21
-48
-34
-43
-54
-26
-18
-41
-32
9
13
-21
-14
32
37
14
30
59
51
47
103
166
178
175
190
195
179
150
100
47
9
-40
-113
-161
-157
-136
-134
-139
-137
-129
-119
-110
-111
-130
-151
-147
-120
-96
-93
-92
-61
-16
-9
-37
-55
-56
-61
-61
-56
-57
-50
-42
-57
-52
-26
-54
-53
67
167
274
535
593
146
-270
-222
-76
-101
-121
-108
-138
-134
-101
-115
-126
-98
-91
-96
-80
-77
-79
-57
-43
-34
5
36
48
96
150
167
202
257
250
212
213
201
136
78
56
36
12
-1
-12
-30
-47
-57
-63
-64
-54
-38
-33
-42
-52
-46
-20
1
-7
1
62
99
56
3
-6
-12
-22
-11
-3
-10
-9
-9
-8
11
2
-16
56
177
317
566
673
293
-206
-278
-123
-127
-200
-200
-198
-216
-211
-195
-189
-187
-181
-176
-181
-181
-157
-126
-94
-52
-9
17
34
62
102
131
141
163
194
192
165
146
122
80
38
5
-16
-22
-25
-33
-36
-34
-40
-52
-53
-37
-22
-30
-55
-62
-49
-40
-23
4
28
57
72
48
11
-13
-17
12
30
-8
-37
-24
-4
19
-4
-78
-44
84
148
251
365
135
-289
-360
-153
-94
-149
-139
-119
-118
-96
-83
-90
-91
-90
-92
-81
-62
-52
-48
-34
-6
26
59
99
137
170
210
249
271
287
297
285
257
219
159
95
63
53
38
14
-10
-14
5
9
-10
-11
4
-4
-37
-64
-51
-10
-7
-50
-45
29
63
22
-14
-34
-86
-133
-131
-130
-150
-151
-147
-159
-153
-149
-172
-137
-38
92
346
561
333
-158
-319
-173
-118
-156
-144
-131
-137
-120
-106
-106
-97
-88
-91
-89
-77
-65
-57
-46
-29
-7
16
42
71
102
133
156
171
187
201
194
158
115
87
64
24
-17
-40
-55
-73
-85
-94
-98
-87
-83
-110
-127
-107
-104
-134
-131
-92
-79
-75
-25
26
11
-34
-55
-59
-53
-25
-10
-19
-5
23
24
30
38
15
53
177
312
522
695
440
-84
-264
-118
-70
-107
-84
-80
-86
-53
-59
-92
-61
-14
-14
-14
12
30
33
42
65
86
94
122
188
236
241
249
283
313
311
284
255
219
159
100
56
9
-37
-62
-76
-97
-116
-119
-123
-131
-125
-118
-142
-175
-172
-141
-121
-126
-114
-63
-27
-48
-82
-101
-126
-147
-144
-141
-145
-137
-131
-125
-90
-84
-107
-21
137
251
438
584
286
-221
-324
-135
-102
-160
-138
-119
-136
-131
-120
-119
-116
-118
-124
-111
-96
-103
-98
-51
-7
-2
-1
37
93
139
184
224
243
247
250
242
214
160
82
11
-16
-17
-26
-38
-41
-40
-30
-18
-29
-55
-65
-69
-96
-125
-131
-117
-105
-106
-95
-52
-18
-30
-59
-71
-71
-67
-52
-41
-34
-21
-21
-20
6
5
-5
78
199
314
517
575
203
-210
-208
-42
-32
-69
-55
-48
-42
-27
-36
-61
-71
-62
-51
-46
-43
-43
-49
-47
-33
-18
3
40
78
106
131
147
155
177
190
172
160
152
100
41
34
39
13
-4
4
6
