# session 87
51
120
200
287
368
286
-37
-286
-237
-122
-113
-120
-111
-121
-118
-102
-93
-77
-52
-31
-11
9
31
69
118
156
197
258
318
347
351
342
313
257
174
85
18
-30
-76
-102
-95
-94
-121
-125
-79
-34
1
82
206
375
625
857
991
1217
1542
1520
966
286
-154
-373
-462
-462
-454
-494
-540
-547
-555
-601
-645
-661
-691
-762
-827
-841
-830
-815
-760
-643
-486
-317
-167
-54
19
48
29
-10
-35
-44
-54
-63
-53
-40
-46
-49
-28
-13
-22
-31
-21
-7
-1
-2
-4
-15
-39
-45
-26
-33
-63
-30
63
114
97
72
52
23
20
53
46
10
46
78
30
80
246
358
587
896
669
-28
-322
-125
-40
-112
-98
-72
-95
-93
-84
-87
-70
-47
-40
-30
-7
16
43
85
146
222
286
320
346
375
372
313
230
154
78
0
-60
-92
-102
-106
-118
-127
-105
-59
-35
-49
-68
-46
19
78
82
37
-7
-27
-36
-44
-52
-45
-11
-20
-78
-30
117
210
346
501
285
-200
-351
-173
-100
-124
-80
-47
-66
-67
-49
-38
-30
-17
2
19
40
72
97
116
159
229
293
319
314
313
310
255
154
67
7
-50
-89
-99
-98
-98
-110
-144
-167
-145
-113
-115
-122
-91
-40
-19
-45
-80
-95
-108
-125
-124
-115
-117
-120
-140
-158
-102
-18
69
281
428
134
-336
-436
-293
-272
-299
-255
-236
-247
-223
-200
-200
-187
-158
-134
-115
-90
-56
-18
21
67
118
170
215
243
248
226
173
94
13
-54
-101
-122
-126
-132
-145
-156
-155
-141
-124
-122
-129
-113
-56
1
7
-30
-73
-104
-112
-93
-90
-119
-96
-45
-83
-74
123
280
344
525
522
54
-309
-193
-46
-86
-77
-22
-29
-32
-10
-5
10
40
64
83
94
102
144
222
291
341
394
455
518
541
477
357
256
168
73
1
-45
-74
-78
-86
-125
-152
-122
-72
-71
-106
-84
11
110
196
273
328
440
657
824
929
1198
1522
1415
791
112
-272
-391
-411
-430
-446
-439
-441
-471
-495
-503
-529
-582
-629
-664
-705
-742
-766
-783
-775
-700
-567
-427
-288
-138
-16
40
45
28
14
15
7
-10
-2
13
-3
-22
-9
9
9
-11
-43
-73
-94
-101
-91
-91
-99
-65
11
66
76
61
34
17
23
39
36
26
54
69
21
48
181
264
425
713
607
18
-318
-181
-78
-122
-104
-75
-98
-102
-97
-107
-99
-79
-69
-53
-34
-15
17
55
90
135
205
280
308
289
273
254
176
69
-1
-41
-87
-128
-135
-106
-88
-111
-117
-68
-19
-9
6
76
189
279
349
494
687
808
958
1239
1360
1024
441
-18
-263
-364
-379
-366
-375
-406
-430
-434
-441
-465
-496
-529
-561
-587
-614
-639
-626
-566
-470
-349
-226
-115
-8
77
105
95
81
60
28
12
18
20
16
22
31
35
39
31
19
31
53
51
28
15
22
40
56
57
57
95
152
151
98
78
88
69
49
61
62
53
60
45
41
120
213
347
578
585
152
-242
-221
-88
-93
-109
-91
-104
-116
-108
-114
-122
-116
-106
-88
-71
-75
-75
-43
-6
21
76
152
197
209
222
227
193
123
41
-23
-63
-94
-115
-118
-124
-144
-144
-113
-82
-54
-15
47
154
298
446
608
765
893
1089
1369
1393
888
175
-243
-351
-401
-444
-450
-465
-486
-480
-499
-555
-584
-596
-655
-727
-763
-796
-847
-855
-788
-692
-574
-407
-227
-69
59
103
56
25
42
26
-1
12
0
-40
-19
26
10
-6
36
68
50
31
53
86
71
17
12
62
73
56
113
217
243
197
184
194
155
119
144
157
141
153
133
106
215
380
528
767
793
277
-241
-207
-9
-42
-93
-36
-22
-58
-49
-21
-22
-20
3
17
16
31
67
108
151
204
267
326
359
352
332
311
255
160
77
9
-60
-103
-116
-136
-158
-168
-181
-178
-141
-125
-153
-145
-72
-18
-31
-68
-89
-111
-141
-138
-123
-157
-164
-105
-115
-148
-57
73
275
652
723
148
-407
-403
-247
-270
-290
-240
-214
-202
-191
-181
-145
-112
-109
-97
-65
-47
-24
35
96
139
194
252
277
270
251
203
121
30
-55
-112
-127
-139
-170
-183
-174
-177
-181
-163
-150
-160
-153
-95
-15
34
61
100
157
267
426
538
636
846
1006
814
337
-88
-310
-382
-375
-358
-370
-380
-369
-374
-396
-406
-427
-462
-476
-496
-551
-585
-567
-530
-472
-372
-246
-106
31
126
178
206
205
182
169
163
151
142
138
137
142
148
145
140
139
135
121
101
100
125
135
114
115
163
196
173
136
128
129
116
115
121
108
121
147
111
111
206
207
194
386
409
-44
-413
-319
-163
-172
-155
-101
-99
-99
-78
-66
-55
-33
-15
1
24
49
74
110
161
216
273
334
378
394
387
343
257
162
86
18
-49
-99
-120
-127
-136
-147
-155
-153
-130
-102
-62
37
194
362
535
705
842
1004
1222
1295
979
381
-130
-361
-427
-474
-506
-499
-502
-536
-556
-568
-609
-655
-691
-742
-795
-824
-857
-886
-867
-796
-672
-500
-333
-184
-35
74
104
94
74
53
39
14
-13
0
31
26
8
0
-12
4
54
57
1
-19
2
-9
-24
-1
-2
-40
-14
86
141
117
88
74
41
16
34
48
43
70
84
58
129
279
390
627
899
646
-8
-265
-85
-19
-84
-63
-34
-58
-53
-20
-10
-28
-37
-12
21
28
33
62
105
164
236
289
324
363
383
351
284
209
132
54
-21
-77
-97
-102
-125
-146
-141
-129
-117
-96
-74
-55
-21
19
25
-6
-34
-45
-69
-88
-77
-76
-85
-67
-73
-87
-7
98
225
534
718
315
-256
-344
-175
-171
-218
-179
-154
-161
-150
-130
-113
-95
-77
-61
-56
-53
-35
-6
36
100
167
221
273
303
282
234
181
114
46
-5
-37
-42
-24
-22
-35
-31
-22
-22
-4
19
21
46
119
174
186
205
256
361
524
639
701
899
1203
1244
852
295
-100
-266
-319
-345
-346
-346
-388
-454
-506
-570
-668
-746
-778
-823
-903
-939
-909
-892
-897
-828
-677
-526
-389
-246
-137
-82
-68
-91
-126
-147
-172
-194
-179
-150
-143
-142
-132
-125
-118
-99
-92
-110
-106
-44
26
56
78
132
183
191
175
175
186
186
186
195
194
198
218
205
184
247
341
421
566
603
285
-87
-100
66
97
67
84
98
99
109
109
106
117
129
133
136
148
170
200
233
272
321
376
423
446
443
425
375
288
201
130
64
17
7
4
-21
-44
-50
-45
-22
3
24
103
244
378
547
772
921
1051
1352
1563
1237
509
-102
-387
-469
-491
-517
-546
-562
-586
-624
-660
-706
-757
-782
-819
-898
-947
-935
-930
-914
-817
-668
-515
-355
-199
-77
-8
3
-15
-19
-23
-56
-95
-95
-72
-68
-70
-59
-59
-65
-39
-12
-22
-36
-28
-24
-33
-30
-7
-9
-54
-49
49
124
115
93
83
43
5
21
38
8
4
30
9
42
206
344
488
691
560
17
-282
-137
-40
-97
-74
-28
-59
-71
-41
-31
-35
-23
8
41
56
69
103
152
214
291
357
402
435
444
415
361
286
192
103
37
-13
-53
-78
-87
-95
-113
-119
-86
-42
-37
-47
-18
34
66
58
15
-24
-12
38
103
194
318
448
509
446
318
236
309
555
660
305
-181
-316
-258
-310
-353
-309
-313
-350
-334
-319
-356
-397
-400
-382
-369
-370
-372
-357
-330
-299
-256
-210
-179
-155
-119
-89
-82
-80
-66
-60
-65
-51
-32
-32
-24
-6
-21
-43
-13
32
29
9
32
82
98
67
40
44
55
60
69
66
56
71
81
68
109
189
268
438
559
302
-130
-240
-96
-45
-68
-51
-42
-49
-43
-44
-49
-31
-13
-20
-24
1
30
52
93
144
184
232
286
310
311
292
222
119
38
-17
-70
-118
-140
-136
-147
-177
-168
-112
-58
0
66
135
310
600
781
860
1053
1146
798
243
-125
-310
-412
-440
-445
-455
-454
-474
-505
-511
-530
-583
-613
-620
-657
-694
-677
-628
-563
-442
-272
-95
57
154
184
189
189
155
98
67
66
67
67
68
61
53
45
37
35
29
25
38
42
12
-8
4
7
-11
-16
-12
-28
-48
-18
60
118
109
59
26
34
46
38
32
38
58
64
15
30
198
355
543
880
860
201
-306
-193
-30
-97
-108
-64
-92
-95
-55
-55
-69
-50
-16
-5
-18
2
64
101
131
214
297
338
384
411
368
316
276
173
46
-15
-58
-135
-179
-162
-150
-180
-212
-197
-160
-158
-155
-76
29
86
128
193
272
400
564
683
839
1164
1410
1148
458
-142
-397
-459
-492
-510
-512
-514
-509
-505
-526
-553
-573
-603
-638
-667
-703
-741
-764
-777
-757
-648
-479
-320
-173
-34
38
45
37
1
-61
-87
-84
-94
-93
-68
-65
-85
-84
-59
-38
-31
-35
-44
-34
-5
6
6
39
88
98
80
71
68
58
53
55
53
71
125
149
133
187
296
394
611
837
617
50
-198
-40
63
23
21
34
13
10
21
15
17
36
50
66
100
134
150
175
226
277
320
375
410
391
350
312
248
159
83
21
-37
-74
-83
-84
-108
-136
-114
-60
-46
-66
-59
-11
32
25
-11
-26
-28
-36
-22
-1
-13
-8
14
-18
-25
78
171
242
348
258
-105
-324
-224
-126
-149
-140
-111
-139
-163
-141
-121
-125
-129
-121
-108
-100
-91
-66
-28
13
66
136
192
219
225
208
154
73
-11
-79
-123
-148
-159
-168
-189
-208
-209
-200
-186
-168
-152
-123
-61
0
22
36
90
178
301
462
583
655
875
1264
1378
907
191
-268
-414
-455
-472
-466
-477
-508
-517
-520
-558
-597
-620
-663
-711
-731
-762
-818
-844
-812
-732
-608
-455
-302
-155
-16
87
125
103
51
14
13
19
-1
-23
-2
43
63
59
65
81
86
99
127
131
105
125
230
318
293
223
205
208
188
188
201
189
190
184
143
205
363
464
633
830
572
-27
-235
-33
49
-12
0
26
19
23
24
28
50
63
71
90
97
99
135
191
229
272
346
404
409
401
389
327
230
148
81
16
-39
-71
-80
-98
-139
-158
-141
-122
-104
-67
-8
79
177
246
341
528
719
855
1080
1432
1604
1289
582
-97
-446
-543
-600
-653
-654
-641
-652
-668
-683
-707
-731
-758
-796
-826
-838
-846
-835
-776
-671
-537
-381
-220
-89
-10
29
36
5
-50
-89
-101
-105
-118
-135
-135
-115
-108
-118
-112
-91
-91
-118
-139
-130
-111
-115
-131
-120
-71
-20
-10
-39
-64
-71
-72
-51
-29
-37
-21
34
28
22
148
271
344
562
668
271
-205
-227
-71
-72
-92
-61
-56
-47
-15
2
19
45
64
79
92
107
145
204
250
287
348
416
448
451
444
407
335
256
185
118
57
13
-4
-2
-9
-27
-18
31
65
51
50
111
159
132
86
74
58
24
14
22
15
21
41
11
-5
80
189
326
523
482
66
-246
-169
-46
-68
-84
-76
-100
-104
-82
-85
-96
-97
-100
-92
-68
-52
-36
3
48
83
129
184
208
196
170
121
37
-55
-135
-194
-225
-240
-254
-253
-244
-253
-257
-226
-199
-207
-188
-110
-36
-16
2
68
156
268
433
553
597
815
1241
1356
842
126
-299
-437
-468
-474
-491
-510
-500
-492
-518
-552
-582
-621
-656
-682
-725
-783
-828
-836
-787
-686
-565
-434
-274
-97
51
134
139
101
82
77
48
17
20
40
57
61
51
51
67
62
36
38
57
44
29
79
152
172
172
192
172
97
88
170
199
143
140
168
141
198
364
471
652
915
723
79
-232
-71
18
-39
-22
4
-21
-18
-7
-19
-2
31
31
27
55
86
109
160
241
315
366
407
436
432
399
338
240
131
51
-8
-63
-95
-99
-111
-130
-117
-84
-71
-59
-11
82
202
298
376
521
717
910
1191
1545
1662
1321
665
9
-399
-525
-535
-561
-587
-583
-581
-604
-632
-648
-671
-727
-791
-833
-879
-937
-956
-913
-823
-675
-479
-292
-139
-19
36
27
11
4
-16
-31
-27
-29
-40
-35
-27
-28
-20
-6
-9
-21
-28
-42
-65
-74
-59
-54
-77
-73
-4
57
43
-7
-33
-43
-47
-35
-24
-40
-47
-27
-27
-12
76
182
344
569
495
-8
-375
-286
-131
-139
-148
-126
-133
-121
-82
-68
-63
-37
-4
15
29
57
92
131
182
242
295
343
377
386
366
323
260
187
106
33
-18
-49
-60
-51
-45
-48
-39
-10
13
5
-2
43
97
82
34
20
10
-18
-22
-6
-21
-37
-13
-11
-24
45
160
259
367
317
-17
-285
-207
-48
-36
-54
-31
-23
-27
-20
-8
4
9
11
30
54
71
102
148
192
236
288
338
373
383
363
311
235
158
92
34
-9
-28
-37
-51
-63
-70
-71
-58
-43
-43
-45
-13
47
81
75
93
154
217
305
435
531
640
915
1187
1060
512
-46
-330
-405
-432
-459
-466
-465
-470
-482
-506
-535
-560
-588
-629
-663
-694
-736
-763
-735
-677
-609
-500
-347
-201
-89
-3
53
77
62
6
-43
-42
-34
-59
-70
-47
-46
-68
-61
-56
-88
-95
-52
-44
-77
-67
-12
27
31
5
-29
-47
-59
-64
-50
-48
-43
-1
-1
-12
112
260
349
576
723
330
-220
-282
-87
-78
-134
-101
-69
-57
-38
-44
-59
-41
6
56
83
88
116
182
256
330
398
455
504
530
501
424
339
268
194
100
18
-17
-21
-32
-62
-86
-73
-36
-12
13
73
