# session 54
-33
-35
-36
-15
9
-12
-59
-64
-31
-20
-33
-31
-22
-29
-43
-58
-79
-79
-52
-49
-83
-68
26
105
94
45
22
11
1
14
16
-10
10
37
-19
1
168
287
449
747
658
28
-360
-203
-65
-127
-125
-80
-92
-86
-59
-65
-70
-45
-19
-5
2
3
12
45
91
126
158
215
270
290
298
308
279
225
179
109
12
-43
-62
-99
-127
-133
-149
-142
-92
-73
-60
37
154
269
502
777
965
1236
1571
1494
878
207
-195
-398
-482
-495
-512
-519
-491
-488
-524
-547
-560
-591
-621
-636
-655
-680
-681
-635
-557
-467
-353
-209
-66
40
102
126
120
93
52
11
-15
-20
-12
-16
-28
-17
2
-12
-41
-45
-34
-34
-39
-37
-37
-45
-42
-34
-37
-38
-27
-29
-43
-53
-70
-73
-34
-6
-22
-19
37
93
112
97
73
58
52
56
64
51
41
74
83
47
86
222
399
609
624
216
-234
-257
-72
-35
-68
-51
-37
-39
-39
-46
-49
-44
-46
-43
-31
-27
-17
14
49
86
144
207
248
276
305
313
293
264
225
164
99
44
-10
-54
-73
-80
-90
-96
-92
-86
-85
-88
-79
-53
-37
-43
-32
3
8
-27
-56
-78
-114
-131
-111
-109
-144
-136
-94
-119
-126
-5
120
239
441
396
-89
-450
-342
-181
-208
-214
-169
-180
-192
-162
-148
-152
-133
-106
-98
-86
-50
-21
-1
48
113
167
230
306
359
378
369
326
258
171
72
-6
-42
-64
-90
-101
-90
-79
-80
-90
-93
-77
-64
-61
-27
51
122
185
270
345
419
579
758
847
1014
1372
1529
1107
374
-165
-376
-411
-417
-442
-444
-416
-430
-481
-492
-479
-510
-568
-616
-658
-689
-709
-740
-768
-753
-690
-596
-472
-325
-171
-33
69
120
127
110
87
62
42
37
34
24
25
37
31
17
26
39
25
12
25
27
0
-10
20
46
37
30
68
132
175
178
153
124
105
93
97
111
100
93
116
90
77
208
345
492
869
1042
467
-226
-268
-50
-72
-136
-107
-110
-130
-127
-139
-143
-121
-114
-109
-81
-60
-54
-27
19
58
103
165
223
265
290
286
257
216
155
68
-15
-72
-111
-142
-159
-162
-162
-164
-164
-155
-132
-103
-85
-82
-71
-34
8
7
-34
-73
-89
-96
-98
-96
-102
-103
-73
-70
-113
-58
92
192
372
626
446
-160
-451
-284
-177
-216
-195
-172
-194
-191
-181
-177
-147
-126
-133
-118
-81
-56
-31
16
71
123
180
248
307
338
335
300
251
189
109
26
-39
-81
-97
-90
-87
-91
-81
-68
-67
-70
-56
-20
6
6
23
82
146
188
219
281
410
526
585
744
1039
1135
804
281
-94
-244
-272
-277
-282
-282
-291
-309
-320
-335
-355
-369
-387
-416
-443
-475
-508
-521
-514
-490
-437
-353
-245
-122
-4
87
140
149
131
110
78
33
10
16
8
-25
-42
-27
-12
-11
-16
-20
-16
-9
-14
-36
-65
-79
-67
-48
-55
-69
-45
8
34
18
-10
-24
-27
-34
-34
-23
-23
-11
21
10
7
118
245
369
601
644
202
-239
-192
6
3
-33
5
10
-10
-9
-10
-15
0
15
13
5
18
50
71
90
141
204
252
307
369
400
390
368
327
228
95
4
-40
-93
-142
-154
-161
-177
-168
-145
-147
-152
-134
-119
-119
-112
-76
-25
-4
-28
-64
-85
-104
-120
-106
-88
-95
-78
-51
-93
-75
112
253
361
645
685
112
-403
-323
-122
-158
-216
-206
-202
-184
-179
-207
-192
-148
-147
-145
-105
-82
-71
-21
49
105
165
240
310
357
369
340
272
184
93
-1
-87
-132
-135
-145
-181
-200
-174
-162
-192
-193
-141
-121
-165
-185
-117
-29
-12
-52
-84
-93
-106
-127
-130
-107
-86
-75
-82
-123
-88
97
243
299
441
466
82
-329
-328
-153
-115
-133
-118
-114
-116
-100
-87
-88
-70
-37
-36
-43
-2
35
43
96
181
238
299
364
389
397
399
327
199
111
61
-14
-81
-86
-74
-100
-127
-107
-66
-60
-45
71
212
264
369
649
958
1274
1696
1939
1600
813
71
-337
-461
-495
-531
-527
-503
-524
-565
-579
-589
-626
-676
-720
-752
-776
-812
-860
-889
-857
-740
-565
-391
-239
-93
36
116
137
128
114
97
80
68
62
60
62
63
61
66
75
69
52
48
51
45
35
29
37
50
44
34
51
72
64
45
45
65
81
74
61
89
165
222
200
142
119
115
101
100
93
76
105
104
29
78
250
347
573
949
799
71
-324
-174
-83
-159
-149
-117
-156
-181
-163
-144
-141
-143
-132
-112
-106
-91
-55
-29
-1
68
135
162
190
222
220
195
169
139
104
52
-27
-97
-127
-144
-163
-163
-155
-159
-163
-157
-155
-140
-102
-78
-96
-109
-71
-17
-5
-36
-70
-84
-87
-94
-91
-85
-100
-93
-60
-89
-110
2
134
269
514
523
19
-428
-359
-181
-209
-242
-208
-197
-186
-171
-174
-154
-125
-129
-117
-67
-23
13
56
91
131
195
263
322
365
365
339
309
241
132
42
-1
-15
-27
-54
-76
-66
-47
-45
-47
-40
-38
-40
-23
15
37
48
116
234
330
447
599
680
756
975
1124
898
415
3
-208
-270
-281
-301
-319
-324
-330
-342
-358
-383
-406
-425
-459
-499
-528
-554
-579
-577
-542
-487
-392
-251
-121
-16
95
185
202
169
123
76
54
65
59
26
10
17
21
28
35
26
22
37
47
47
43
34
27
30
26
4
-20
-28
-15
9
20
16
29
71
103
91
51
24
15
6
5
13
7
7
25
6
-6
90
214
317
455
410
14
-314
-249
-95
-94
-103
-71
-79
-96
-84
-78
-87
-82
-66
-54
-50
-38
-19
-1
29
76
119
158
208
256
280
285
270
219
143
66
-9
-72
-102
-118
-144
-158
-153
-153
-154
-142
-138
-145
-129
-98
-103
-125
-94
-22
19
3
-31
-48
-52
-59
-49
-31
-45
-39
11
0
-20
104
233
333
628
774
268
-335
-354
-160
-182
-218
-169
-157
-156
-137
-138
-138
-123
-99
-65
-46
-50
-30
15
58
112
181
241
292
332
349
348
325
256
148
38
-49
-109
-151
-163
-141
-144
-190
-195
-154
-162
-203
-191
-149
-131
-121
-83
7
155
291
364
452
605
735
857
1150
1561
1651
1141
344
-213
-396
-421
-444
-462
-459
-455
-466
-486
-500
-514
-539
-563
-584
-615
-656
-688
-708
-717
-694
-620
-504
-365
-217
-82
35
134
183
167
127
95
74
72
84
76
55
60
90
96
68
51
76
98
83
58
54
63
68
50
14
0
13
17
10
14
39
89
133
111
51
44
73
70
50
38
38
57
28
-28
68
237
321
542
828
569
-98
-342
-145
-74
-135
-104
-73
-104
-109
-82
-75
-87
-102
-99
-81
-73
-70
-50
-16
24
78
138
198
255
285
287
284
264
209
131
43
-30
-60
-70
-93
-107
-105
-115
-131
-127
-124
-129
-111
-82
-89
-103
-73
-20
0
-25
-64
-90
-101
-98
-68
-53
-98
-126
-84
-86
-120
-31
97
160
312
422
136
-277
-317
-150
-120
-142
-104
-87
-106
-103
-74
-55
-63
-66
-30
17
36
45
75
118
160
206
257
299
330
350
348
316
254
171
89
26
-19
-52
-67
-71
-80
-90
-88
-88
-105
-117
-118
-116
-104
-78
-37
45
149
214
280
427
578
644
763
1006
1087
773
249
-160
-352
-399
-394
-392
-401
-407
-411
-425
-440
-446
-461
-494
-523
-546
-583
-623
-646
-649
-633
-575
-456
-299
-151
-30
77
158
186
168
142
120
95
75
74
88
97
102
117
120
95
85
102
97
69
58
54
32
8
3
-3
-16
-22
-24
-28
-8
55
112
122
108
88
60
48
70
102
88
47
71
108
52
63
250
400
566
889
851
182
-329
-227
-55
-107
-141
-124
-138
-133
-114
-120
-118
-100
-97
-112
-114
-79
-28
1
27
78
144
209
271
313
319
300
257
185
98
9
-80
-140
-154
-163
-194
-215
-207
-195
-194
-199
-199
-171
-133
-135
-155
-120
-40
8
0
-35
-68
-83
-88
-89
-75
-69
-85
-59
-29
-73
-30
161
271
413
743
698
50
-383
-239
-93
-144
-138
-109
-142
-148
-129
-144
-155
-134
-105
-83
-70
-61
-43
-4
56
127
196
260
317
346
334
298
231
121
26
-11
-53
-131
-174
-166
-174
-193
-165
-118
-118
-132
-113
-93
-88
-59
-23
-6
53
167
262
347
482
595
652
838
1179
1279
879
279
-126
-293
-353
-369
-364
-364
-376
-394
-403
-409
-430
-459
-478
-497
-519
-539
-559
-580
-586
-552
-470
-358
-235
-109
11
121
192
193
159
146
133
89
54
55
52
41
44
39
21
21
27
20
30
48
40
30
47
61
59
44
15
9
54
81
46
38
109
173
163
122
105
105
98
92
97
93
85
97
85
58
115
225
323
458
466
128
-242
-242
-79
-51
-69
-49
-53
-73
-79
-83
-78
-64
-60
-59
-52
-43
-28
-13
-1
28
77
126
164
188
197
199
185
137
64
-8
-64
-105
-138
-167
-186
-183
-162
-139
-132
-135
-131
-123
-117
-99
-75
-81
-91
-53
-7
-24
-78
-103
-101
-107
-112
-97
-89
-88
-61
-45
-59
1
126
221
387
534
270
-239
-379
-186
-113
-159
-147
-130
-140
-134
-126
-121
-110
-104
-97
-76
-56
-31
11
48
80
144
226
284
330
378
400
383
332
245
149
82
29
-20
-39
-40
-59
-78
-71
-64
-81
-99
-100
-88
-71
-55
-18
69
176
242
295
427
636
804
909
1119
1490
1663
1240
433
-162
-354
-400
-450
-464
-454
-465
-471
-453
-464
-533
-591
-600
-619
-659
-683
-722
-791
-815
-758
-660
-549
-426
-283
-122
19
98
121
103
72
60
52
22
0
7
10
1
-6
-4
9
22
26
25
25
29
31
13
-22
-29
1
3
-48
-64
9
90
101
81
69
52
31
39
60
44
16
45
68
19
50
214
351
549
833
691
51
-321
-183
-61
-113
-115
-70
-59
-67
-85
-83
-52
-41
-40
-19
-3
6
31
58
83
133
202
267
322
361
375
363
321
244
158
82
9
-52
-74
-70
-81
-109
-112
-92
-91
-110
-111
-87
-65
-57
-58
-51
-19
25
30
-10
-49
-73
-97
-99
-81
-98
-111
-64
-75
-142
-65
76
135
335
566
285
-276
-385
-174
-152
-214
-163
-147
-196
-187
-151
-153
-155
-128
-98
-81
-58
-25
6
40
95
158
210
257
300
319
316
296
242
156
67
-2
-46
-71
-91
-105
-108
-112
-120
-116
-109
-111
-110
-102
-89
-67
-33
27
123
211
260
345
496
596
666
874
1060
852
322
-109
-293
-356
-380
-395
-413
-403
-375
-385
-419
-418
-404
-428
-454
-452
-472
-520
-544
-536
-516
-469
-385
-273
-136
0
98
161
189
164
114
86
71
52
43
46
45
48
65
76
74
77
81
74
63
56
47
38
36
32
15
-3
7
40
54
42
55
107
144
136
106
84
77
79
86
98
97
92
107
96
64
123
248
385
641
802
445
-133
-274
-92
-42
-90
-80
-73
-84
-76
-80
-99
-102
-97
-93
-87
-85
-74
-39
-1
30
81
152
210
249
287
310
295
248
174
78
-6
-60
-114
-170
-198
-199
-196
-194
-195
-205
-206
-182
-150
-141
-149
-126
-63
-19
-28
-63
-93
-106
-112
-118
-109
-100
-102
-69
-57
-119
-53
165
282
439
742
595
-97
-459
-266
-138
-195
-183
-156
-178
-171
-147
-150
-157
-156
-146
-141
-143
-113
-56
-14
28
95
170
247
324
368
366
326
250
141
25
-65
-119
-152
-172
-177
-185
-201
-198
-172
-152
-146
-140
-120
-80
-40
-20
10
107
243
354
454
589
717
812
1008
1389
1691
1488
771
35
-323
-384
-398
-425
-423
-408
-412
-425
-428
-438
-473
-513
-533
-546
-577
-619
-651
-665
-662
-620
-528
-409
-275
-117
24
98
127
155
165
140
105
83
67
45
23
20
33
37
36
48
63
53
41
59
82
76
64
49
7
-18
17
50
30
5
26
75
105
92
58
44
44
34
33
40
31
38
55
27
45
161
254
399
665
613
76
-305
-207
-74
-110
-110
-70
-90
-112
-98
-91
-94
-80
-64
-66
-59
-26
-2
2
35
99
150
189
238
281
299
295
259
196
130
55
-32
-89
-103
-127
-170
-172
-130
-108
-112
-95
-67
-65
-75
-60
-40
-50
-73
-57
-3
20
-22
-68
-74
-80
-96
-76
-48
-54
-47
-22
-42
-36
62
158
263
404
300
-119
-376
-275
-161
-175
-162
-136
-151
-144
-115
-115
-111
-76
-49
-39
-22
-1
18
40
67
111
180
245
276
291
311
319
284
207
121
51
-4
-41
-59
-77
-99
-98
-81
-84
-97
-89
-78
-87
-76
-27
2
0
51
162
254
350
497
601
683
903
1088
889
391
-36
-255
-345
-376
-387
-400
-415
-428
-436
-443
-458
-479
-500
-529
-562
-585
-599
-606
-596
-566
-508
-403
-264
-135
-23
87
170
188
166
139
106
69
51
52
50
43
37
36
43
53
54
51
62
80
77
64
68
80
72
55
45
30
26
43
37
4
17
86
131
118
86
72
75
78
85
98
78
60
99
105
75
177
341
438
673
884
504
-158
-292
-54
-10
-73
-39
-24
-60
-56
-18
-1
-16
-34
-25
-7
-7
-4
26
62
86
130
202
266
316
350
344
314
273
189
77
-9
-73
-129
-157
-168
-184
-195
-202
-213
-209
-188
-165
-145
-147
-173
-172
-116
-52
-28
-45
-92
-131
-126
-113
-139
-157
-133
-130
-154
-144
