# session 133
-9
-13
-10
-9
-19
-27
-32
-47
-51
-33
-30
-50
-41
-17
-45
-111
-135
-117
-110
-98
-41
-6
-38
-64
-56
-69
-92
-81
-66
-89
-108
-61
-22
-81
-99
19
125
303
656
661
61
-402
-306
-167
-239
-255
-197
-203
-216
-194
-176
-162
-147
-137
-115
-83
-61
-40
2
54
103
165
229
271
293
297
281
251
205
140
76
29
-13
-44
-50
-56
-69
-62
-45
-46
-52
-36
-11
-4
-5
19
59
75
62
39
10
-22
-47
-54
-43
-66
-108
-81
-51
-116
-127
-5
103
234
400
240
-225
-412
-231
-119
-142
-114
-80
-105
-125
-127
-141
-152
-144
-129
-121
-117
-99
-62
-14
56
144
219
273
323
355
351
320
275
214
142
81
43
23
15
15
9
-2
6
19
40
116
209
264
414
695
910
1073
1281
1220
698
125
-168
-293
-350
-343
-346
-372
-380
-392
-414
-415
-429
-474
-503
-514
-533
-540
-522
-490
-426
-325
-205
-67
63
148
195
214
187
145
128
105
58
17
-5
-26
-48
-57
-49
-42
-52
-65
-70
-77
-87
-91
-90
-87
-79
-75
-75
-71
-70
-90
-123
-131
-116
-123
-158
-157
-101
-56
-70
-109
-126
-123
-133
-138
-119
-113
-122
-81
-47
-80
-26
142
280
514
806
604
-56
-370
-196
-80
-126
-128
-103
-94
-73
-64
-76
-68
-41
-21
-2
23
37
61
131
194
209
252
343
395
396
406
406
363
292
220
152
77
7
-20
-30
-67
-88
-63
-48
-59
-44
-10
-19
-50
-31
27
50
28
-7
-46
-86
-111
-111
-91
-88
-100
-62
-22
-63
-44
131
276
366
494
365
-106
-356
-189
-61
-107
-99
-54
-73
-89
-67
-53
-62
-70
-51
-19
-3
12
38
58
91
168
258
320
349
357
349
320
253
157
56
-41
-121
-167
-186
-194
-191
-196
-220
-239
-235
-216
-201
-203
-204
-172
-118
-82
-80
-103
-117
-107
-103
-109
-94
-86
-103
-94
-89
-127
-84
34
100
284
567
412
-160
-421
-267
-193
-242
-219
-196
-220
-218
-199
-196
-190
-170
-144
-123
-109
-77
-28
-3
24
105
203
250
272
316
346
306
224
159
117
74
32
-5
-35
-42
-27
-31
-52
-44
-13
12
36
55
62
86
131
144
111
68
38
19
9
9
4
-17
-37
-61
-106
-94
4
83
221
487
498
51
-312
-240
-90
-103
-119
-95
-101
-107
-99
-105
-98
-70
-59
-64
-47
-14
10
35
77
124
163
196
231
259
262
234
187
128
60
4
-24
-25
-30
-56
-69
-56
-58
-74
-71
-54
-2
91
152
250
511
737
794
981
1251
1054
407
-98
-304
-424
-475
-451
-454
-481
-481
-480
-491
-492
-496
-512
-525
-533
-541
-540
-517
-470
-401
-308
-196
-77
29
105
149
163
144
105
70
45
25
16
14
6
0
5
14
10
2
1
12
23
15
4
12
18
2
-6
5
8
-6
-29
-41
-22
2
3
16
54
71
58
45
32
20
22
31
35
28
22
51
78
65
117
250
370
576
777
528
-49
-270
-101
-33
-100
-101
-100
-142
-144
-116
-113
-107
-76
-56
-54
-36
-1
28
59
111
172
230
287
332
361
370
347
298
245
180
103
45
10
-32
-70
-73
-63
-82
-117
-125
-94
-68
-81
-103
-81
-30
4
4
-24
-62
-86
-105
-132
-138
-120
-107
-94
-103
-152
-129
11
141
265
373
160
-335
-544
-363
-248
-300
-295
-241
-231
-226
-209
-203
-192
-168
-151
-135
-109
-81
-40
24
86
142
216
295
337
342
327
275
181
82
-1
-69
-115
-139
-149
-148
-141
-138
-134
-123
-112
-95
-73
-86
-108
-46
63
73
-6
-36
-8
-16
-58
-60
-35
-47
-47
-7
-30
-65
56
214
308
507
598
207
-257
-257
-80
-86
-110
-63
-55
-67
-61
-68
-73
-65
-62
-59
-51
-41
-16
21
59
115
190
266
331
371
382
371
332
266
197
137
80
27
-9
-30
-34
-14
2
-18
-38
6
108
191
248
412
720
1022
1324
1721
1931
1564
777
70
-326
-480
-515
-528
-564
-599
-606
-610
-636
-655
-654
-670
-712
-753
-795
-827
-815
-763
-692
-582
-421
-264
-153
-72
-15
-4
-22
-35
-43
-42
-33
-30
-26
-17
-16
-14
3
13
6
1
3
-2
-14
-29
-44
-50
-47
-49
-58
-55
-48
-67
-96
-91
-61
-51
-59
-46
-3
35
40
20
-6
-26
-39
-44
-27
-3
0
-8
-32
-54
22
167
277
415
497
235
-175
-253
-96
-56
-90
-70
-62
-71
-48
-29
-26
2
40
55
69
103
130
137
156
205
253
283
312
339
345
338
323
281
213
150
108
81
59
43
39
41
37
44
64
82
135
226
303
436
685
914
1096
1321
1330
844
188
-189
-314
-368
-391
-404
-419
-428
-444
-468
-480
-492
-519
-547
-569
-595
-615
-605
-564
-498
-392
-246
-109
-11
70
125
129
95
52
14
-11
-20
-23
-36
-67
-74
-21
62
157
282
376
447
687
1063
1270
1225
982
494
-50
-328
-391
-427
-432
-421
-454
-490
-494
-495
-514
-554
-597
-612
-629
-691
-778
-838
-841
-778
-670
-538
-372
-187
-21
99
163
198
235
239
190
164
176
159
133
151
158
127
118
138
136
118
123
140
134
121
125
127
109
96
109
117
92
70
89
108
91
80
95
99
86
88
109
107
82
79
99
97
78
83
98
90
64
40
36
43
28
1
17
70
102
92
57
15
-9
0
22
24
20
47
45
3
74
244
372
592
836
579
-60
-313
-139
-63
-120
-116
-96
-104
-118
-128
-105
-82
-102
-110
-77
-48
-27
-4
18
58
118
166
218
275
289
268
258
233
163
92
49
5
-51
-93
-120
-148
-150
-119
-120
-170
-195
-166
-140
-150
-165
-156
-119
-85
-87
-125
-159
-166
-170
-189
-187
-155
-150
-159
-140
-149
-155
-44
108
238
386
311
-125
-436
-328
-186
-222
-235
-196
-189
-172
-151
-176
-188
-150
-124
-122
-101
-70
-45
-6
45
95
164
248
308
338
346
314
246
183
119
44
-9
-35
-59
-65
-61
-78
-88
-72
-79
-84
-30
6
-31
-41
18
67
62
27
-7
-11
-7
-27
-33
-8
-9
-19
0
-12
-35
26
106
194
411
511
176
-226
-243
-103
-93
-98
-61
-64
-72
-55
-59
-75
-67
-52
-37
-19
-4
16
53
98
144
195
244
284
309
321
316
282
229
182
129
64
21
10
4
-2
-10
-19
-10
2
-5
29
119
176
273
529
771
896
1096
1235
905
279
-137
-292
-390
-447
-451
-464
-489
-502
-512
-532
-554
-574
-595
-628
-667
-691
-690
-665
-606
-507
-372
-220
-72
48
127
163
160
127
83
46
24
6
-16
-31
-29
-23
-24
-29
-29
-28
-31
-30
-25
-25
-22
-13
-14
-30
-36
-21
-8
-12
-25
-42
-47
-29
-11
-6
12
58
106
128
114
88
75
60
50
70
74
48
70
89
45
95
258
388
595
802
523
-85
-274
-59
20
-44
-39
-34
-62
-60
-61
-78
-75
-62
-56
-46
-45
-41
5
73
136
213
292
338
376
422
431
386
324
265
195
110
24
-45
-89
-101
-93
-99
-118
-132
-143
-139
-111
-106
-133
-123
-69
-34
-19
-13
-49
-102
-120
-126
-131
-119
-135
-166
-140
-123
-136
-46
96
210
436
552
154
-363
-395
-199
-193
-237
-199
-187
-211
-206
-185
-172
-163
-156
-154
-147
-115
-62
-14
25
76
151
239
305
331
326
292
238
204
192
142
49
-28
-77
-118
-141
-144
-150
-156
-167
-186
-176
-137
-141
-169
-134
-69
-58
-75
-87
-120
-157
-155
-118
-87
-96
-122
-112
-103
-117
-50
62
136
351
609
385
-191
-396
-226
-164
-192
-139
-119
-152
-129
-84
-80
-78
-61
-47
-31
-14
0
22
61
106
151
202
257
297
314
318
304
261
195
126
66
22
-3
-12
-12
-13
-20
-17
-4
-15
-18
69
179
230
376
674
895
1053
1335
1438
1000
336
-105
-320
-402
-384
-374
-408
-415
-408
-428
-444
-442
-452
-473
-480
-490
-512
-511
-471
-418
-340
-215
-71
53
159
233
244
210
166
119
68
24
-4
-16
-17
-16
-24
-39
-42
-30
-26
-37
-38
-25
-20
-20
-15
-14
-19
-13
-4
9
40
94
197
366
550
724
884
925
816
716
656
463
128
-160
-314
-370
-379
-382
-406
-440
-465
-479
-489
-505
-534
-572
-596
-600
-613
-640
-651
-628
-571
-492
-410
-317
-196
-85
-15
48
107
120
104
107
115
113
118
135
142
136
137
158
178
170
155
166
179
166
155
146
110
75
79
83
55
42
61
62
33
11
10
21
35
30
23
61
138
185
174
133
97
79
79
97
105
84
85
102
67
62
189
351
560
839
773
186
-270
-207
-48
-64
-95
-85
-80
-71
-77
-94
-95
-95
-89
-58
-43
-51
-33
10
48
102
188
261
294
318
335
310
248
163
59
-31
-87
-138
-186
-205
-207
-217
-224
-215
-199
-194
-195
-167
-121
-109
-118
-87
-24
13
5
-32
-67
-71
-72
-103
-118
-99
-86
-50
14
30
93
330
600
832
1042
887
239
-291
-335
-262
-304
-319
-289
-278
-267
-278
-317
-322
-302
-312
-327
-317
-323
-353
-347
-298
-268
-262
-222
-146
-77
-27
0
6
-4
-51
-110
-105
-60
-60
-99
-119
-102
-56
-24
-43
-64
-37
-2
-11
-29
-1
52
66
41
22
5
-24
-40
-29
-8
-5
-13
18
53
21
26
142
224
326
573
588
128
-253
-183
-42
-65
-76
-40
-45
-51
-29
-23
-35
-30
-4
16
20
36
77
118
153
217
311
378
395
406
437
433
358
268
218
178
110
59
61
71
63
60
63
56
57
70
63
37
19
9
-6
-14
1
30
41
22
-9
-28
-32
-27
-14
3
7
17
53
55
21
72
179
249
358
406
126
-241
-262
-103
-89
-125
-94
-81
-101
-103
-107
-113
-98
-89
-95
-78
-38
-13
8
56
111
158
215
269
290
296
301
260
170
89
31
-27
-77
-109
-122
-123
-137
-164
-159
-132
-118
-93
-44
67
306
536
632
824
1118
1016
442
-73
-292
-391
-453
-476
-500
-529
-554
-589
-630
-670
-726
-789
-844
-898
-955
-1004
-1035
-1031
-982
-886
-762
-633
-525
-448
-413
-423
-461
-495
-526
-561
-584
-592
-600
-591
-557
-535
-542
-556
-582
-617
-625
-601
-572
-548
-524
-474
-374
-250
-134
-8
126
243
382
539
637
714
872
1043
1120
1187
1331
1467
1550
1681
1873
2007
2068
2109
2124
2138
2173
2134
2005
1881
1741
1512
1218
939
781
739
702
761
884
610
-49
-409
-335
-310
-418
-456
-469
-527
-570
-593
-620
-641
-656
-674
-684
-681
-667
-649
-631
-596
-529
-450
-390
-350
-318
-302
-312
-350
-407
-468
-538
-609
-652
-661
-673
-699
-707
-681
-659
-656
-633
-620
-655
-641
-540
-496
-522
-493
-434
-429
-422
-386
-394
-429
-398
-330
-326
-363
-338
-262
-244
-278
-214
-54
55
211
456
380
-93
-347
-195
-76
-90
-48
3
-1
8
39
60
72
82
99
119
126
146
192
240
295
375
455
514
559
585
595
592
549
461
377
323
280
248
236
229
218
215
218
219
225
230
228
233
244
247
248
252
266
311
355
328
261
249
276
263
232
227
211
188
220
241
184
186
294
378
517
747
683
241
-38
35
98
41
11
-7
-45
-66
-92
-129
-144
-154
-175
-177
-163
-162
-160
-134
-100
-65
-21
20
43
46
30
-7
-70
-161
-262
-338
-390
-440
-485
-516
-537
-552
-567
-589
-608
-614
-626
-654
-672
-665
-657
-670
-679
-659
-628
-619
-642
-687
-723
-733
-746
-774
-785
-791
-822
-833
-800
-764
-715
-634
-555
-457
-405
-590
-878
-889
-646
-464
-388
-303
-206
-120
-12
132
272
368
459
581
680
737
807
888
943
996
1076
1169
1254
1307
1312
1289
1250
1186
1105
1043
1002
968
950
974
1012
1028
1031
1027
993
955
960
958
891
880
1065
1268
1274
1338
1674
1771
1154
249
-319
-529
-594
-576
-499
-407
-344
-332
-329
-319
-352
-403
-413
-424
-490
-560
-580
-569
-536
-457
-337
-190
-21
126
201
213
194
160
122
75
24
0
-8
-32
-48
-53
-82
-108
-100
-99
-123
-144
-188
-283
-381
-446
-506
-581
-644
-687
-723
-757
-797
-839
-861
-869
-895
-928
-943
-955
-975
-983
-992
-1025
-1024
-927
-792
-718
-704
-701
-689
-677
-649
-571
-486
-481
-476
-379
-282
-191
13
235
449
762
774
159
-415
-388
-224
-285
-326
-272
-243
-207
-153
-123
-74
-7
18
24
55
94
127
184
265
350
450
570
672
731
771
810
842
846
799
722
659
619
587
561
537
516
512
524
534
538
533
516
488
475
490
495
466
464
521
569
560
523
479
440
416
398
377
341
283
262
282
233
170
238
325
397
614
673
208
-306
-339
-197
-224
-269
-246
-244
-247
-239
-273
-319
-309
-286
-316
-350
-336
-316
-302
-252
-186
-140
-98
-52
-24
-18
-38
-86
-142
-204
-288
-366
-403
-423
-454
-475
-465
-444
-429
-413
-398
-398
-405
-393
-353
-310
-290
-258
-192
-142
-143
-162
-181
-200
-199
-188
-185
-174
-168
-187
-179
-152
-157
-130
-52
25
195
367
170
-273
-406
-239
-173
-199
-133
-43
-13
6
44
78
95
103
125
180
245
282
304
340
388
447
523
581
601
619
636
607
541
478
422
375
352
340
314
274
228
191
170
160
154
153
139
97
40
-3
-29
-63
-101
-107
-90
-106
-156
-206
-252
-294
-321
-336
-350
-376
-404
-396
-390
-431
-401
-255
-129
55
353
352
-87
-366
-224
-83
-115
-122
-98
-107
-100
