# session 178
-11
-6
-28
-43
-55
-87
-109
-132
-193
-253
-281
-315
-348
-336
-292
-246
-177
-70
49
157
246
304
335
335
282
233
260
292
259
225
220
193
150
131
122
110
108
102
85
78
82
80
77
80
82
77
67
60
69
79
63
44
48
50
25
5
6
7
-3
-3
27
72
89
74
54
33
1
-33
-31
19
41
-24
-63
-15
-37
-126
-68
87
219
502
765
477
-130
-329
-195
-225
-358
-364
-332
-338
-325
-296
-269
-231
-200
-186
-159
-119
-88
-70
-55
-41
-28
-11
10
34
61
93
129
157
172
171
159
146
121
58
-10
-34
-54
-105
-114
-63
-56
-95
-78
-23
-15
-27
22
116
204
347
565
719
814
985
1034
690
175
-143
-251
-279
-275
-273
-262
-209
-164
-173
-205
-233
-271
-314
-346
-373
-411
-459
-498
-525
-539
-517
-446
-352
-246
-121
9
124
203
228
213
180
134
93
77
68
46
33
42
52
48
42
34
16
3
17
37
28
12
17
22
19
21
17
7
6
14
33
46
27
2
6
17
23
25
-6
-56
-74
-75
-91
-98
-85
-85
-94
-70
-10
37
35
-7
-38
-32
-30
-64
-88
-71
-72
-100
-87
-69
-107
-71
86
207
394
731
701
96
-348
-239
-86
-148
-178
-127
-127
-141
-105
-82
-115
-125
-88
-88
-116
-84
-30
-27
-27
15
53
70
108
173
233
273
294
317
358
384
353
284
216
143
63
-4
-45
-70
-92
-112
-119
-115
-119
-118
-85
-38
10
93
203
358
619
874
993
1190
1512
1438
763
73
-211
-283
-334
-343
-335
-349
-358
-355
-353
-355
-369
-402
-439
-445
-414
-399
-434
-484
-499
-474
-450
-427
-343
-207
-104
-19
97
161
117
60
32
-12
-52
-58
-63
-74
-72
-62
-52
-39
-33
-34
-29
-17
-19
-48
-77
-67
-50
-65
-62
-30
-54
-113
-79
6
1
-53
-54
-27
-15
-18
-38
-51
-51
-80
-111
-94
-76
-102
-128
-108
-50
-4
-23
-70
-87
-93
-100
-72
-24
4
6
0
19
42
20
36
145
264
448
671
539
43
-209
-58
59
17
6
45
54
32
28
59
63
43
64
56
-23
-34
48
68
18
10
56
95
131
211
279
261
289
391
355
348
482
268
64
512
107
-1868
-2506
-683
571
163
-38
233
158
79
224
236
195
280
366
481
721
920
1027
1277
1558
1379
727
116
-195
-309
-328
-336
-376
-394
-381
-389
-422
-450
-484
-536
-581
-604
-631
-686
-761
-822
-840
-817
-750
-636
-491
-332
-152
27
157
224
244
227
181
150
147
105
29
17
45
36
43
92
95
59
54
64
84
103
57
1
27
54
21
7
19
14
29
66
70
64
66
44
32
65
73
28
5
22
17
-19
-64
-104
-84
4
65
61
47
38
27
33
28
-3
9
52
30
-10
8
6
0
100
251
452
708
622
46
-368
-266
-115
-162
-178
-140
-181
-250
-282
-301
-300
-280
-280
-278
-232
-168
-124
-99
-79
-36
35
89
123
188
278
339
375
403
415
406
375
312
236
158
73
17
16
3
-56
-87
-58
-34
-67
-102
-79
-57
-106
-130
-51
28
26
22
88
191
262
288
312
371
477
589
658
775
1020
1135
824
279
-102
-244
-272
-259
-251
-264
-274
-298
-343
-347
-306
-294
-329
-359
-372
-398
-449
-492
-492
-480
-505
-529
-510
-473
-416
-315
-203
-97
5
52
23
0
-10
-85
-171
-175
-175
-221
-192
-97
-102
-156
-99
-14
-27
-63
-43
3
21
-3
-30
-29
-25
-21
-10
-10
-6
10
3
-10
30
97
116
68
9
9
40
20
-30
-34
0
5
-27
1
80
58
11
117
267
467
835
911
334
-246
-269
-92
-53
-52
-61
-130
-195
-191
-143
-122
-121
-39
94
135
91
78
122
193
253
281
319
366
380
416
497
519
491
506
513
454
381
319
245
148
44
-11
-17
-53
-96
-90
-137
-304
-457
-474
-392
-318
-302
-272
-169
-99
-121
-87
65
154
139
219
378
434
541
878
1089
807
272
-114
-297
-353
-315
-283
-306
-315
-294
-297
-336
-371
-349
-295
-326
-414
-409
-369
-430
-511
-517
-514
-520
-487
-438
-379
-288
-212
-129
27
127
107
171
226
-18
-251
-86
114
53
10
78
89
78
97
79
46
48
49
37
44
68
84
80
61
47
53
58
44
37
37
18
13
38
47
61
136
177
86
-10
15
35
-46
-110
-103
-108
-127
-117
-116
-149
-142
-37
102
265
507
593
239
-201
-221
-24
7
-32
-8
-6
-35
-40
-40
-48
-50
-41
-26
-39
-69
-45
-4
-11
8
82
111
116
196
288
291
275
338
406
377
333
340
268
135
98
39
-35
97
47
-216
188
318
-1493
-3008
-1550
509
567
110
364
493
424
625
834
908
1074
1324
1426
1204
721
256
-8
-117
-174
-209
-197
-174
-218
-280
-265
-241
-324
-465
-558
-593
-604
-599
-590
-603
-642
-655
-604
-535
-464
-335
-158
-24
69
205
339
349
291
254
160
5
-58
-45
-87
-154
-168
-161
-157
-139
-125
-107
-84
-84
-76
-29
-19
-53
-38
-16
-74
-96
-9
14
-63
-51
19
-37
-111
-45
25
-22
-66
-35
-18
-47
-34
33
51
33
102
233
266
170
62
16
34
88
116
86
75
100
57
15
132
287
418
690
775
256
-305
-277
-67
-122
-189
-112
-96
-174
-193
-136
-96
-83
-62
-67
-99
-79
-26
-35
-75
-58
-15
1
26
91
164
211
220
239
326
403
354
222
92
-31
-109
-107
-100
-142
-173
-171
-173
-170
-139
-97
-48
34
113
189
396
719
908
991
1221
1372
1050
484
98
-116
-245
-271
-311
-397
-385
-308
-305
-358
-391
-362
-342
-461
-488
-315
-463
-683
-276
-462
-2020
-2491
-834
281
-68
-131
264
289
253
366
318
223
234
204
141
140
146
124
110
101
101
114
108
91
74
32
12
61
86
40
28
62
64
50
56
57
55
56
27
-12
-18
-14
-33
-34
18
61
24
-32
-37
-36
-51
-41
-39
-72
-60
13
60
62
54
43
43
66
61
14
13
66
76
58
77
71
52
118
218
399
782
935
432
-160
-205
-37
-60
-81
-25
-51
-50
10
-115
-141
205
-256
-2363
-3954
-2743
-328
577
285
282
489
470
481
599
638
627
638
651
659
638
584
537
476
381
317
279
190
120
159
191
121
70
91
98
70
35
13
13
-27
-73
-32
-53
-109
15
-74
-293
248
348
-1758
-3480
-1870
482
685
264
559
727
657
770
885
1090
1472
1507
978
367
62
0
-44
-117
-118
-74
-93
-141
-176
-214
-214
-187
-221
-268
-265
-297
-340
-328
-424
-556
-459
-493
-712
-300
-137
-2037
-3988
-2688
64
801
287
366
537
353
314
379
324
294
292
235
214
243
233
191
163
165
175
145
91
82
104
95
77
78
80
76
61
36
41
78
80
40
13
0
-34
-76
-78
-29
23
23
-2
26
47
-16
-8
145
266
426
716
669
106
-276
-157
-12
-43
-75
-87
-78
-46
-71
-93
-51
-68
-129
-114
-85
-89
-74
-90
-120
-51
51
85
94
103
147
272
348
286
261
324
304
204
120
-2
-176
-285
-293
-270
-254
-217
-137
-81
-96
-108
-75
-53
-46
-20
17
60
115
158
188
260
385
515
653
808
921
1077
1437
1711
1403
670
86
-175
-267
-291
-315
-350
-359
-383
-438
-460
-458
-488
-530
-537
-496
-434
-417
-450
-477
-499
-546
-573
-551
-522
-477
-360
-224
-140
-55
58
118
117
115
86
27
29
88
87
30
20
27
-32
-100
-99
-57
-33
-63
-83
-7
42
-15
1
8
-104
30
165
-189
-40
506
-1006
-3592
-3046
-203
734
63
117
426
282
296
458
396
312
327
311
274
258
237
233
264
266
216
205
235
196
172
300
461
627
874
847
321
-120
-71
56
27
26
-9
-105
-83
-96
-167
-6
-27
-374
-62
296
-935
-2083
-938
505
286
-85
254
339
172
250
333
316
364
385
344
337
299
191
158
210
197
151
202
283
274
206
124
54
60
104
138
206
257
320
565
769
835
1210
1462
970
711
506
-1453
-3390
-2163
70
163
-435
-192
-72
-249
-166
-111
-217
-237
-267
-356
-354
-335
-421
-484
-439
-390
-356
-256
-129
-37
96
262
329
278
200
126
52
-5
-40
-68
-109
-162
-190
-174
-153
-139
-104
-56
-23
1
5
-37
-79
-66
-35
-28
-22
-19
-43
-47
-2
27
11
24
70
54
-10
-3
58
67
46
49
36
-6
-29
-26
-26
-36
-29
12
44
48
70
91
63
35
44
46
49
76
87
62
6
-63
-93
-105
-108
10
213
390
658
845
476
-142
-270
-88
-98
-129
-40
-68
-162
-110
-23
-52
-109
-88
-46
-53
-51
-27
-50
-66
-16
-11
-48
4
94
124
144
215
326
370
289
285
345
63
-367
-310
17
26
-99
-55
-33
-105
-96
-27
-34
-71
-29
30
38
81
206
362
545
698
767
948
1275
1251
641
-14
-278
-351
-402
-379
-375
-393
-359
-420
-442
-297
-476
-618
-54
-476
-2668
-3299
-1148
232
-331
-553
-162
-176
-211
18
120
157
269
320
326
351
345
303
255
230
226
184
123
121
126
83
68
88
73
48
63
80
74
65
51
23
-17
-63
-53
5
-22
-71
-14
-35
-78
241
589
371
-4
-8
41
-62
-82
-42
-68
-73
-34
-17
12
60
74
88
122
85
8
35
101
68
31
59
40
4
30
30
35
139
265
482
815
767
177
-219
-77
71
-17
-54
10
20
-1
14
41
47
4
-78
-130
-129
-110
-73
-5
63
118
182
239
252
254
302
379
421
413
392
376
360
324
248
151
84
60
57
57
38
-14
-42
-22
-22
-35
-34
-66
-20
119
103
190
591
616
594
1389
808
-2686
-4801
-2488
215
202
-302
15
35
-192
-106
-55
-145
-135
-130
-201
-233
-238
-270
-327
-423
-508
-501
-479
-517
-497
-348
-218
-177
-107
-1
49
87
125
85
32
17
-4
36
14
-144
-32
89
-278
-74
535
-1048
-3640
-2902
-35
650
-138
-10
285
65
34
141
105
178
309
321
363
471
517
524
564
617
642
635
644
679
698
747
866
941
940
983
1063
1081
1026
908
826
924
993
772
542
477
269
98
176
-38
-167
503
360
-1371
-1900
-417
270
-287
-308
-29
-200
-298
-215
-301
-378
-317
-301
-326
-308
-302
-343
-363
-319
-278
-299
-319
-284
-252
-230
-173
-115
-87
-51
-21
-41
-70
-57
-62
-133
-189
-181
-195
-263
-297
-274
-270
-325
-370
-288
-84
83
155
236
363
512
672
726
597
445
405
395
357
331
335
408
531
581
656
988
1308
1090
426
-150
-429
-513
-493
-462
-514
-575
-454
-202
-105
-208
-305
-359
-429
-476
-519
-575
-575
-557
-607
-649
-617
-587
-571
-505
-412
-334
-238
-116
-27
14
35
36
10
-20
-32
-47
-80
-91
-73
-80
-91
-64
-55
-75
-68
-51
-47
-34
-29
-13
41
55
30
62
112
112
113
108
68
88
182
215
171
152
157
143
112
56
-7
-3
46
57
83
146
123
99
248
410
544
846
947
425
-149
-177
2
15
-44
-105
-133
-85
-52
-60
-49
-60
-80
-32
11
17
97
200
195
137
134
203
265
233
272
531
686
497
302
312
300
178
71
-4
-66
-104
-124
-135
-137
-141
-141
-133
-132
-153
-174
-160
-126
-133
-166
-151
-111
-109
-88
-18
-15
-93
-129
-134
-142
-86
-70
-142
-77
-21
-177
-61
121
-302
-154
767
-382
-2967
-2515
115
587
-319
-124
212
-57
-46
155
85
35
95
82
59
77
90
108
114
93
95
115
130
172
218
235
280
345
366
383
418
410
364
331
289
221
141
57
8
-5
-20
-15
6
-33
-89
-81
-68
-72
-39
-16
-45
-73
-104
-139
-99
-24
-43
-122
-128
-85
-88
-112
-105
-87
-72
-63
-78
-80
-43
-39
-47
16
109
337
807
982
428
-209
-295
-149
-118
-154
-176
-85
-34
-144
-14
131
-193
20
575
-973
-3364
-2511
238
827
93
238
489
298
342
479
420
427
481
433
386
366
312
260
221
177
145
130
116
104
103
105
88
76
97
87
5
-35
37
91
59
56
85
84
143
148
-42
-17
160
-133
-128
532
-504
-3222
-3403
-642
766
117
-27
399
363
363
662
642
229
-68
-51
55
72
40
32
45
51
37
32
39
16
-14
3
28
22
38
74
73
66
109
152
165
193
243
290
342
358
318
297
321
300
204
107
47
7
-40
-96
-124
-117
-114
-123
-120
-110
-107
-109
-126
-150
-148
-122
-108
-114
-111
-76
-51
-80
-123
-128
-119
-122
-139
-155
-134
-107
-132
-149
-139
-154
-94
60
179
399
688
486
-162
-439
-229
-112
-176
-171
-128
-140
-167
-193
-217
-221
-205
-189
-182
-176
-157
-128
-105
-79
-37
15
60
94
126
165
208
243
265
272
246
165
66
22
38
40
-5
-42
-22
-2
-41
-77
-49
-13
-25
-46
-46
-46
-51
-47
-34
-26
-19
5
24
4
-39
-73
-96
-104
-89
-81
-79
-48
-17
0
58
108
100
170
306
379
600
955
813
162
-159
-8
48
-33
-6
25
-11
-14
-3
-10
8
11
-23
-14
33
32
4
7
26
42
74
111
121
139
212
279
273
249
260
255
185
83
-3
-59
-106
-159
-199
-213
-224
-233
-220
-212
-237
-262
-264
-267
-288
-286
-231
-165
-143
-133
-92
-67
-112
-167
-134
-35
-13
-93
-136
-101
-81
-77
-42
-21
-36
-38
