# session 1
30
58
134
221
265
287
340
402
432
455
504
542
536
516
497
450
364
263
171
105
73
55
37
23
13
7
41
128
215
273
327
364
354
338
362
411
468
522
550
573
609
612
557
482
386
251
181
298
491
577
597
611
504
303
243
369
492
523
518
553
651
744
749
639
360
-116
-599
-815
-704
-432
-222
-238
-453
-726
-961
-1122
-1235
-1308
-1239
-1067
-972
-902
-865
-1160
-1680
-1906
-1833
-1779
-1656
-1317
-931
-616
-334
-110
41
182
328
446
545
647
700
650
576
575
583
522
481
551
617
472
144
-70
-44
29
37
55
99
176
333
507
628
737
825
869
897
819
564
381
460
509
228
-187
-392
-441
-609
-892
-1090
-1228
-1371
-1346
-1159
-1132
-1305
-1397
-1385
-1404
-1388
-1254
-1057
-827
-563
-330
-206
-159
-67
85
184
204
235
319
403
444
496
611
704
704
680
688
688
670
664
670
668
665
714
795
814
787
682
298
-223
-402
-217
10
243
510
763
1006
968
443
-47
-35
134
135
116
143
131
110
108
110
129
136
98
73
92
96
90
131
160
117
88
108
92
50
65
110
128
145
173
183
191
233
287
306
293
288
283
230
139
70
22
-41
-105
-138
-155
-175
-209
-273
-330
-330
-300
-287
-274
-256
-255
-248
-215
-205
-235
-249
-220
-197
-205
-208
-188
-161
-129
-104
-79
-12
77
113
112
131
160
202
281
318
259
213
244
250
194
157
149
103
48
65
117
111
65
49
81
134
128
83
179
401
556
681
737
420
-70
-162
51
104
34
22
-15
-89
-111
-160
-328
-530
-594
-430
-270
-507
-1008
-1216
-1104
-1093
-1185
-1091
-876
-880
-1210
-1570
-1601
-1342
-1105
-990
-888
-742
-570
-456
-484
-545
-459
-272
-133
-51
19
81
140
186
196
198
228
265
292
319
343
369
418
482
539
591
620
604
588
607
623
613
600
598
612
642
657
650
638
621
613
617
608
623
656
526
218
37
115
253
335
394
397
342
308
245
49
-159
-187
-133
-159
-180
-66
149
269
133
-45
11
-6
-357
-634
-629
-546
-251
173
111
-330
-429
-221
-149
-155
-112
-103
-92
-34
-9
-7
33
69
81
123
177
195
208
250
282
288
296
306
308
309
302
290
300
335
372
407
444
471
490
513
531
530
511
478
430
398
383
349
331
339
297
274
330
170
-332
-682
-601
-459
-463
-405
-256
-170
-121
-56
-115
-384
-672
-787
-824
-918
-933
-731
-563
-754
-1079
-1053
-751
-598
-604
-551
-480
-461
-399
-289
-244
-255
-233
-174
-111
-45
6
19
24
56
93
101
94
94
108
140
171
165
127
108
101
63
41
75
81
70
170
336
495
700
733
337
-110
-136
38
37
-66
-134
-252
-459
-602
-569
-450
-357
-291
-247
-235
-217
-174
-142
-120
-76
-22
23
61
85
91
106
148
203
243
259
271
312
358
351
308
296
310
290
244
202
164
136
119
90
50
16
-7
-11
-12
-40
-64
-37
1
-13
-58
-65
-25
0
-25
-47
-25
6
12
8
18
50
91
126
137
104
48
14
6
7
15
31
54
77
81
84
115
150
142
108
91
89
85
83
88
90
91
98
102
105
133
166
164
176
221
210
199
324
511
680
816
665
161
-203
-162
-35
-26
-47
-61
-72
-69
-77
-97
-111
-131
-141
-113
-67
-39
-19
6
17
15
32
59
57
31
26
64
120
163
190
215
230
229
232
242
224
176
148
123
22
-123
-188
-167
-147
-140
-118
-90
-75
-70
-65
-47
-36
-33
7
19
-124
-326
-391
-357
-343
-306
-201
-120
-130
-206
-327
-483
-659
-850
-994
-975
-811
-666
-624
-642
-678
-743
-841
-885
-773
-578
-449
-363
-244
-156
-143
-125
-84
-76
-76
-40
-10
0
29
52
43
60
87
58
70
189
300
393
456
236
-202
-363
-174
-26
0
61
127
132
141
179
208
233
281
337
369
384
406
428
442
461
481
490
496
503
512
518
521
522
526
531
527
510
494
483
464
443
445
447
417
374
346
317
272
231
212
208
194
155
87
23
0
-13
-50
-95
-158
-210
-148
-12
67
181
473
831
967
641
-9
-457
-478
-390
-377
-323
-253
-252
-236
-180
-184
-221
-196
-158
-201
-293
-362
-393
-418
-491
-628
-729
-705
-609
-529
-472
-416
-364
-313
-242
-147
-48
50
160
265
340
390
419
416
391
364
332
295
265
240
221
207
183
148
115
103
109
103
68
35
23
0
-38
-68
-99
-153
-211
-259
-307
-350
-371
-376
-391
-409
-407
-410
-415
-378
-322
-293
-271
-275
-308
-264
-177
-229
-358
-379
-342
-335
-304
-247
-221
-205
-177
-150
-124
-103
-97
-86
-52
-9
25
44
58
77
95
104
112
133
162
186
198
200
201
200
195
196
215
229
222
214
211
187
155
153
176
213
270
285
245
243
244
109
-58
-46
75
123
116
147
171
157
183
218
176
221
442
608
789
1142
1123
428
-152
-122
1
-82
-145
-143
-179
-234
-284
-317
-298
-255
-244
-253
-235
-186
-138
-111
-83
-46
-31
-45
-53
-52
-62
-66
-46
-14
25
69
92
91
89
92
89
82
72
60
46
29
9
-16
-49
-93
-134
-157
-162
-160
-156
-149
-143
-132
-110
-92
-91
-94
-86
-73
-68
-65
-55
-46
-44
-43
-34
-29
-36
-47
-44
-20
-2
-6
-2
27
48
48
43
26
12
19
22
7
0
-1
-5
-12
-22
-13
-5
-46
-36
106
274
455
624
445
-91
-380
-224
-82
-122
-125
-77
-78
-92
-76
-51
-34
-24
-10
12
32
46
51
45
50
73
87
83
80
80
83
85
88
100
127
156
180
203
223
241
260
275
271
247
217
193
169
140
112
80
45
27
15
-19
-56
-72
-83
-95
-100
-121
-157
-169
-172
-205
-238
-257
-288
-319
-332
-350
-374
-368
-348
-353
-367
-346
-291
-261
-281
-304
-316
-370
-454
-480
-447
-438
-452
-437
-416
-410
-378
-354
-376
-349
-247
-152
-37
16
-230
-600
-674
-516
-440
-437
-389
-336
-316
-299
-274
-246
-225
-204
-145
-38
95
234
369
508
645
743
789
825
879
945
1010
1064
1110
1151
1176
1191
1219
1245
1231
1191
1159
1123
1062
969
830
679
585
537
467
356
205
52
-24
-51
-121
-207
-228
-173
-65
24
-12
-150
-255
-280
-279
-295
-322
-326
-303
-288
-290
-272
-216
-137
-78
-94
-167
-222
-240
-253
-276
-302
-326
-347
-375
-413
-428
-413
-428
-449
-374
-245
-120
32
24
-325
-653
-598
-422
-406
-415
-354
-305
-272
-222
-183
-162
-147
-137
-126
-108
-98
-96
-78
-38
1
24
28
25
36
47
41
56
72
-1
-108
-107
-28
36
84
89
21
-24
6
19
-38
-107
-148
-167
-176
-187
-196
-186
-159
-120
-74
-52
-66
-77
-66
-56
-52
-39
-23
-21
-27
-31
-25
-5
23
38
38
63
127
169
154
120
107
110
117
126
130
133
156
179
166
169
211
213
226
356
503
651
892
885
352
-153
-143
13
-12
-45
-27
-59
-86
-73
-79
-95
-90
-95
-109
-104
-90
-90
-95
-90
-78
-71
-71
-60
-34
-11
3
24
56
104
173
234
248
240
258
280
264
238
225
191
120
52
6
-26
-51
-71
-93
-108
-110
-112
-112
-103
-97
-101
-100
-93
-97
-102
-99
-93
-82
-61
-40
-24
-20
-18
24
90
104
65
31
16
9
16
20
-2
-11
10
5
-12
6
-15
-56
55
237
356
600
828
494
-161
-360
-173
-128
-188
-171
-161
-180
-166
-152
-170
-199
-234
-255
-251
-239
-220
-183
-141
-119
-113
-105
-98
-96
-87
-60
-25
-3
12
35
59
74
88
103
109
105
99
82
47
4
-32
-62
-88
-112
-132
-137
-137
-149
-159
-152
-151
-160
-148
-124
-124
-137
-132
-127
-150
-174
-160
-121
-89
-80
-96
-103
-52
4
-13
-64
-80
-79
-81
-72
-74
-94
-87
-71
-84
-64
-16
-38
-32
113
277
455
683
595
58
-316
-197
-16
-42
-77
-27
20
43
65
80
95
124
160
182
193
212
226
216
200
202
218
232
246
263
278
297
329
355
360
390
444
454
471
539
469
209
70
160
193
75
-13
-26
-37
-47
-53
-76
-101
-119
-133
-131
-129
-174
-233
-238
-213
-212
-236
-256
-255
-235
-221
-214
-200
-181
-164
-149
-128
-98
-99
-150
-175
-122
-54
-27
-21
-21
-24
-19
-32
-59
-34
19
15
17
91
173
274
336
127
-245
-345
-176
-93
-136
-146
-136
-154
-169
-168
-163
-152
-142
-141
-136
-118
-110
-114
-107
-98
-111
-117
-98
-88
-90
-74
-58
-62
-49
-23
-20
-16
20
50
54
66
72
39
3
-16
-51
-101
-138
-164
-178
-161
-126
-102
-89
-79
-80
-85
-68
-42
-35
-19
25
47
35
42
65
56
40
75
136
163
169
207
251
245
202
170
155
140
128
137
156
165
162
153
149
139
96
73
156
282
404
576
606
275
-86
-82
85
115
85
98
97
77
84
109
122
119
119
116
100
106
131
122
97
109
118
95
81
82
72
70
79
79
75
72
48
14
5
17
27
23
-4
-54
-110
-166
-237
-308
-338
-331
-326
-330
-322
-300
-288
-294
-295
-274
-255
-253
-252
-254
-261
-251
-237
-257
-295
-316
-316
-300
-269
-239
-218
-199
-171
-134
-109
-106
-106
-90
-69
-49
-27
-3
35
75
92
118
169
156
103
197
390
518
709
874
554
-67
-275
-88
-19
-88
-104
-115
-138
-118
-106
-125
-117
-90
-93
-111
-110
-99
-94
-87
-78
-77
-75
-54
-28
-18
-14
-1
19
46
79
112
141
172
197
213
229
237
215
177
152
138
124
112
103
91
86
97
99
81
62
46
13
-24
-36
-22
-4
0
-3
4
18
30
36
36
42
62
81
91
120
165
181
155
123
101
81
63
59
66
86
105
95
88
105
68
27
150
334
455
679
815
392
-238
-368
-178
-151
-199
-169
-157
-165
-158
-187
-246
-280
-293
-310
-327
-313
-253
-192
-170
-151
-116
-97
-91
-65
-27
-4
11
39
73
91
96
116
158
192
193
176
150
91
-2
-86
-147
-210
-256
-263
-266
-289
-294
-268
-253
-247
-217
-178
-153
-129
-109
-103
-82
-43
-26
-31
-33
-22
-3
3
-12
-17
-3
14
40
55
22
-19
-38
-60
-67
-45
-38
-40
-41
-81
-110
-80
-104
-127
36
232
321
511
613
181
-384
-430
-220
-211
-263
-212
-180
-194
-187
-160
-138
-126
-114
-89
-67
-56
-32
2
13
15
43
70
57
33
48
75
76
80
126
187
241
294
345
385
415
421
387
329
280
249
216
163
95
38
0
-30
-54
-74
-97
-117
-116
-80
-22
27
54
72
81
68
39
13
-3
-12
-20
-41
-63
-51
-3
33
29
37
85
104
69
44
37
3
-41
-74
-105
-106
-66
-50
-46
17
69
65
172
381
504
671
909
740
151
-155
-17
85
43
53
91
102
129
164
181
193
194
174
143
106
70
56
57
40
9
-5
-13
-35
-39
-25
-25
-24
-3
3
-4
16
49
66
75
84
77
52
12
-35
-85
-145
-217
-276
-302
-319
-349
-372
-371
-379
-402
-402
-381
-378
-394
-390
-356
-339
-372
-431
-480
-516
-528
-506
-487
-497
-498
-447
-360
-303
-298
-292
-266
-259
-284
-318
-348
-350
-312
-252
-187
-128
-87
-66
-43
6
39
18
41
175
310
444
608
527
100
-196
-89
73
56
16
39
61
74
95
108
115
138
167
180
187
204
211
201
207
223
219
222
249
258
235
224
235
239
215
190
212
249
236
212
244
286
286
268
242
195
152
133
122
92
52
43
69
75
55
53
64
61
62
63
33
-3
-3
-3
-41
-67
-49
-22
-6
4
-2
-18
-8
22
48
87
147
180
171
153
146
146
148
140
130
143
160
153
152
171
180
191
201
172
177
300
446
557
645
517
119
-152
-79
55
67
59
59
41
41
55
43
31
51
80
91
98
129
171
198
210
215
211
205
212
234
254
258
253
260
268
256
242
250
272
256
140
-61
-246
-366
-490
-664
-833
-942
-1000
-1050
-1108
-1164
-1211
-1251
-1269
-1277
-1301
-1328
-1346
-1374
-1402
-1406
-1410
-1419
-1358
-1180
-954
-768
-626
-490
-366
-262
-157
-56
25
110
214
300
345
369
386
412
464
515
542
562
592
621
631
619
615
631
604
554
620
767
871
1018
1113
806
301
172
343
389
340
354
357
334
339
334
308
312
325
306
290
301
299
270
251
253
256
262
259
222
180
181
198
191
186
206
231
241
234
235
265
296
296
271
217
141
112
138
117
33
-26
-44
-66
-89
-106
-128
-143
-150
-168
-179
-174
-188
-211
-210
-209
-230
-245
-246
-254
-270
-291
-312
-315
-299
-285
-283
-277
-269
-289
-329
-342
-342
-373
-407
-406
-411
-436
-433
-422
-430
-415
-407
-417
-309
-129
-4
245
521
299
-225
-299
-8
86
29
67
119
138
204
294
362
409
434
443
440
419
423
469
498
495
478
402
256
133
74
23
-24
-38
-37
-29
0
31
54
88
120
129
128
110
55
-12
-65
-121
-189
-235
-247
-267
-298
-313
-335
-378
-392
-370
-340
-283
-210
-177
-173
-159
-154
-175
-201
-224
-242
-239
-209
-172
-154
-135
-85
-21
23
29
-5
-46
-51
-29
-22
-20
7
49
76
106
172
197
162
239
424
547
724
939
714
96
-186
9
184
193
187
166
121
102
99
85
