# session 219
369
307
232
165
115
50
-61
-143
-103
-117
-228
-111
-10
-244
117
1082
201
-4083
-9610
-11116
-5588
627
-1087
-7600
-10533
-9263
-6315
-2822
-1925
-4797
-6879
-4607
-489
1425
1079
591
571
997
557
-3722
-9011
-7180
-253
384
-5037
-5356
213
3176
2404
2152
2554
2358
2242
2284
2128
2167
2241
2043
2055
2127
1878
1980
2086
1353
1445
2456
583
-4416
-8416
-9180
-5791
-138
1345
-2279
-4915
-5052
-4120
-733
3217
3848
2893
3086
3292
2911
2906
3061
2911
2812
2839
2749
2669
2757
2826
2912
3228
3238
2484
1857
1908
1881
1836
2089
1697
1436
2453
619
-6031
-8481
-1744
3178
-1182
-6669
-7573
-6936
-4604
-969
-1698
-5238
-3650
1749
3917
2959
2479
2554
2351
2197
2235
2357
2309
2181
2484
2383
1149
668
1785
2454
2223
2129
1972
2215
2664
186
-4618
-4790
1237
4213
-1089
-5836
-2575
2456
3185
2427
2055
2132
3449
2182
-3010
-5368
-4088
-4651
-5632
-4625
-3732
-1792
2175
3970
2555
2063
3334
2459
-1280
-2581
694
3407
2973
2482
2855
2707
2560
2707
2547
2609
2681
2083
2271
2870
88
-5484
-8218
-6961
-6253
-7652
-6609
-975
3259
2736
2882
3551
-1483
-6733
-4038
-255
-1363
-2265
-2665
-4406
-2490
1485
719
-953
1484
4115
4231
2353
-1585
-5506
-7064
-5341
-482
2680
-46
-4401
-5004
-2114
1713
3841
3594
3059
3122
3081
2887
2542
2557
3065
1543
-3085
-7134
-7244
-4159
-309
2927
4013
349
-5727
-6888
-3400
-1777
-1033
1769
2666
892
1733
4661
3075
-2905
-4211
1118
2605
-2075
-2359
2719
4358
2821
2964
3440
2843
2731
2936
2671
2497
2527
2407
2274
2226
2179
2059
1922
2116
2344
2028
2191
2782
653
-4051
-7186
-8477
-8650
-5309
-1220
-1958
-4924
-5622
-4652
-2037
1619
2720
1395
1027
1643
1531
1120
1656
2270
938
-916
-21
2231
2560
1880
1961
2041
1738
1647
1615
1435
1375
1402
1343
1320
1410
1440
1329
1262
1280
1254
1332
1461
1279
1262
1626
1395
1393
2737
1675
-4362
-9092
-6657
-1796
-1993
-5713
-5677
-1172
1703
1407
1092
902
807
1740
-6
-5588
-6842
-802
2712
-1394
-5005
-2452
1188
1470
777
1144
1410
1295
1448
1554
1467
1521
1486
1296
1341
1262
1018
1590
1434
-2396
-6365
-3629
2283
1179
-5685
-8754
-8018
-8276
-6569
-1902
-789
-3620
-5002
-4837
-3727
10
3423
3331
2477
2833
2861
2482
2545
2571
2373
2387
2473
2429
2574
2943
2916
2293
1769
1744
1799
1680
1588
1587
1558
1454
1309
1174
1068
1061
1187
1218
1108
1149
1134
937
1164
1295
712
1219
1880
-1733
-5817
-2355
2722
-15
-3753
-2050
-2455
-5625
-2923
2152
1481
-641
767
2066
1488
1351
1616
1420
1353
1336
1047
1016
1243
1192
1018
1045
1048
905
896
961
790
753
1010
857
867
1847
1025
-3684
-7615
-6176
-3181
-4247
-7307
-6582
-1995
1423
1680
1305
1485
1305
1296
1602
1022
1025
2264
598
-3185
-2151
1417
-1258
-7990
-9683
-5069
291
2411
1931
1526
1786
1707
1425
1410
1393
1310
1320
1288
1187
1174
1177
1117
1150
1201
1096
1109
1140
773
784
1389
451
-2766
-5745
-6293
-4043
-372
1826
1684
1327
1711
1916
1636
1182
842
846
959
891
817
844
828
751
635
469
360
387
512
628
611
581
647
552
512
811
637
266
1075
990
-2806
-7699
-9797
-8482
-4255
413
1923
1020
776
1270
1180
658
988
1604
-772
-5259
-5352
-423
2780
2563
2655
3170
2322
1158
814
733
612
588
551
488
467
414
331
295
283
241
176
113
59
19
-4
-7
40
134
228
315
412
462
466
496
480
422
474
487
375
444
459
196
406
613
-108
219
1236
-2119
-7703
-6656
-559
1681
354
358
927
556
437
636
503
423
521
505
465
483
498
541
583
564
534
521
496
483
488
469
450
472
459
416
483
597
653
833
1036
789
262
98
236
250
206
264
273
209
236
305
263
195
219
277
279
232
250
351
318
256
446
455
230
671
863
-1876
-7062
-9704
-6191
-248
879
-3151
-5427
-2297
2148
1703
-3789
-6950
-3422
1503
2561
845
-1966
-4580
-3992
-352
2149
2108
1727
1799
1624
1413
1486
1538
1521
1541
1484
1422
1476
1564
1744
1989
1855
1312
996
1071
1112
1036
1020
1039
1014
949
900
930
914
805
770
687
569
814
909
481
816
1407
-695
-5294
-8761
-8381
-3942
477
-458
-4498
-4663
-825
1780
1806
1466
1548
1538
1442
1425
1400
1364
1348
1300
1263
1289
1310
1298
1283
1237
1147
1086
1078
1055
1008
1004
984
817
655
735
904
967
1079
1149
823
372
342
540
521
432
493
479
367
450
472
244
375
529
16
258
1052
-1269
-6068
-8336
-7973
-7225
-4154
997
2801
-153
-3235
-4195
-4465
-3514
-436
2080
2104
1495
1468
1393
1375
1577
1542
1410
1441
1361
1162
1128
1186
1127
990
852
632
252
-133
-248
-89
79
169
292
374
350
422
629
777
854
823
519
205
245
389
359
338
345
278
311
362
280
413
521
142
308
956
-858
-5456
-8599
-7912
-4555
36
2577
-47
-3153
-912
1417
-1671
-3684
-340
2112
1140
748
1287
1050
917
1140
967
995
1305
888
311
802
1670
1980
2269
2696
2522
1778
1084
603
322
276
286
199
107
89
86
44
-18
-62
-85
-133
-231
-319
-343
-351
-344
-290
-265
-163
132
204
105
429
426
-120
590
811
-3258
-7504
-5394
-240
1744
476
-2449
-4774
-3148
541
1602
788
824
1068
796
749
875
803
771
818
783
738
717
688
682
671
619
594
645
703
702
657
621
609
597
581
562
534
527
540
533
551
603
649
856
1218
1225
717
255
212
372
345
177
344
449
-17
303
888
-2309
-7823
-8293
-4227
-2503
-2459
-260
1605
1135
814
1252
1214
1054
1135
1150
1081
950
986
1049
616
641
1296
10
-2552
-2062
667
1326
502
631
951
721
672
787
792
869
856
713
793
858
651
676
779
527
681
851
87
576
1600
-2498
-8005
-5401
-705
-4058
-7760
-4270
-1403
-3001
-3515
-2041
-594
1144
2048
1374
1043
1489
1570
1433
1477
1482
1466
1494
1468
1454
1491
1507
1508
1494
1455
1426
1387
1313
1219
1132
1099
1042
914
966
1049
729
765
1367
-392
-5662
-8747
-5270
-836
-1656
-4231
-4125
-3445
-2944
-443
2128
2155
1534
1761
1753
1505
1642
1713
1593
1667
1792
1856
1968
1789
1215
907
1062
1134
1043
1060
1030
927
991
995
850
999
1060
561
582
1131
679
627
1858
-138
-4765
-3304
2267
-28
-7258
-6442
-107
1045
-2436
-4826
-3817
-152
911
-2384
-3118
-88
559
-112
1458
2420
1606
1526
1869
1608
1564
1752
1637
1515
1537
1489
1399
1401
1417
1314
1312
1416
1187
1096
1459
1113
946
2270
689
-5565
-8113
-4152
-2608
-5283
-5185
-2830
-3089
-4256
-2799
266
2140
2170
1785
1863
1913
1774
1774
1811
1760
1751
1777
1770
1744
1682
1604
1547
1447
1304
1211
1165
1153
1126
924
762
926
867
479
762
664
-2690
-7761
-8545
-3836
-279
-2282
-4931
-3017
-544
-2486
-4754
-2294
1610
2427
1567
1444
1562
1368
1284
1276
1163
1092
1057
965
865
768
653
540
463
420
326
218
253
308
314
524
693
608
889
1115
568
862
1509
-1759
-7241
-7335
-2074
969
-1071
-4014
-3380
75
1917
1244
889
1294
1187
958
1030
960
827
840
821
771
784
769
713
695
713
723
689
624
594
585
549
526
514
470
448
446
428
508
656
706
850
1084
781
133
152
411
121
278
496
-1457
-3684
-2248
731
915
-471
-499
274
508
407
372
395
454
511
528
552
601
627
615
589
557
520
484
442
382
324
297
281
264
271
274
241
236
257
249
279
315
261
306
423
347
358
454
147
204
811
-199
-2788
-4332
-4797
-4347
-1733
756
1318
2105
1287
-3441
-7081
-7541
-7438
-4392
-60
-1821
-4852
-1126
2362
312
-307
2025
2279
1389
1751
1905
1529
1622
1750
1629
1643
1682
1622
1619
1633
1571
1477
1388
1300
1211
1142
1073
974
960
1004
917
899
988
784
729
1006
561
335
1454
390
-4002
-5514
-1676
2070
1496
-3011
-7229
-6247
-2355
-1816
-3925
-3962
-1481
1076
2141
1937
1855
2198
2005
1351
1110
1250
1269
1172
1137
1136
1115
1079
1025
978
972
966
936
918
900
867
875
917
941
961
971
1016
1065
935
885
1072
780
379
990
656
-2918
-7069
-8392
-7230
-4276
-83
2074
-74
-3030
-2294
590
1523
835
830
1154
979
831
863
787
730
753
726
659
620
630
625
562
579
692
761
888
1027
790
312
149
267
311
273
275
278
203
203
357
281
89
349
317
-714
-1860
-3139
-4500
-3412
-36
1501
729
553
968
797
641
749
650
515
499
416
326
335
358
344
324
321
349
386
423
532
770
1028
1240
1597
2075
2132
1484
609
60
-136
-200
-219
-212
-229
-244
-234
-315
-397
-299
-310
-475
-358
-438
-839
-269
-274
-4043
-8154
-6995
-3486
-2434
-1693
439
1342
685
541
1093
1192
816
1439
2254
-390
-4726
-4265
-155
1310
546
549
520
564
986
-605
-2945
-1895
726
972
216
428
539
252
323
459
411
487
618
668
744
782
724
712
744
686
574
513
495
497
530
552
528
553
672
793
943
993
522
-141
-237
-256
-420
273
498
-1784
-3573
-1648
828
777
215
533
611
413
491
529
455
503
571
603
685
753
768
772
738
652
560
469
388
343
290
233
249
236
156
200
209
49
190
330
-260
-383
411
-743
-3880
-4163
-826
1501
1544
1555
1626
1012
455
277
97
1
27
-25
-90
-103
-134
-158
-175
-243
-333
-414
-481
-497
-492
-510
-510
-454
-323
-154
-78
-2
215
246
155
429
407
-38
603
833
-2329
-5229
-2771
1161
840
-1839
-3468
-3972
-2911
-303
1341
1136
877
1082
1010
862
925
928
873
885
863
807
787
765
730
709
714
755
789
776
766
746
663
636
702
670
637
733
679
646
861
618
456
1500
1006
-3168
-6760
-7202
-7326
-6345
-2325
169
-1772
-3949
-3293
-912
1345
2057
1553
1421
1690
1598
1426
1476
1533
1537
1511
1461
1479
1517
1465
1420
1418
1337
1252
1230
1107
1025
1158
945
168
-166
512
1168
882
588
1168
910
-1194
-2186
-635
-149
-2522
-4244
-2702
136
1454
1237
1018
1159
1133
1026
1095
1138
1036
985
1100
1255
1348
1362
1174
828
666
710
779
886
834
702
915
851
419
1020
1128
-2129
-6049
-7188
-7185
-5954
-2003
82
-2460
-3643
-443
2254
2131
1713
1879
1781
1577
1534
1414
1293
1323
1294
1182
1273
1327
1043
1161
1464
-328
-3558
-3412
455
2009
-1186
-5623
-7773
-4996
1059
2003
-3556
-5279
-954
112
-3124
-3352
-59
2094
2186
1917
1935
2118
2396
2516
2176
1629
1456
1650
1621
1390
1499
1489
1039
1355
1789
148
-1317
206
279
-4430
-7603
-4863
-2017
-2780
-2426
876
2757
2152
1873
2180
1998
1787
1785
1651
1556
1513
1403
1447
1439
1233
1345
1396
986
1332
1573
-956
-3713
-2304
922
1931
1292
730
1357
1844
-1856
-7002
-6445
-3565
-4287
-3803
-330
-794
-4168
-3211
675
2267
2128
2336
2304
1696
1382
1484
1484
1395
1426
1439
1285
1124
1184
1312
1184
1081
1256
1130
916
1284
1068
441
1563
1472
-3056
-5350
-1344
490
-3542
-6143
-4179
-814
938
-616
-2533
-718
1897
1632
858
1269
1367
1054
1065
1149
1053
890
1012
1179
525
-52
664
1073
647
1165
850
-2197
-3532
-649
1589
890
485
1089
878
623
1461
1310
-1486
-3672
-1349
2154
-3
-5500
-5569
-1532
-1838
-4735
-3143
715
1621
958
1103
1245
1027
1051
1135
1100
1135
1167
1138
1176
1231
1191
1109
1056
1026
965
838
726
685
662
647
606
539
638
652
262
439
968
-1520
-6881
-8557
-4862
-2506
-3150
-1617
1312
1207
400
1481
634
-2655
-2814
488
1903
623
13
755
1312
1327
1327
1347
1084
699
619
734
720
679
723
705
632
626
645
648
678
662
560
582
697
603
593
869
754
607
1142
913
307
1608
1123
-3908
-5579
-1107
8
-3456
-3715
-1509
-1038
-1330
-2416
-4473
-4130
-835
1660
1991
1958
2315
2534
2751
3190
3236
2559
1728
1202
929
795
738
701
680
655
597
544
511
477
438
338
210
238
272
89
119
414
297
320
1106
449
-3417
-7533
-7716
-4169
-591
1140
1825
1064
-1217
-1695
638
2008
1346
1151
1558
1388
1204
1357
1256
1133
1340
1233
918
1279
1260
-655
-3191
-4454
-3949
-1540
1300
2094
1438
1485
1784
1412
1354
1676
1312
1320
2151
296
-4852
-7587
-6414
-6361
-7148
-4694
-2015
-2049
-242
3012
1179
-2645
-984
2664
2597
1568
2133
2348
1921
1983
2080
1902
1857
1844
1771
1795
1733
1531
1488
1527
1445
1466
1501
1334
1449
1611
1112
1236
2124
238
-4621
-7552
-7271
-6103
-3463
885
3028
1293
-380
-253
-1617
-3892
-2531
814
1092
-1224
-3151
-3180
-782
1906
2315
1677
1748
1836
1598
1597
1624
1463
1405
1419
1371
1362
1330
1268
1317
1344
1391
1699
1807
1411
989
567
420
963
663
-772
-1012
-1552
-5128
-7995
-7024
-4662
-1192
2307
23
-5806
-6050
-2232
-1076
-562
1746
2665
1941
1987
2263
1934
1741
1759
1626
1426
1243
1164
1270
1394
1292
1112
1263
1349
911
1049
1625
-22
-3213
-4204
-3804
-4224
-2802
1105
2901
1988
2238
3067
387
-5419
-8194
-3664
2763
2480
-3015
-6649
-7066
-4708
-118
1060
-2744
-3693
485
3041
2257
1893
2247
1977
1747
1855
1768
1644
1691
1701
1698
1822
2007
2165
2291
2395
2486
2643
2955
3262
3474
3913
4276
3629
2476
1845
1124
651
1575
718
-4337
-6833
-1783
2254
-2084
-7264
-5690
-1764
157
1631
1437
-1600
-2484
599
2499
1746
1510
1986
1826
1600
1672
1598
1505
1521
1447
1369
1370
1258
1103
1150
1174
993
951
937
699
801
904
320
653
1456
-1411
-6409
-7888
-7583
-8100
-5521
-969
-96
-896
-973
-3034
-4434
-1307
1765
1359
822
1388
1307
944
1008
945
757
743
715
636
598
530
444
374
273
194
192
174
83
-29
-33
97
98
-85
-116
-157
-375
-164
-1
-664
-325
630
-2515
-7545
-6093
-1022
-1969
-5897
-4431
-298
719
142
371
517
311
361
456
436
447
481
547
536
504
662
584
382
968
839
-2073
-4442
-1768
2453
1105
-4709
-6896
-2601
2210
2375
923
2300
2730
-1756
-4098
126
2072
-1177
-1580
-112
-2300
-3091
814
3270
2486
2290
2770
2565
2466
2620
2500
2408
2452
2395
2348
2369
2313
2201
2119
