# session 247
2
41
106
129
103
97
104
88
61
15
-44
-78
-99
-129
-128
-111
-147
-205
-207
-169
-135
-77
-1
48
149
379
611
779
968
1012
676
188
-116
-255
-316
-301
-275
-277
-270
-262
-273
-279
-282
-308
-340
-360
-380
-405
-431
-453
-461
-452
-430
-368
-269
-169
-43
79
104
169
305
169
17
335
128
-1242
-1831
-558
565
422
226
405
393
298
340
346
315
344
369
362
357
351
335
301
248
205
185
167
150
144
142
132
122
121
120
113
110
115
111
91
64
48
54
57
30
13
42
77
65
26
-6
-28
-45
-59
-72
-68
-55
-71
-83
-64
-85
-117
-46
73
215
479
583
178
-330
-399
-243
-229
-270
-253
-243
-254
-253
-233
-199
-189
-208
-200
-171
-179
-207
-204
-178
-145
-92
-24
24
51
77
102
118
124
121
106
85
57
20
-25
-65
-92
-104
-107
-107
-105
-99
-87
-66
-40
-12
39
111
182
335
622
905
1148
1453
1588
1195
482
-53
-289
-374
-381
-363
-370
-376
-356
-348
-356
-351
-351
-377
-409
-417
-406
-401
-411
-413
-392
-356
-297
-202
-93
1
94
191
256
263
232
194
150
94
48
23
8
-8
-17
-13
-2
2
-7
-12
-3
-4
-19
-25
-15
-10
-19
-29
-22
-8
-9
-17
-11
-8
-13
0
17
9
-7
-6
0
-2
0
-1
-17
-38
-40
-34
-54
-93
-92
-34
21
28
7
-27
-64
-72
-58
-62
-69
-60
-60
-56
-33
-61
-98
-3
146
286
549
683
278
-274
-355
-181
-167
-216
-198
-193
-202
-193
-192
-194
-176
-146
-120
-99
-79
-57
-32
-6
20
55
97
131
164
212
264
296
305
308
309
289
236
177
133
90
38
-4
-26
-46
-59
-49
-52
-68
-29
39
63
104
192
315
562
872
1065
1277
1557
1443
774
99
-212
-313
-347
-318
-286
-273
-236
-193
-191
-219
-250
-280
-304
-335
-389
-441
-468
-499
-542
-547
-497
-424
-335
-219
-94
-5
46
78
77
34
-15
-44
-67
-86
-85
-80
-85
-90
-84
-71
-68
-77
-86
-82
-70
-69
-81
-86
-88
-105
-115
-101
-92
-92
-69
-53
-77
-102
-96
-91
-94
-80
-60
-59
-78
-114
-160
-191
-188
-162
-145
-141
-116
-73
-54
-67
-79
-86
-90
-74
-47
-28
1
21
23
47
64
36
70
182
275
451
667
502
7
-219
-99
-37
-78
-71
-53
-60
-57
-51
-39
-21
-18
-11
24
48
39
42
83
130
152
163
190
228
266
300
330
349
357
363
353
304
248
241
254
230
190
169
146
108
80
64
48
43
55
74
118
175
230
386
663
882
1053
1306
1368
927
269
-159
-327
-386
-404
-413
-424
-424
-426
-437
-449
-455
-455
-455
-463
-479
-501
-533
-562
-565
-542
-508
-469
-406
-315
-224
-141
-54
9
24
9
-21
-48
-50
-46
-61
-78
-89
-102
-116
-124
-121
-104
-79
-62
-51
-45
-51
-63
-71
-80
-93
-101
-98
-90
-85
-80
-72
-64
-55
-46
-43
-44
-42
-31
-25
-32
-46
-59
-68
-68
-56
-54
-51
-6
58
64
23
8
16
14
5
-4
-15
-25
-36
-23
8
-8
-17
83
212
330
472
396
-11
-286
-176
-44
-77
-77
-14
6
-1
21
64
92
88
80
88
90
79
77
81
84
85
93
129
174
192
212
261
304
321
318
287
246
217
168
86
27
8
-9
-28
-32
-34
-45
-42
-15
4
11
65
151
220
404
768
1074
1293
1668
1939
1557
690
-18
-326
-380
-354
-363
-399
-413
-440
-485
-499
-505
-535
-569
-604
-638
-645
-646
-681
-713
-681
-607
-551
-496
-385
-238
-122
-54
-3
38
35
-16
-62
-71
-78
-115
-157
-161
-127
-116
-153
-168
-131
-104
-97
-77
-71
-91
-92
-70
-55
-47
-48
-43
-8
35
52
68
94
103
104
119
111
57
-10
-61
-100
-129
-138
-136
-148
-140
-50
59
76
43
45
61
60
54
51
66
91
88
88
107
90
110
257
423
565
697
574
140
-137
-44
81
80
101
159
189
217
244
245
251
278
278
251
236
211
137
49
-8
-59
-118
-142
-96
-24
0
-30
-39
14
75
88
53
-11
-89
-141
-157
-195
-258
-268
-240
-244
-259
-252
-249
-233
-189
-141
-89
-40
-21
26
158
353
606
868
1035
1241
1668
1945
1480
478
-266
-489
-545
-628
-672
-687
-709
-698
-660
-638
-625
-615
-616
-615
-615
-622
-623
-622
-649
-687
-676
-610
-546
-493
-388
-220
-61
46
133
192
175
119
102
107
89
80
95
103
110
129
129
109
92
74
94
131
-24
-410
-634
-428
-122
-66
-122
-92
-47
-45
-26
11
19
18
48
80
52
4
40
144
201
188
178
194
205
232
291
323
312
316
350
368
346
324
357
439
611
899
1090
986
485
-565
-1583
-1390
-237
399
300
284
417
431
462
543
552
554
607
629
582
526
507
480
428
448
520
497
408
397
450
467
399
252
103
7
-87
-174
-184
-191
-301
-433
-523
-654
-780
-768
-671
-623
-744
-1063
-1230
-889
-424
-350
-396
-109
361
684
878
1077
1153
843
170
-516
-916
-1040
-1043
-1000
-927
-867
-828
-764
-670
-585
-520
-449
-366
-311
-293
-287
-288
-287
-271
-248
-188
-94
-23
94
308
478
652
890
766
229
60
350
363
285
562
426
-318
-398
280
440
76
-3
33
-121
-207
-192
-253
-330
-364
-378
-267
-30
120
170
268
291
149
74
75
-51
-254
-466
-543
-297
-264
-882
-1190
-452
320
126
-400
-223
320
237
-237
-279
-117
-217
-325
-267
-221
-186
-95
2
94
188
257
323
408
483
533
580
616
624
609
589
601
653
666
616
601
625
623
649
682
621
601
675
635
665
908
685
-62
-144
537
796
573
579
646
470
296
186
17
-141
-248
-301
-256
-246
-372
-494
-575
-686
-701
-576
-484
-432
-331
-242
-185
-110
2
146
199
189
320
320
119
402
571
-689
-1906
-1072
187
-41
-592
-417
-211
-238
-56
305
405
84
-265
-294
-210
-259
-369
-480
-558
-510
-373
-262
-194
-143
-64
41
69
3
-61
-122
-209
-267
-310
-386
-440
-440
-427
-424
-473
-574
-586
-480
-420
-406
-285
-128
-118
-220
-312
-352
-329
-272
-240
-212
-157
-116
-93
-46
25
117
246
422
664
940
1130
1180
1127
1014
1010
1203
1192
672
134
60
169
134
86
101
101
133
156
88
96
142
19
46
150
-543
-1610
-1704
-988
-137
421
-445
-2004
-1571
289
847
336
144
115
190
475
508
343
349
358
290
308
334
297
301
343
362
374
383
384
386
366
335
333
313
288
324
276
129
180
281
121
163
336
-422
-1545
-1334
-325
40
128
423
436
226
191
167
73
89
153
157
161
163
118
111
158
125
75
199
390
558
835
869
223
-416
-326
-131
-228
-101
-80
-386
-17
216
-1338
-2429
-981
-101
-1553
-2343
-1752
-1786
-1379
567
803
-1990
-3304
-968
1132
862
419
748
878
785
782
683
557
511
417
336
341
306
240
242
256
268
313
295
245
292
305
228
259
284
225
390
499
318
683
1080
-298
-2117
-1681
-148
412
688
1047
722
232
226
229
88
79
75
-8
-13
12
-45
-109
-126
-127
-119
-126
-197
-287
-314
-306
-325
-336
-299
-248
-181
-44
100
164
261
389
359
337
423
207
-87
100
-46
-1269
-2455
-2582
-1840
-611
400
571
402
462
544
564
652
685
614
547
467
373
327
275
189
156
166
138
118
153
193
234
284
292
276
294
324
348
361
324
308
370
358
289
342
335
287
673
1030
216
-1386
-2128
-1451
-399
240
776
746
-738
-2055
-1373
-327
-512
-750
-432
-333
-402
-282
-204
-216
-154
-67
-16
14
40
91
143
161
189
251
316
373
385
355
349
312
228
242
205
-2
86
343
-262
-1625
-2460
-2251
-1256
-24
574
455
416
628
771
962
1289
1511
1583
1680
1795
1702
1272
671
165
-134
-256
-289
-341
-404
-394
-350
-364
-388
-380
-402
-462
-488
-470
-522
-687
-706
-555
-689
-832
-357
-249
-1304
-1903
-1156
-423
-63
527
857
695
637
645
465
346
357
330
279
251
225
197
165
147
157
161
147
128
118
152
206
207
181
204
244
238
196
188
219
170
113
231
236
16
141
306
-552
-2016
-2874
-2800
-1707
-109
569
283
307
675
729
665
658
488
329
351
366
484
785
696
40
-393
-230
-11
-23
-39
16
33
20
7
-10
14
33
-8
10
30
-68
19
153
-169
-143
501
-185
-2013
-2148
-954
-623
-290
808
1208
867
864
910
657
496
423
268
163
99
-1
-29
6
-21
-53
-15
-6
-37
21
133
177
221
379
610
816
966
1137
1414
1641
1507
976
318
-129
-189
-158
-354
-386
-141
-678
-2323
-3484
-2879
-1257
-103
131
23
20
6
-109
-201
-229
-240
-264
-298
-280
-197
-104
11
154
231
212
196
213
215
185
128
110
182
175
73
144
179
1
180
327
-216
80
787
-1702
-5092
-3452
-11
-722
-2050
-235
1154
539
438
910
832
737
819
706
616
641
582
507
486
433
353
295
275
298
331
320
294
313
311
230
251
434
585
835
1250
1182
466
-5
93
229
199
87
16
129
-162
-1617
-3311
-3308
-1488
205
585
417
483
559
483
450
451
428
448
473
463
471
488
483
495
501
438
349
275
195
130
69
11
44
63
-34
-2
49
-165
-81
183
-287
-244
667
-1193
-5047
-4354
-207
186
-2300
-2746
-1830
-802
1160
2725
2690
2319
2123
1555
916
590
415
280
183
90
11
-39
-48
-31
-42
-80
-116
-140
-157
-187
-227
-248
-277
-321
-336
-315
-270
-208
-129
34
187
143
167
379
302
250
697
236
-1589
-2066
-337
752
218
-109
219
337
230
197
162
109
82
51
31
39
55
61
35
-34
-86
-55
0
-27
-64
8
88
102
166
214
152
191
274
123
85
220
-110
-281
316
-216
-2328
-3055
-1958
-1267
-451
1188
1623
701
474
860
775
553
540
478
373
309
256
226
129
-58
-142
-78
-17
8
19
17
59
148
200
210
261
359
387
354
442
526
399
421
530
98
-63
610
-84
-2480
-3176
-2087
-2164
-2259
-444
937
525
235
544
504
362
446
427
365
475
585
601
687
835
919
1099
1516
1783
1477
801
206
-117
-199
-197
-212
-176
-151
-220
-225
-236
-379
-337
-271
-516
-330
-88
-1506
-3030
-1963
-400
-771
-1016
-77
225
-97
107
399
391
464
563
518
474
446
381
326
282
231
227
266
248
154
118
176
177
85
30
33
32
42
45
27
52
45
-36
15
53
-177
-86
175
-1088
-3244
-3138
-1165
-556
-887
-79
765
477
212
416
424
319
359
354
261
245
348
461
613
963
1162
697
13
-135
43
47
-14
43
84
43
30
64
91
166
223
105
-3
-90
-369
-142
611
-169
-2263
-2310
-399
356
245
828
1104
810
942
868
482
890
615
-1699
-2853
-913
797
463
124
397
334
199
311
292
205
259
298
263
259
278
293
341
393
351
279
291
236
143
274
284
45
405
751
-842
-3047
-2483
179
1645
1682
1855
1870
1075
277
124
191
126
54
-6
-139
-246
-247
-258
-320
-323
-304
-354
-400
-411
-436
-418
-420
-513
-485
-433
-588
-488
-265
-600
-326
606
-1187
-4602
-3491
462
-4
-2808
-1682
879
812
620
1386
368
-1222
-384
1100
927
451
632
639
486
554
554
474
540
596
544
519
521
471
399
330
264
280
359
328
277
356
289
149
429
608
262
469
898
-413
-2540
-3148
-2758
-2125
-645
638
549
234
436
464
328
384
366
222
200
238
209
194
226
253
266
279
296
331
379
424
451
450
439
417
340
263
257
204
101
98
72
-7
61
-38
-272
107
123
-1660
-3036
-1626
314
485
249
611
755
600
559
474
317
268
261
218
187
183
160
79
7
16
-2
-65
7
172
334
669
989
714
21
-277
-84
-1
-112
-21
24
-264
-120
258
-885
-2787
-2765
-1638
-1590
-1448
-202
482
177
132
377
348
281
447
547
395
506
866
330
-812
-718
318
541
178
168
231
156
173
203
193
221
237
227
216
225
247
173
159
296
110
-58
543
365
-1704
-2724
-910
871
829
473
714
984
582
-389
-778
-82
853
821
-1041
-3087
-2057
978
1836
583
87
408
402
324
396
374
350
383
377
395
408
374
421
427
325
444
491
143
323
688
-643
-2306
-1726
-1020
-2213
-2308
-66
1216
593
285
645
652
478
486
456
375
364
343
297
272
247
230
214
153
101
127
164
131
97
157
220
198
224
253
115
100
220
0
-2
466
-321
-2021
-1445
513
-240
-2630
-2857
-1584
-816
-46
725
653
376
585
701
422
297
436
220
-49
452
370
-1498
-2496
-827
687
383
104
423
388
243
381
438
410
498
540
537
609
580
505
591
456
139
350
316
-1060
-2390
-2634
-2991
-3010
-1262
557
619
232
424
473
316
387
440
328
291
327
324
320
317
260
182
157
188
219
221
220
166
32
1
96
57
8
170
220
284
765
666
-371
-469
112
-1163
-2851
-1721
485
780
257
456
718
657
627
606
562
579
554
457
379
321
308
374
433
451
509
575
593
637
669
618
623
601
362
310
506
-174
-1968
-3063
-2232
-594
281
335
387
651
750
634
563
537
416
262
204
233
274
284
257
217
199
181
145
142
105
-23
-24
-2
-261
-250
117
-289
-845
-240
-326
-2017
-2195
-310
504
42
130
402
245
183
208
72
-6
-61
-248
-344
-264
-243
-310
-315
-290
-306
-300
-263
-254
-247
-211
-169
