# session 221
172
125
144
142
65
103
162
23
135
399
60
76
783
-420
-2972
-2641
-106
877
402
-77
414
1501
-1116
-6881
-6939
-1485
-643
-4003
-4376
-3745
-4841
-3548
169
1560
852
837
1093
839
760
876
806
737
745
679
596
560
554
573
552
504
577
705
730
793
908
835
791
915
781
746
1062
516
-85
1098
531
-4443
-7346
-4580
-2741
-3952
-2632
1095
2219
943
1057
2354
830
-2986
-3108
717
2436
1471
1442
1943
1816
2035
2149
1519
1171
1209
1268
1535
1220
864
1909
1174
-3103
-4309
-153
2021
1085
1802
840
-4687
-6842
-1494
3103
1220
-1568
284
2203
-1914
-7195
-5395
297
1101
-2878
-4520
-932
2782
1031
-2877
-1997
1914
2949
1942
2029
2371
2108
2077
2132
1898
1848
1959
1904
1939
2043
1956
2064
2244
1991
2296
2961
545
-5142
-7665
-3039
2626
1157
-4162
-3977
-353
-1524
-4377
-2147
1556
1630
578
1294
1418
-1270
-3338
-1689
-287
-1692
-1500
1164
1970
1136
1344
1728
1433
1390
1525
1403
1335
1326
1230
1224
1246
1208
1287
1412
1563
1999
2304
2368
3251
3145
-2054
-8443
-6466
451
-437
-6301
-4644
588
-1291
-5240
-3101
678
1030
460
736
693
409
427
440
410
510
636
749
864
908
918
950
928
833
765
733
678
670
706
647
591
627
548
508
657
474
309
725
392
-212
1073
719
-4061
-6098
-2774
-2860
-6883
-6332
-2835
-3240
-5064
-3312
160
1636
1329
1155
1318
1260
1224
1245
1115
1196
1223
849
1199
1859
572
-1186
-317
1315
1074
556
922
974
697
767
839
757
779
782
690
678
724
706
657
644
654
664
715
805
839
846
867
782
727
886
832
597
793
686
89
770
1024
-2529
-5674
-3200
544
1367
1477
141
-3567
-4112
-155
2068
1193
934
1399
1167
982
1155
1094
983
1086
1150
1165
1385
1615
1381
855
655
776
796
734
740
717
695
727
648
587
688
429
-95
200
857
626
610
1247
-203
-3555
-4168
-818
2303
1249
-3226
-5350
-1578
2364
-543
-6755
-7382
-2070
1600
1295
1393
1552
-2105
-6451
-6756
-5878
-6327
-4717
-522
2334
2583
1037
-1741
-3577
-3212
-2765
-3188
-2936
-2526
-3250
-2717
911
4086
3855
2587
2537
2723
2503
2419
2428
2313
2218
2143
2033
1970
1936
1859
1779
1732
1677
1641
1668
1634
1549
1585
1573
1472
1588
1520
1082
1375
1649
-1077
-6127
-8472
-5733
-1071
1466
1476
1103
1227
1207
1022
1056
1133
1089
1010
904
801
764
741
685
625
590
574
519
460
520
619
661
782
840
487
30
-19
119
80
-6
1
8
-19
-35
-40
-57
-90
-113
-120
-131
-127
-103
-99
-71
-1
15
33
103
54
7
98
-61
-211
38
-296
-712
357
-372
-5507
-8299
-4035
426
227
-561
158
425
391
820
1018
1061
1430
1608
1213
576
13
-346
-470
-491
-520
-543
-549
-560
-580
-607
-640
-676
-717
-767
-820
-853
-858
-838
-770
-629
-453
-289
-156
-49
39
94
100
94
99
84
56
66
95
107
102
96
118
175
192
151
171
255
235
124
112
191
215
194
203
231
251
260
250
238
233
230
249
291
311
327
360
352
352
429
501
642
970
1055
572
88
92
235
205
170
226
260
243
247
283
280
246
276
338
334
339
422
464
430
441
502
535
557
572
557
543
541
525
495
440
360
313
275
196
199
351
437
285
64
67
230
265
289
350
102
69
530
-849
-4892
-6931
-3917
-20
912
519
597
813
1080
1104
763
754
156
-1989
-3710
-3987
-3907
-2621
139
1559
1018
778
1098
1016
886
977
955
907
967
987
943
896
902
970
956
879
899
828
673
770
700
341
636
817
-422
-1068
-516
-2421
-6317
-7595
-6875
-6468
-4046
303
2043
1124
1218
1729
875
1040
2076
-834
-5625
-4721
86
1952
1704
1552
-404
-3211
-4077
-3209
-1167
1237
1929
1246
1172
1479
1341
1214
1308
1305
1251
1277
1247
1117
1123
1227
1140
1164
1375
1077
921
1620
956
-1544
-1872
580
1672
880
740
1062
880
765
828
746
753
848
799
752
827
896
889
833
767
721
706
714
708
688
707
713
649
636
701
776
952
1067
794
427
318
212
131
386
653
610
566
650
634
555
578
640
642
600
595
675
692
587
693
869
593
595
1291
709
-1756
-3673
-4113
-3755
-2551
-1828
-2602
-2254
631
2808
1536
-1951
-5369
-7266
-5510
-279
2556
154
-1606
681
3134
2965
137
-4111
-6132
-5080
-4777
-5581
-3634
1091
4300
3478
209
-2199
-2322
-1701
-1813
-1938
-1507
-1579
-2060
-1059
1674
4239
4633
1573
-3177
-5218
-3890
-2221
-670
808
72
-948
2174
5750
2701
-3374
-3381
2092
5277
3981
3009
4619
3886
-998
-2408
1558
1805
-2378
-2008
2722
4655
3314
2978
4643
4319
45
-2098
1737
5063
3601
1815
2475
2906
7
-5618
-7848
-3369
578
-1291
-3220
-2246
-2490
-2830
8
2613
2378
1848
2155
2377
2213
1944
2554
2793
-246
-3520
-1654
2309
2759
1533
1912
2215
1333
1581
2364
-192
-4134
-3089
1559
2551
-1585
-6923
-8873
-4376
1341
-863
-7094
-6261
-1317
-2189
-5573
-2925
1487
-1410
-7349
-5571
1175
1538
-3634
-4258
368
3132
2696
2404
2661
2457
2346
2554
2541
2529
2681
2385
1695
1420
1587
1620
1480
1423
1384
1281
1255
1261
1065
836
885
1010
1032
1038
919
892
1155
700
-751
-1264
-59
1065
1146
974
900
710
506
393
321
308
332
325
300
282
283
316
338
318
321
395
448
384
318
341
302
237
309
239
71
341
440
-104
231
963
-1376
-6239
-8910
-7910
-4855
-908
1650
704
-1626
-2069
-1316
-1733
-3031
-3571
-4013
-5224
-4093
465
1962
-1880
-3139
693
2802
1716
1516
2114
1858
1608
1725
1662
1570
1485
1268
1186
1263
1221
1106
1099
1129
1057
979
1054
1148
1170
1318
1495
1526
1605
1619
1938
3168
2061
-4436
-9295
-5193
165
-1291
-3177
-1748
-2534
-3839
-835
1972
1187
598
1220
1049
676
803
744
592
667
749
833
975
1055
1129
1226
1197
1099
1112
1129
1012
939
985
944
831
789
687
615
749
683
510
832
914
1
-1514
-3642
-4732
-2307
285
-1235
-3727
-4260
-4439
-3217
206
2023
1325
1122
1555
1359
1157
1280
1265
1189
1182
1192
1260
1375
1623
1888
1631
957
672
832
888
829
865
855
757
747
738
633
699
818
609
600
1071
330
-3292
-7969
-8688
-3805
644
-347
-3185
-3953
-3511
-1741
1230
2417
1616
1377
1729
1591
1274
1275
1441
1263
1135
1719
1391
-678
-1276
840
2246
1669
1422
2114
2188
1767
2580
2980
-664
-5059
-3800
402
1466
114
-1638
-2658
-685
957
-2490
-6550
-6724
-5874
-5013
-3394
-3137
-3265
-659
2328
1999
649
1886
2357
-2213
-5704
-1942
1661
-502
-1128
2398
3666
2365
2382
2852
2490
2357
2522
2459
2313
2237
2262
2271
2323
2595
2593
2445
2969
3218
3004
3946
3081
-2716
-6841
-4166
-1033
-1250
-1359
-1026
-720
306
-1004
-3757
-1422
3029
1200
-3059
-1791
1778
2081
1144
1447
1640
1353
1652
1947
1512
1703
2551
884
-3208
-4468
-1331
2085
3140
1478
-2734
-6712
-7271
-5726
-5898
-6821
-3036
3156
1990
-4224
-3954
331
-330
-2383
-1904
-3060
-3964
88
3761
2852
2561
3116
-915
-5222
-2450
2749
3536
2394
2593
2754
2380
2383
2419
2150
1978
1955
1816
1648
1680
1635
1415
1668
1903
781
-562
-84
1237
1579
1440
1900
2218
141
-4687
-7993
-6041
-2137
-1305
-2251
-1355
1143
2941
2172
-911
-2222
919
3767
558
-5407
-5960
-771
3100
3101
2620
2980
3035
2894
2752
2172
1606
1516
1443
1303
1347
1250
1078
1210
990
548
1138
789
-3268
-7413
-7432
-6724
-7686
-6112
-1913
-298
-1534
-2864
-3655
-2265
1386
2833
1551
2005
2609
-1069
-4027
-523
2865
209
-1980
707
2827
2017
1659
2136
1959
1728
1838
1798
1675
1594
1586
1627
1440
1394
1620
1135
627
1472
1328
-2130
-6495
-8455
-6926
-3468
-1540
-1312
-730
-1126
-2162
-324
2506
2530
1698
1994
2081
1845
1919
1879
1840
2057
2211
2351
2369
1850
1285
1292
1453
1406
1386
1395
1321
1278
1249
1225
1267
1168
1065
1283
1191
828
1431
1341
-2373
-6930
-7791
-6847
-7086
-6278
-3607
-2895
-4368
-3501
-46
2074
2483
2281
-287
-4864
-7138
-4675
310
2960
1330
-197
1560
3201
2564
2091
2469
2376
2155
2283
2220
2037
2126
2182
2001
1965
2133
2154
2140
2171
1859
1519
1528
1307
1391
2045
-216
-6062
-8051
-2843
1612
529
-922
-607
-2427
-4922
-2817
1439
2174
1746
3000
1083
-3864
-3466
1747
3511
2037
1985
2428
1918
1774
1937
1679
1601
1683
1338
1324
1842
498
-3498
-5455
-1689
2657
825
-4099
-5580
-5055
-5894
-6249
-5892
-6784
-5966
-1717
701
-994
-2997
-3492
-2360
676
2937
2568
2015
2328
1968
1556
2069
2001
1398
2041
1892
-1322
-3348
-815
1948
1757
1256
1725
1825
1718
1955
2043
1902
1851
1851
1732
1365
1008
1272
1693
1216
1010
1926
22
-6025
-8279
-3281
-2
-1947
-2008
-317
-2013
-2992
390
2705
1781
1426
1980
1767
1534
1695
1650
1540
1502
1412
1413
1450
1554
1963
2139
1517
813
714
796
713
669
718
700
584
541
601
516
431
542
426
360
734
369
-87
1223
526
-4982
-7788
-3366
201
-2429
-5899
-5085
-2025
-1508
-2843
-1755
-57
-871
-758
1423
1803
879
1186
1437
1016
1314
1785
1381
1056
1623
2391
2662
2342
1598
915
616
515
486
463
341
332
290
1
309
440
-2583
-6906
-6167
-1160
105
-4483
-8575
-7026
-2190
-294
-2271
-3229
-1765
-484
495
1744
2057
1637
1702
1931
1759
1637
1840
1705
1256
1647
1931
147
-1421
41
1866
1539
1066
1490
1507
1190
1246
1380
1351
1283
1275
1279
1148
1144
1300
1050
1010
1506
734
-162
1505
1149
-4307
-6146
-1058
938
-2696
-4681
-4296
-3677
-1181
1594
1678
971
1164
1136
981
1287
1430
1303
1314
1326
1271
1296
1340
1364
1405
1426
1440
1471
1482
1466
1428
1395
1292
1018
945
1147
826
533
1312
388
-4275
-7675
-6950
-7005
-7706
-3862
234
-1076
-2192
-319
-1392
-4489
-3796
-903
1356
3119
1441
-3417
-3851
1078
3767
2850
2406
2406
1825
1789
2080
1878
1752
1868
1771
1644
1661
1627
1634
1686
1575
1530
1592
1399
1448
1807
1324
1049
2175
1290
-2500
-4062
-3686
-5762
-6833
-3845
-2692
-4620
-3318
359
1383
1630
1904
-1471
-4810
-2024
2307
2458
1415
1828
1993
1582
1567
1807
1667
1206
1608
2283
518
-2077
-972
2164
2689
1828
2457
2623
851
571
1911
-1132
-6845
-5665
27
158
-2251
-654
-54
-3633
-5522
-3271
-242
1346
1485
1153
1192
1287
1214
1317
1446
1364
1304
1382
1433
1329
1160
1104
1073
980
976
895
716
864
823
409
1008
1002
-3045
-6922
-3950
763
-1167
-4919
-2979
-522
-3326
-5221
-1281
2665
2425
1404
1323
630
65
670
1119
832
746
955
914
737
765
753
483
474
643
-12
-1054
-966
106
766
386
-42
355
-639
-4264
-5475
-1168
2361
-241
-4593
-4567
-957
1613
1585
990
1159
1444
1363
1221
1256
1399
1513
1563
1569
1642
1918
2043
1797
1835
1975
1474
1578
1912
-1512
-7072
-7039
-1677
1407
989
593
283
-1066
-3058
-4284
-2823
265
1440
732
588
911
825
771
867
905
1068
1240
1254
1304
1349
1297
1328
1340
1249
1284
1235
1069
1278
1229
676
1267
1713
-1285
-4393
-2248
1688
1823
95
-363
-1233
-3707
-4882
-2518
927
2148
1730
1638
1790
1713
1674
1618
1563
1645
1523
1406
1665
1497
1186
1858
1053
-2995
-5105
-2039
1310
2169
1822
-1144
-5533
-6990
-6911
-6169
-1335
2552
-1077
-4401
-1573
-1030
-4252
-2331
2085
-145
-5560
-6475
-3752
-175
3389
3743
-440
-3764
-1676
2502
3847
3090
2881
3018
2805
2704
2627
2430
2472
2296
1887
2210
1612
-2314
-6019
-3871
1828
3507
-63
-3095
-3478
-4127
-4108
-1040
2147
3325
3331
842
-2363
-982
3208
4298
1518
-2160
-2878
405
3049
2449
1804
2299
2183
1819
1879
1772
1824
1946
1338
1438
2452
145
-5325
-5710
935
3921
-1950
-5926
-1391
1231
-3594
-4956
599
2165
-1857
-3345
-3585
-6269
-5772
-309
2950
2191
1751
2178
2015
1892
2025
1914
1798
1760
1688
1672
1534
1505
1714
1276
941
1961
866
-4305
-6566
-2210
1450
1187
1550
1184
-2761
-4375
-598
2224
1513
1065
1569
1425
1176
1299
1297
1241
1273
1244
1189
1182
1277
1325
1123
1130
1359
783
-117
90
645
786
1088
-73
-3763
-6588
-7125
-7793
-7156
-2748
1536
2141
1204
-405
-3439
-4643
-1895
1199
2262
1990
-964
-6027
-7294
-2833
1805
2931
2209
2091
3110
3043
488
-988
959
2699
2154
1718
2161
2195
1864
1890
2077
1795
1584
2220
1522
-2534
-6232
-6067
-5632
-7007
-5084
333
1217
-2980
-3598
811
3631
3209
2759
2886
2705
2565
2613
2547
2458
2434
2456
2469
2352
2345
2562
2404
1935
2158
2964
3256
3135
3477
3827
3183
2269
1979
1387
923
1912
696
-5192
-7934
-2955
-90
-4782
-7705
-4463
-2572
-4164
-2858
1398
1330
-3550
-6281
-5821
-6079
-4805
447
3337
-71
-3424
-2701
-2196
-3323
-1905
1891
3762
3526
3232
2992
3354
3534
603
-3654
-4978
-4273
-2696
886
3589
3194
3183
3215
-890
-5636
-5822
-5108
-6191
-4661
-743
-327
-3032
-3035
1153
4715
2910
-1309
-917
3108
4428
3366
3690
4403
3669
2737
2551
2532
2426
2362
2296
2211
2129
2013
1881
1804
1811
1805
1707
1587
1507
1471
1482
1293
679
362
1125
1184
-2341
-7054
-5787
1077
2698
-3572
-5847
-1239
-1254
-5661
-3835
-240
-3572
-5966
-1097
2696
1501
825
1736
1718
1276
1326
1509
1217
356
468
1393
-520
-4757
-5178
-979
1960
1804
1608
1927
1455
869
960
1090
980
947
922
822
813
831
739
687
752
713
625
710
680
527
767
868
489
907
1326
-524
-2290
-766
1243
907
305
600
564
366
490
492
471
515
442
600
620
190
660
1025
-2299
-7293
-8312
-6848
-7057
-5851
-917
1718
-1350
-4774
-4634
-3573
-4178
-4488
-1718
2320
3575
2399
1880
2183
2081
1898
1957
1926
1868
1883
1833
1752
1702
1681
1711
1690
1647
1689
1595
1478
1658
1544
1181
1734
1819
-1310
-6136
-8361
-6261
-1738
1639
2292
1782
1420
1652
2237
207
-5089
-7323
-3003
1796
2236
1550
2305
1822
-1107
-3951
-4846
-3328
19
2488
2512
1941
2053
2120
2031
2127
2230
2257
2097
1597
1175
1275
1488
1238
1037
1370
1073
-230
-507
696
1275
856
738
904
837
743
753
698
570
680
894
517
332
1154
-173
-5491
-8730
-5122
22
1101
266
346
514
276
241
286
200
159
183
238
335
445
603
787
971
1290
1612
1481
848
133
-392
-658
-691
