# session 140
276
274
308
345
374
433
503
529
539
561
534
445
360
277
171
101
89
61
6
-19
-22
-37
-48
-37
-15
37
163
359
530
633
784
1061
1331
1371
1037
433
-89
-333
-434
-505
-523
-520
-536
-548
-553
-567
-595
-629
-661
-697
-743
-782
-811
-838
-847
-819
-748
-634
-480
-320
-183
-63
40
91
83
59
49
43
27
15
20
24
16
26
56
54
22
23
46
42
28
20
0
-10
6
5
-17
-4
62
135
159
127
85
59
46
57
66
35
18
32
-1
-7
93
177
326
669
739
215
-264
-225
-87
-134
-157
-122
-144
-168
-164
-184
-209
-203
-184
-166
-150
-134
-104
-61
-13
45
103
146
190
241
270
262
232
191
143
82
16
-30
-58
-81
-89
-85
-97
-112
-88
-31
32
115
237
425
651
798
910
1162
1376
1162
579
30
-306
-466
-500
-501
-526
-544
-544
-552
-571
-581
-584
-600
-630
-649
-655
-659
-631
-561
-487
-403
-265
-95
39
123
177
200
191
156
109
84
96
104
87
92
120
122
112
126
132
107
88
93
95
78
54
37
25
15
8
9
21
46
66
61
37
27
32
34
35
42
35
24
27
25
42
114
182
286
496
521
134
-228
-191
-54
-69
-85
-55
-65
-74
-55
-56
-66
-49
-21
0
24
39
39
64
127
173
192
227
268
291
310
317
288
245
214
178
134
97
64
41
37
32
21
33
78
134
173
219
362
583
729
828
1048
1197
912
315
-157
-364
-435
-467
-496
-522
-526
-525
-552
-580
-585
-598
-635
-660
-669
-700
-736
-727
-684
-624
-528
-402
-277
-159
-66
-23
-16
-22
-41
-71
-98
-112
-113
-101
-91
-89
-84
-66
-55
-69
-79
-61
-46
-61
-62
-21
0
-35
-51
-13
1
-21
16
108
163
169
165
147
128
134
146
129
96
99
122
98
107
228
336
480
790
819
245
-261
-193
-20
-63
-90
-47
-35
-25
-17
-31
-21
6
13
14
14
18
49
91
116
151
217
289
344
378
388
375
335
269
196
121
45
-9
-35
-57
-82
-97
-98
-79
-57
-62
-74
-38
31
60
25
-19
-42
-71
-87
-57
-48
-90
-87
-69
-121
-101
71
220
354
483
284
-197
-384
-216
-139
-210
-209
-155
-147
-157
-154
-143
-132
-131
-134
-115
-76
-51
-40
-10
45
98
147
198
244
260
230
171
109
40
-37
-94
-126
-145
-151
-150
-160
-164
-145
-121
-105
-93
-76
-43
0
9
-32
-75
-91
-107
-129
-140
-142
-132
-110
-123
-144
-77
21
115
350
544
273
-228
-359
-197
-151
-201
-189
-157
-155
-166
-169
-160
-147
-134
-120
-110
-78
-18
25
54
114
182
232
284
323
320
296
253
171
86
29
-17
-52
-59
-51
-57
-70
-53
-9
28
47
54
41
45
91
124
98
53
18
-12
-23
-17
-26
-36
-33
-57
-64
14
92
191
468
647
316
-191
-295
-139
-105
-138
-113
-103
-117
-108
-107
-121
-102
-61
-54
-57
-26
4
15
52
108
146
193
251
261
233
219
201
146
84
39
7
-17
-39
-54
-43
-37
-69
-87
-46
-4
10
49
126
255
444
571
629
821
1029
850
341
-73
-279
-387
-417
-400
-400
-403
-388
-380
-387
-399
-407
-418
-443
-469
-486
-501
-503
-470
-407
-322
-211
-85
35
127
177
192
179
139
95
72
62
44
24
14
21
32
26
6
-6
-4
2
2
-15
-35
-27
-9
-21
-31
4
40
33
30
62
94
89
49
4
-23
-35
-28
-18
-40
-63
-45
-52
-71
13
155
303
493
471
54
-306
-235
-57
-54
-82
-62
-59
-68
-75
-85
-72
-53
-58
-63
-41
-10
-1
0
44
122
182
230
288
318
326
345
326
247
176
127
65
13
-10
-37
-64
-72
-87
-107
-95
-68
-72
-102
-95
-28
24
-3
-45
-54
-88
-130
-100
-68
-119
-144
-92
-66
-36
71
175
306
484
386
-29
-211
0
148
81
29
38
26
5
-9
-34
-63
-83
-100
-111
-95
-59
-46
-45
-3
72
130
173
215
234
222
192
137
58
-18
-74
-116
-143
-149
-149
-162
-184
-195
-187
-173
-171
-187
-198
-176
-129
-100
-112
-143
-167
-178
-177
-160
-147
-147
-132
-128
-153
-110
11
112
256
386
174
-262
-394
-232
-161
-188
-162
-128
-131
-138
-121
-57
18
45
48
57
50
37
56
107
161
208
258
317
374
397
374
333
305
262
184
112
82
71
50
31
29
37
37
22
3
2
12
3
-21
-11
43
103
154
214
294
406
541
593
484
303
177
166
294
403
226
-130
-304
-283
-285
-310
-295
-288
-308
-325
-334
-335
-337
-351
-357
-346
-331
-319
-297
-266
-238
-220
-203
-177
-143
-110
-83
-57
-21
11
19
13
16
15
5
25
62
56
42
74
103
107
149
214
278
418
594
704
911
1307
1489
1152
564
68
-260
-427
-475
-489
-506
-517
-525
-535
-551
-571
-583
-599
-637
-676
-688
-685
-666
-609
-515
-397
-260
-111
30
135
181
180
164
136
101
80
77
64
43
41
51
39
14
11
17
12
2
-6
-11
0
17
25
23
18
21
38
50
53
65
75
73
81
98
102
107
140
187
220
247
287
336
365
352
313
280
277
302
312
296
305
327
292
264
323
399
493
589
416
-43
-317
-230
-122
-147
-177
-180
-190
-198
-200
-199
-195
-196
-193
-167
-123
-92
-86
-66
-7
53
88
129
195
236
207
164
160
140
61
-8
-39
-87
-127
-125
-132
-154
-141
-123
-127
-122
-122
-146
-155
-129
-116
-134
-137
-92
-36
-30
-82
-138
-162
-172
-177
-172
-178
-179
-170
-198
-190
-66
43
120
270
227
-174
-455
-341
-204
-219
-201
-148
-148
-155
-133
-110
-99
-94
-71
-38
-24
-11
31
83
134
199
277
346
397
416
399
368
325
242
131
37
-17
-45
-70
-97
-103
-92
-97
-112
-99
-79
-92
-114
-104
-81
-63
-25
29
56
42
3
-42
-75
-92
-98
-91
-90
-89
-62
-70
-107
-19
126
191
411
720
515
-93
-319
-142
-83
-144
-125
-103
-119
-111
-96
-98
-93
-79
-66
-44
-11
28
70
114
164
221
274
322
357
367
358
330
269
191
124
67
20
8
24
27
5
-8
8
25
15
5
16
9
-27
-24
29
54
42
46
30
-35
-81
-90
-121
-153
-139
-126
-132
-130
-158
-181
-105
-9
131
550
918
583
-127
-383
-256
-229
-276
-262
-260
-272
-252
-238
-234
-215
-190
-174
-153
-120
-92
-67
-28
19
51
84
128
157
160
154
135
89
32
-19
-65
-98
-106
-102
-105
-113
-119
-122
-116
-113
-121
-124
-115
-105
-77
-27
13
22
-5
-50
-67
-62
-85
-101
-67
-65
-102
-68
-35
-91
-64
76
186
404
672
482
-56
-245
-83
-30
-60
-21
-10
-25
11
34
18
18
30
37
51
65
80
104
124
146
196
260
304
329
349
357
330
264
182
110
62
22
-25
-60
-55
-38
-46
-58
-46
-29
-38
-63
-73
-57
-18
38
68
47
20
10
-19
-53
-65
-88
-116
-122
-130
-128
-115
-142
-144
-74
-4
209
613
656
116
-315
-274
-182
-219
-216
-209
-242
-227
-194
-216
-234
-202
-174
-176
-180
-174
-159
-120
-65
-16
30
74
108
136
151
142
118
84
30
-24
-50
-69
-90
-98
-101
-105
-103
-108
-107
-89
-78
-71
-47
-27
-5
58
119
111
61
16
-13
-17
-14
-31
-41
-19
4
3
-34
-54
20
118
165
269
343
111
-233
-280
-150
-129
-148
-124
-134
-155
-126
-85
-55
-17
19
46
72
96
117
146
189
244
300
345
383
413
419
395
352
294
227
159
102
59
32
16
9
8
5
-4
-11
-12
-13
-27
-37
-9
48
79
75
68
46
-4
-43
-57
-68
-72
-67
-83
-85
-38
-44
-99
-51
58
148
359
509
191
-293
-358
-180
-151
-186
-165
-164
-180
-178
-182
-179
-171
-175
-156
-115
-107
-117
-90
-41
2
49
108
159
183
184
178
157
109
55
7
-47
-93
-116
-136
-146
-124
-109
-126
-139
-141
-158
-168
-142
-99
-57
-26
-10
-12
-46
-109
-150
-151
-146
-143
-147
-151
-119
-94
-134
-107
42
175
354
578
424
-122
-395
-228
-101
-137
-136
-106
-106
-95
-89
-103
-78
-41
-60
-78
-30
18
35
67
113
163
238
302
317
327
343
311
232
154
84
5
-67
-93
-79
-66
-69
-66
-47
-29
-25
-13
28
64
60
55
84
118
117
81
33
-5
-17
-9
-6
-12
-2
5
-11
26
108
181
393
688
573
39
-258
-158
-84
-124
-119
-107
-132
-136
-129
-128
-111
-105
-124
-111
-69
-54
-50
-13
42
81
100
123
166
195
182
161
150
110
32
-25
-30
-21
-34
-46
-30
-8
-5
3
46
101
168
328
557
740
970
1325
1426
951
252
-185
-346
-409
-440
-459
-477
-492
-505
-512
-516
-541
-578
-605
-633
-664
-675
-672
-659
-603
-500
-390
-280
-155
-49
8
24
10
-17
-27
-27
-51
-77
-68
-54
-58
-54
-41
-42
-34
-19
-32
-49
-30
-5
-6
-24
-47
-47
-12
15
23
12
-51
-95
-37
18
-10
-17
29
65
102
138
126
96
106
130
129
127
158
170
132
169
326
477
703
1035
976
359
-97
-33
75
26
31
63
26
-9
-2
24
42
24
17
39
32
33
86
112
106
158
236
280
318
353
363
348
301
243
190
119
40
-3
-32
-76
-109
-109
-106
-131
-162
-142
-92
-99
-146
-136
-80
-59
-83
-119
-151
-165
-160
-162
-191
-207
-163
-142
-202
-193
-79
24
218
450
259
-280
-500
-349
-289
-339
-308
-269
-280
-273
-254
-251
-238
-213
-199
-187
-164
-135
-100
-52
1
59
125
178
193
187
188
171
105
19
-45
-85
-102
-101
-108
-117
-103
-86
-90
-87
-63
-47
-53
-60
-37
18
49
28
-1
-16
-53
-86
-60
-30
-50
-66
-73
-90
-43
57
170
430
678
451
-70
-240
-97
-68
-129
-114
-91
-102
-108
-122
-145
-151
-146
-141
-132
-122
-99
-46
11
51
105
185
253
288
300
286
247
200
151
97
48
16
2
-1
-8
-10
2
2
-25
-26
33
121
230
342
434
600
860
983
873
685
396
-42
-370
-448
-434
-377
-269
-246
-296
-238
-73
133
401
589
522
349
257
150
-26
-140
-149
-113
-43
52
136
187
211
215
192
136
76
34
-4
-40
-62
-79
-90
-84
-87
-106
-112
-110
-124
-135
-136
-151
-169
-165
-157
-167
-190
-222
-249
-235
-206
-211
-218
-181
-137
-126
-141
-171
-193
-197
-201
-220
-227
-200
-182
-215
-191
-43
101
250
441
323
-213
-546
-401
-253
-298
-299
-272
-317
-328
-287
-302
-336
-306
-254
-232
-228
-217
-185
-144
-105
-49
17
53
71
94
83
30
-32
-105
-199
-275
-331
-386
-417
-422
-439
-453
-436
-430
-457
-435
-305
-140
-19
102
257
371
424
520
670
766
777
750
689
618
586
557
530
594
711
836
1014
1050
759
486
522
633
649
630
509
316
257
302
292
273
307
324
296
258
240
265
302
329
392
464
499
552
588
497
348
242
118
-56
-208
-320
-412
-481
-535
-576
-606
-635
-646
-580
-457
-384
-381
-355
-283
-249
-287
-353
-402
-410
-403
-426
-461
-478
-483
-471
-465
-477
-430
-333
-242
-64
77
-165
-569
-603
-395
-349
-388
-338
-290
-312
-351
-374
-384
-390
-392
-377
-335
-281
-237
-178
-72
42
129
209
282
319
312
275
238
207
156
104
88
56
-33
-96
-90
-73
-81
-90
-90
-89
-83
-46
2
24
118
343
511
578
736
854
608
140
-208
-406
-515
-513
-458
-426
-403
-372
-333
-281
-231
-204
-200
-220
-257
-300
-320
-285
-230
-205
-153
-26
86
148
251
389
464
476
484
500
519
530
516
505
522
532
527
545
594
645
653
597
536
553
592
546
448
381
340
308
306
320
316
280
204
141
165
225
210
146
122
109
62
23
5
-17
-15
-12
-61
-49
75
154
272
545
538
37
-340
-254
-134
-179
-175
-117
-120
-144
-139
-128
-123
-115
-98
-74
-59
-62
-27
118
296
376
427
566
706
732
676
585
486
416
331
189
59
-11
-65
-114
-136
-169
-224
-253
-256
-279
-319
-353
-375
-367
-337
-349
-404
-459
-519
-578
-593
-592
-651
-728
-739
-755
-837
-817
-663
-580
-527
-448
-680
-1205
-1439
-1284
-1183
-1236
-1261
-1255
-1275
-1291
-1277
-1243
-1214
-1207
-1193
-1156
-1121
-1087
-1020
-921
-825
-756
-680
-551
-389
-270
-215
-192
-200
-233
-260
-290
-307
-247
-139
-86
-52
61
215
330
434
575
716
837
982
1171
1352
1476
1565
1625
1588
1475
1447
1530
1609
1684
1771
1811
1870
1993
2115
2413
2883
2892
2282
1842
1888
1940
1858
1850
1878
1874
1879
1827
1653
1405
1101
731
378
145
22
-85
-219
-341
-429
-506
-578
-642
-721
-819
-913
-1016
-1135
-1239
-1320
-1400
-1471
-1509
-1508
-1495
-1511
-1542
-1524
-1466
-1412
-1342
-1250
-1107
-834
-532
-358
-173
64
-34
-574
-1082
-1272
-1300
-1273
-1185
-1092
-1020
-945
-876
-820
-762
-720
-691
-637
-575
-538
-509
-480
-427
-294
-104
61
214
386
519
596
656
653
558
474
463
461
443
441
449
445
442
447
441
420
406
405
400
386
374
368
361
352
342
331
316
308
322
342
339
339
376
415
403
352
312
286
250
223
211
172
124
108
78
36
77
209
432
704
687
222
-192
-204
-125
-180
-231
-254
-320
-375
-405
-463
-545
-619
-676
-683
-618
-496
-337
-170
-26
99
226
331
384
410
449
503
552
537
401
223
147
156
101
-62
