# session 159
-375
-373
-353
-318
-261
-187
-58
193
480
711
1048
1457
1450
851
135
-287
-465
-555
-612
-653
-691
-717
-733
-764
-809
-838
-856
-902
-979
-1022
-960
-865
-866
-909
-859
-747
-631
-459
-189
169
551
784
818
891
1137
1366
1536
1894
2446
2837
2801
2339
1631
998
681
618
679
853
979
798
544
662
932
855
572
439
370
254
214
233
212
290
562
804
831
757
702
635
531
416
297
174
40
-102
-219
-289
-336
-388
-444
-487
-509
-526
-540
-546
-555
-572
-575
-559
-555
-570
-568
-542
-522
-524
-530
-520
-505
-500
-497
-480
-468
-473
-460
-435
-438
-445
-419
-402
-426
-433
-390
-361
-393
-431
-407
-361
-355
-361
-342
-326
-328
-314
-286
-267
-242
-194
-135
-50
69
177
254
317
333
259
150
86
85
115
120
78
26
1
-8
-16
-10
-5
-14
3
22
-3
29
158
255
406
660
585
53
-298
-193
-75
-116
-121
-93
-107
-109
-86
-83
-83
-67
-47
-29
-13
7
41
79
111
157
216
255
282
332
373
364
336
328
307
255
202
162
119
78
54
50
56
50
25
11
31
46
10
-37
-20
36
46
18
29
74
74
30
-5
-29
-48
-45
-38
-48
-52
-51
-65
-71
-71
-84
-56
27
105
218
310
124
-239
-337
-181
-118
-146
-116
-87
-92
-79
-72
-84
-72
-53
-57
-52
-26
-1
24
63
109
154
211
273
323
349
351
338
322
288
209
109
39
-4
-54
-84
-67
-53
-78
-96
-79
-68
-79
-98
-105
-83
-59
-70
-71
-21
14
-6
-30
-38
-49
-52
-61
-87
-93
-87
-107
-119
-120
-153
-144
-52
22
124
262
145
-229
-397
-260
-165
-182
-159
-121
-124
-127
-127
-139
-139
-128
-129
-131
-111
-85
-73
-52
-4
45
82
128
186
233
261
264
226
166
107
30
-52
-96
-113
-134
-141
-136
-138
-131
-101
-52
24
107
211
448
764
971
1169
1490
1562
1067
349
-129
-335
-413
-447
-484
-503
-483
-478
-502
-505
-499
-528
-553
-553
-577
-619
-617
-585
-543
-446
-302
-166
-30
121
219
233
224
207
150
96
88
81
56
47
47
36
41
57
55
46
53
63
59
59
77
80
55
40
50
61
72
78
58
39
54
73
66
63
76
70
41
28
22
6
12
22
-14
-30
41
111
106
70
46
33
25
16
16
29
30
39
53
16
10
141
287
438
698
707
183
-308
-295
-150
-178
-205
-177
-185
-201
-194
-191
-188
-180
-174
-159
-130
-105
-83
-49
-6
50
121
186
234
276
310
317
297
261
212
155
98
49
-1
-55
-96
-108
-108
-116
-125
-131
-129
-112
-98
-110
-122
-107
-99
-101
-81
-52
-37
-28
-45
-95
-119
-101
-93
-89
-52
-35
-63
-58
-32
-49
-26
66
151
294
427
220
-208
-340
-177
-95
-120
-112
-94
-100
-111
-114
-92
-66
-74
-90
-81
-66
-54
-17
29
53
87
162
239
285
318
339
324
276
226
170
82
-5
-31
-26
-48
-77
-74
-65
-74
-86
-75
-51
-52
-84
-94
-68
-57
-64
-33
17
21
-6
-11
-7
-17
-37
-61
-63
-33
-30
-50
-31
-35
-95
-66
40
83
191
365
222
-189
-342
-230
-208
-248
-232
-242
-239
-158
-129
-175
-167
-129
-140
-125
-61
-45
-69
-34
50
105
140
192
248
280
289
285
268
225
150
75
20
-29
-53
-31
-21
-51
-62
-48
-39
2
42
20
50
185
225
181
354
682
797
850
1235
1551
1132
307
-166
-286
-370
-399
-367
-382
-378
-318
-340
-440
-469
-440
-485
-563
-518
-409
-447
-580
-592
-496
-413
-311
-166
-37
74
166
203
225
260
283
357
533
712
877
1063
1058
669
129
-226
-355
-366
-351
-352
-341
-327
-368
-404
-375
-377
-446
-473
-465
-501
-536
-514
-460
-383
-284
-167
-10
160
260
282
277
260
244
245
228
164
106
107
127
110
93
107
111
96
105
119
108
101
105
97
90
97
93
79
78
77
63
53
59
56
44
48
61
49
31
43
51
22
14
45
41
0
-10
-1
-17
-25
-12
-23
-57
-72
-70
-78
-109
-145
-153
-139
-144
-158
-154
-160
-173
-150
-111
-105
-117
-122
-116
-91
-69
-75
-54
13
56
49
33
24
18
25
40
45
43
62
79
57
85
218
349
531
797
710
128
-263
-130
2
-79
-58
63
47
-31
-44
-68
-78
47
156
96
70
163
127
-30
-43
59
110
133
177
221
246
238
216
196
154
96
46
-5
-57
-99
-138
-178
-206
-210
-196
-193
-205
-204
-197
-203
-204
-182
-161
-159
-151
-104
-58
-69
-94
-92
-112
-158
-170
-146
-128
-132
-152
-140
-96
-115
-160
-86
52
161
294
276
-82
-410
-348
-179
-179
-193
-142
-121
-117
-85
-50
-28
-18
-17
-4
17
22
28
58
103
150
199
248
296
346
380
368
328
294
251
170
80
26
0
-19
-28
-32
-41
-48
-41
-34
-43
-49
-30
-1
7
2
25
77
101
68
29
25
26
2
-9
20
40
13
-10
-1
-15
-30
20
68
135
356
479
164
-262
-326
-201
-196
-229
-203
-186
-197
-202
-209
-217
-211
-191
-175
-160
-131
-99
-80
-50
13
76
122
173
225
252
261
260
229
163
91
24
-30
-60
-75
-86
-89
-88
-91
-78
-39
4
36
109
317
608
810
1008
1444
1823
1505
577
-167
-374
-376
-418
-437
-419
-435
-459
-452
-466
-521
-552
-550
-572
-609
-621
-630
-639
-607
-524
-417
-281
-119
28
130
207
252
223
141
88
60
16
-1
15
11
3
36
61
52
51
58
44
35
41
23
-11
-18
-11
-35
-63
-53
-39
-44
-32
-18
-38
-43
-8
-4
-38
-40
-6
-4
-41
-32
50
124
129
96
65
45
41
50
62
62
43
54
83
38
12
144
310
485
754
742
181
-318
-279
-113
-137
-155
-120
-135
-143
-114
-122
-148
-130
-108
-126
-134
-105
-80
-64
-30
20
70
129
196
254
291
295
266
220
173
124
72
23
-14
-41
-68
-86
-91
-94
-102
-101
-91
-94
-109
-104
-80
-72
-70
-25
65
160
219
273
413
602
701
806
1116
1405
1236
647
65
-267
-388
-407
-408
-420
-438
-455
-467
-470
-466
-471
-494
-520
-539
-580
-642
-677
-675
-675
-666
-601
-476
-317
-141
16
119
175
197
186
152
120
93
74
66
60
48
43
51
43
19
9
17
24
30
36
40
46
51
45
31
21
23
33
46
66
95
115
110
87
77
76
59
45
54
66
55
52
69
53
34
96
186
296
532
650
300
-182
-276
-143
-121
-151
-134
-129
-137
-127
-117
-118
-114
-104
-91
-71
-46
-32
-24
7
55
95
131
177
222
258
276
270
246
210
163
112
68
23
-14
-27
-22
-19
-5
21
42
83
151
219
363
620
812
902
1055
1101
728
153
-215
-362
-424
-435
-439
-465
-483
-492
-504
-516
-542
-570
-571
-582
-631
-661
-648
-636
-610
-521
-389
-250
-103
26
108
155
168
138
103
92
72
24
-8
4
24
20
10
10
18
32
42
46
59
82
101
110
105
96
105
118
108
97
100
92
80
79
69
50
43
24
-9
-15
-5
-22
-23
35
105
122
85
35
21
36
38
44
64
45
21
61
66
34
138
304
437
715
886
447
-183
-279
-89
-82
-117
-74
-94
-136
-120
-124
-157
-143
-112
-121
-132
-109
-83
-60
-21
27
83
148
200
245
303
323
277
226
193
126
37
-28
-86
-146
-173
-177
-188
-199
-199
-198
-192
-186
-179
-162
-146
-154
-161
-124
-63
-34
-46
-80
-117
-136
-131
-131
-138
-124
-116
-123
-102
-94
-117
-31
151
276
417
496
176
-311
-388
-181
-133
-184
-156
-132
-158
-164
-146
-137
-135
-117
-92
-80
-60
-18
11
28
87
179
250
315
384
421
422
399
339
251
161
75
3
-43
-58
-44
-27
-43
-66
-59
-51
-57
-51
-36
-35
-44
-49
-27
17
32
10
-9
-24
-44
-49
-41
-33
-24
-23
-9
13
-26
-43
78
205
307
559
679
283
-196
-234
-95
-106
-137
-105
-97
-103
-89
-73
-68
-71
-67
-51
-42
-36
-15
8
15
29
79
140
170
191
224
228
200
179
140
61
-1
-36
-81
-111
-100
-93
-104
-90
-61
-48
-20
20
63
210
467
664
816
1018
1006
573
46
-234
-338
-389
-395
-391
-401
-402
-395
-401
-418
-441
-472
-507
-536
-567
-594
-594
-578
-551
-477
-354
-233
-120
0
85
104
93
86
68
24
-20
-29
-30
-52
-52
-34
-60
-56
41
-3
-343
-731
-925
-961
-873
-642
-394
-249
-131
37
166
193
194
218
234
249
290
337
373
428
519
640
770
872
951
1044
1127
1124
1045
951
845
708
568
440
315
209
128
59
2
-35
-67
-95
-116
-130
-131
-126
-140
-150
-123
-97
-81
-15
78
137
230
367
470
644
948
1036
649
88
-261
-391
-429
-433
-444
-467
-463
-447
-471
-520
-553
-584
-639
-697
-742
-780
-813
-828
-804
-740
-657
-556
-431
-303
-183
-74
-9
11
36
56
48
59
99
113
98
83
48
3
-14
-21
-25
-12
-15
-40
-39
-27
-24
-11
-19
-19
100
251
313
338
221
-131
-348
-196
-20
-33
-61
-39
-31
-26
-20
-27
-25
-8
6
28
59
78
99
148
208
270
349
438
504
537
541
509
433
330
216
103
11
-36
-45
-40
-42
-61
-79
-72
-52
-44
-36
-23
-28
-28
21
76
62
15
10
33
69
144
231
328
485
612
636
801
1226
1442
1056
379
-100
-299
-354
-357
-374
-406
-404
-391
-423
-463
-465
-465
-485
-508
-537
-567
-601
-639
-642
-605
-573
-521
-393
-236
-127
-46
46
115
127
110
103
100
91
76
59
53
59
53
46
47
32
19
34
28
-14
-19
0
-35
-63
-3
72
78
48
24
-1
-27
-35
-22
-17
-49
-70
-22
4
-56
-58
37
138
379
688
534
-57
-361
-232
-142
-181
-164
-131
-137
-130
-107
-94
-85
-79
-71
-57
-47
-35
-10
16
50
107
165
202
230
259
280
289
265
201
141
101
51
-4
-36
-60
-74
-60
-51
-61
-51
-24
-3
40
113
217
410
654
840
1010
1134
949
466
52
-153
-279
-348
-347
-367
-417
-420
-398
-422
-470
-492
-503
-521
-527
-520
-525
-534
-494
-388
-263
-147
-17
113
200
241
240
195
140
109
86
59
48
50
47
44
48
48
48
65
89
111
182
337
526
716
929
1087
1014
715
433
333
284
103
-144
-285
-317
-324
-316
-294
-307
-330
-305
-274
-298
-352
-405
-473
-542
-565
-553
-559
-572
-524
-422
-336
-273
-194
-111
-47
13
69
101
110
112
115
118
123
126
114
83
50
31
23
17
6
-4
0
12
9
-6
-9
0
6
1
-3
5
20
28
31
38
41
35
36
45
48
42
36
32
31
24
-4
-41
-61
-68
-70
-54
-34
-35
-23
36
95
102
74
60
58
46
42
61
63
46
70
84
47
108
290
432
581
705
454
-47
-194
5
87
49
78
98
78
88
98
93
119
153
162
173
189
190
196
220
242
260
284
304
304
284
244
192
125
46
-34
-135
-267
-368
-403
-437
-492
-522
-530
-537
-517
-485
-487
-490
-432
-357
-315
-245
-85
113
311
536
725
822
989
1279
1301
786
113
-246
-332
-367
-388
-390
-393
-378
-359
-370
-386
-392
-411
-442
-467
-498
-534
-566
-601
-619
-580
-489
-374
-236
-78
66
159
194
191
164
117
67
37
21
8
-2
-11
-16
-7
2
4
7
8
6
8
12
9
9
19
29
23
6
5
22
11
-27
-8
87
147
118
70
56
52
42
41
55
51
26
50
93
38
4
155
325
474
769
838
311
-213
-195
-45
-82
-96
-53
-71
-84
-62
-57
-51
-33
-26
-11
21
40
36
46
93
151
192
235
288
334
372
391
378
355
315
232
148
106
55
-18
-45
-34
-52
-74
-69
-72
-81
-56
-20
-20
-31
-8
31
37
7
-21
-27
-37
-60
-64
-40
-39
-55
-35
-31
-61
-4
114
204
396
589
374
-104
-268
-131
-76
-108
-96
-69
-54
-47
-63
-59
-17
-12
-53
-52
-23
-67
-154
-184
-161
-143
-137
-139
-141
-126
-114
-125
-143
-162
-202
-252
-280
-281
-261
-239
-240
-257
-240
-195
-192
-228
-222
-166
-129
-130
-115
-61
-10
-2
-30
-51
-41
-27
-37
-36
-4
6
-13
-11
-17
-41
11
116
193
289
292
14
-281
-262
-116
-90
-99
-82
-87
-86
-67
-64
-64
-52
-42
-33
-26
-24
0
44
72
102
165
227
263
301
349
375
368
341
298
229
153
103
71
39
27
38
32
9
10
20
13
22
63
83
72
83
122
132
107
79
59
43
31
33
44
40
20
23
22
-8
14
97
180
347
513
321
-114
-256
-103
-50
-105
-102
-89
-97
-79
-67
-82
-85
-75
-78
-83
-80
-77
-80
-80
-57
-18
11
53
131
197
213
209
189
144
87
15
-64
-110
-126
-134
-140
-157
-168
-148
-128
-103
-9
114
258
525
822
1028
1332
1686
1547
797
25
-370
-510
-570
-600
-614
-618
-620
-629
-643
-655
-661
-669
-697
-733
-754
-762
-773
-761
-692
-584
-467
-322
-153
-5
102
165
176
168
160
126
84
72
70
67
83
97
83
78
106
127
117
107
119
139
155
154
131
123
146
155
129
117
128
109
70
77
94
33
-32
20
118
134
98
74
45
26
53
79
64
58
91
114
78
56
162
313
417
583
660
318
-151
-208
-24
2
-45
-14
19
8
