# session 86
-51
-8
5
9
24
48
72
70
33
1
-11
-23
-23
-20
-37
-10
37
7
25
188
305
399
588
489
-24
-317
-170
-67
-112
-65
-1
-31
-37
9
23
21
53
107
147
159
167
195
245
308
371
413
450
496
495
410
306
235
161
55
-42
-75
-58
-59
-87
-100
-100
-86
-38
9
63
191
374
572
775
910
1029
1342
1682
1531
843
137
-246
-395
-457
-466
-453
-471
-508
-526
-532
-543
-563
-609
-670
-713
-754
-796
-804
-782
-749
-676
-546
-386
-221
-93
-25
10
29
17
-6
-30
-71
-89
-56
-28
-47
-81
-97
-85
-65
-72
-90
-74
-42
-45
-79
-94
-70
-47
-57
-62
-17
47
74
64
50
41
24
20
35
26
16
47
49
35
116
214
321
578
670
224
-273
-274
-100
-106
-134
-110
-134
-154
-116
-95
-113
-112
-80
-54
-41
-30
-11
20
61
113
174
219
241
260
267
250
222
173
99
45
15
-28
-70
-82
-74
-71
-77
-59
5
43
30
69
192
292
366
512
692
830
1010
1212
1147
718
223
-83
-227
-291
-306
-314
-344
-366
-372
-393
-424
-439
-455
-493
-525
-534
-539
-541
-518
-465
-375
-256
-131
-16
78
133
143
121
87
65
49
22
1
7
13
9
12
18
9
0
2
-1
-15
-37
-56
-53
-29
-10
-12
-12
30
87
89
48
28
24
12
13
18
2
4
27
6
-2
89
186
285
476
485
78
-300
-252
-83
-80
-110
-89
-78
-72
-69
-76
-70
-61
-74
-79
-66
-58
-42
-2
45
96
169
247
303
338
355
339
286
209
119
29
-34
-70
-91
-95
-102
-137
-159
-123
-69
-43
-15
75
231
381
500
645
801
943
1174
1400
1206
543
-63
-309
-392
-454
-456
-446
-481
-513
-521
-544
-578
-609
-657
-721
-767
-793
-835
-888
-892
-823
-704
-559
-396
-218
-62
20
59
90
74
31
21
14
-15
-15
5
-2
-4
32
55
46
50
76
79
63
63
79
99
99
71
77
165
242
229
191
177
147
124
147
149
110
118
132
86
123
267
370
569
863
700
70
-249
-97
0
-56
-58
-33
-25
-1
4
-19
-19
3
24
40
48
63
103
139
161
205
268
303
320
333
311
263
224
162
54
-34
-64
-90
-131
-156
-176
-196
-177
-150
-155
-133
-69
-29
-14
-4
-32
-82
-104
-102
-97
-112
-143
-137
-137
-187
-146
-7
82
300
673
589
-42
-412
-275
-169
-233
-224
-168
-173
-187
-167
-147
-145
-136
-111
-89
-71
-41
-4
34
79
118
149
189
232
236
191
128
66
-13
-102
-158
-174
-186
-199
-202
-208
-222
-209
-176
-168
-176
-156
-112
-79
-60
-50
-50
-26
33
104
202
345
450
527
749
1063
1108
733
213
-148
-296
-328
-329
-332
-339
-346
-352
-363
-379
-403
-431
-453
-474
-506
-529
-524
-506
-472
-398
-283
-151
-28
70
147
199
211
195
173
150
129
115
104
95
93
92
78
57
48
61
87
97
94
117
164
184
158
125
109
94
77
85
95
79
83
94
66
99
212
285
444
708
596
54
-247
-130
-38
-60
-35
-23
-45
-25
-11
-33
-29
5
20
10
13
45
82
110
149
194
243
322
386
378
344
311
218
78
-12
-55
-118
-173
-175
-179
-209
-216
-194
-174
-153
-122
-51
92
233
332
486
679
771
865
1113
1229
868
243
-207
-396
-459
-471
-492
-535
-539
-516
-539
-588
-612
-632
-664
-704
-771
-848
-880
-869
-842
-788
-686
-533
-344
-169
-48
23
56
73
76
36
-16
-21
-10
-31
-45
-27
-7
-1
-7
-12
11
28
0
-21
6
30
30
22
9
29
111
170
138
90
89
83
66
80
100
111
123
84
56
183
346
461
737
943
548
-78
-193
5
23
-33
-3
7
-11
-2
5
5
12
10
6
14
31
62
108
152
195
252
314
363
403
412
371
309
245
163
75
7
-38
-51
-44
-65
-103
-106
-77
-46
-19
9
72
196
306
379
525
735
901
1105
1418
1553
1241
634
57
-318
-484
-532
-561
-583
-580
-568
-573
-599
-630
-664
-710
-762
-799
-821
-854
-886
-866
-777
-650
-508
-356
-210
-98
-35
-7
8
6
-14
-21
-10
-11
-18
-9
2
-2
-8
-6
-1
6
11
-1
-25
-33
-18
-10
-15
-3
30
62
71
47
17
5
-8
-13
13
18
-9
-11
-8
-4
65
167
310
525
504
55
-333
-283
-118
-111
-129
-104
-96
-89
-77
-68
-37
-4
0
18
72
98
99
145
213
247
295
372
401
387
387
375
314
236
164
92
31
-2
-8
-4
0
3
14
43
86
107
120
199
320
417
534
671
753
876
1064
1018
615
160
-108
-241
-307
-332
-356
-380
-394
-416
-446
-471
-497
-525
-557
-601
-645
-669
-684
-693
-662
-574
-447
-299
-148
-27
55
102
107
78
55
47
27
5
10
28
25
14
15
23
31
31
21
14
16
-3
-32
-29
-16
-35
-60
-48
7
68
78
46
26
18
4
19
45
34
31
33
-29
-25
140
264
373
647
678
131
-368
-319
-143
-166
-186
-144
-143
-137
-109
-119
-132
-95
-49
-38
-36
-12
22
74
160
238
279
337
414
437
399
353
290
184
71
-1
-41
-88
-134
-141
-126
-124
-122
-93
-64
-22
94
263
419
582
753
893
1102
1402
1477
1071
414
-113
-397
-512
-538
-546
-558
-552
-552
-591
-625
-630
-659
-720
-767
-795
-824
-855
-869
-828
-730
-619
-486
-297
-108
7
56
67
56
47
45
43
47
56
58
60
78
93
86
76
85
97
95
93
86
63
42
44
53
42
21
40
109
167
164
129
117
117
100
97
118
129
134
117
85
151
291
413
702
1046
827
139
-165
1
69
-3
0
6
-25
-27
-17
-14
-16
-32
-20
20
22
9
35
70
112
179
218
215
233
260
232
186
163
106
-3
-88
-126
-148
-162
-172
-194
-209
-198
-171
-152
-161
-164
-120
-76
-104
-155
-158
-148
-159
-150
-131
-129
-113
-102
-114
-59
51
139
303
447
218
-220
-344
-206
-163
-190
-168
-151
-157
-153
-145
-132
-118
-119
-111
-85
-62
-45
-16
28
79
128
166
191
208
215
193
126
35
-45
-99
-129
-154
-173
-176
-176
-189
-190
-160
-127
-118
-111
-73
-13
26
34
35
42
74
142
205
263
377
499
570
738
1066
1212
881
303
-115
-274
-297
-292
-301
-307
-293
-291
-315
-336
-347
-365
-390
-417
-445
-467
-475
-469
-443
-385
-303
-207
-103
-3
69
111
136
138
115
87
74
70
61
48
45
44
34
26
38
60
74
74
83
119
156
153
118
96
90
74
60
72
68
50
66
69
52
118
222
324
567
728
374
-170
-275
-102
-74
-114
-85
-81
-112
-104
-72
-59
-60
-60
-54
-41
-21
4
38
95
152
183
230
313
366
355
308
223
120
47
-13
-102
-173
-169
-139
-153
-193
-201
-178
-153
-131
-91
-9
118
243
335
452
626
772
895
1140
1370
1157
489
-98
-315
-400
-506
-516
-449
-466
-543
-548
-509
-541
-630
-675
-680
-717
-771
-812
-863
-871
-786
-675
-568
-409
-230
-117
-52
25
67
23
-25
-11
-6
-35
-23
12
7
-10
-7
-4
7
31
40
31
21
15
17
24
14
14
74
156
176
149
133
127
113
116
129
117
122
145
101
91
242
396
553
883
970
406
-189
-206
-31
-51
-91
-63
-55
-49
-28
-25
-17
11
25
24
40
76
111
147
188
226
275
338
379
378
362
337
285
208
126
46
-21
-57
-61
-67
-99
-129
-122
-85
-50
-39
-18
87
226
301
396
598
795
968
1255
1498
1340
793
198
-218
-441
-524
-536
-542
-562
-592
-618
-642
-674
-711
-737
-762
-800
-824
-813
-793
-762
-679
-533
-365
-220
-104
-8
50
63
53
29
-8
-33
-31
-24
-28
-38
-45
-52
-56
-50
-36
-37
-55
-67
-78
-89
-90
-84
-72
-47
-19
4
23
24
7
-14
-36
-40
-15
-10
-29
-5
11
-41
-28
104
224
350
456
259
-159
-312
-157
-61
-79
-59
-22
-15
-4
4
-6
10
45
51
53
84
112
140
187
223
260
343
422
434
413
393
365
325
265
182
113
81
60
36
28
34
35
41
74
108
121
165
258
342
437
584
695
790
997
1129
883
398
13
-200
-305
-332
-339
-363
-383
-399
-428
-459
-486
-519
-559
-598
-624
-651
-683
-692
-652
-580
-488
-357
-210
-88
6
78
104
83
51
22
0
-9
-14
-18
-15
-7
-1
6
10
-1
-23
-40
-36
-32
-55
-72
-53
-44
-64
-62
-27
17
62
74
31
-6
-14
-27
-30
-29
-42
-36
-48
-80
22
202
304
496
681
357
-226
-341
-127
-93
-140
-101
-87
-99
-88
-94
-89
-58
-58
-71
-43
-5
10
28
80
173
272
330
350
377
406
385
303
203
103
8
-53
-79
-99
-123
-150
-174
-168
-128
-90
-76
-34
94
268
429
593
749
890
1129
1444
1469
986
306
-173
-394
-469
-475
-489
-528
-522
-483
-508
-576
-599
-604
-649
-700
-731
-775
-826
-833
-773
-657
-507
-339
-159
12
128
179
190
172
133
108
107
90
58
57
79
95
106
96
66
62
68
49
44
55
30
5
37
72
57
50
102
163
178
150
114
101
109
112
101
88
96
110
86
81
164
258
411
715
777
275
-236
-235
-72
-91
-115
-63
-56
-81
-71
-47
-38
-43
-54
-60
-52
-33
-14
11
59
115
154
189
233
256
242
211
168
94
-3
-75
-105
-128
-167
-205
-215
-209
-205
-185
-135
-102
-101
-74
-18
7
-14
-43
-58
-63
-56
-43
-44
-49
-36
-40
-50
13
111
177
227
152
-138
-364
-291
-145
-131
-148
-129
-119
-119
-109
-100
-92
-80
-65
-47
-29
-21
-7
42
113
158
190
242
290
291
249
175
82
-9
-89
-153
-183
-180
-175
-178
-175
-159
-137
-110
-85
-73
-55
-8
43
67
71
81
129
221
324
442
582
684
824
1171
1476
1229
516
-54
-248
-284
-298
-294
-299
-316
-338
-368
-385
-394
-437
-501
-554
-605
-650
-682
-726
-761
-724
-618
-481
-321
-163
-39
69
155
171
132
108
102
78
55
49
59
81
87
61
47
70
93
91
74
68
107
177
203
175
147
120
80
76
101
78
51
91
82
19
104
268
363
568
713
312
-266
-305
-73
-89
-162
-96
-69
-111
-103
-84
-101
-105
-96
-105
-95
-52
-27
-13
40
127
208
270
308
321
312
273
189
82
-14
-90
-143
-167
-175
-182
-187
-190
-179
-134
-85
-53
24
165
310
479
692
865
1046
1373
1673
1575
1022
316
-224
-472
-513
-509
-529
-555
-574
-594
-612
-634
-673
-723
-763
-797
-837
-877
-901
-884
-803
-659
-486
-313
-147
2
112
154
126
83
91
114
89
52
57
75
75
74
94
121
128
104
90
101
90
52
48
85
94
57
34
73
139
161
134
103
70
28
27
68
70
49
62
47
19
106
231
347
598
713
290
-226
-243
-53
-58
-86
-32
-44
-90
-70
-42
-55
-60
-42
-32
-30
-16
8
33
67
119
168
199
223
245
243
206
165
131
69
-11
-51
-58
-81
-103
-104
-116
-129
-107
-76
-71
-75
-57
-7
30
6
-39
-50
-53
-64
-68
-71
-62
-32
-43
-82
-41
54
172
391
492
173
-241
-292
-161
-140
-134
-89
-93
-110
-83
-61
-55
-43
-29
-17
6
37
67
97
130
173
220
255
282
292
265
208
140
58
-22
-71
-98
-122
-137
-145
-160
-168
-154
-136
-134
-136
-120
-79
-32
-15
-19
9
70
133
240
388
485
580
816
1041
919
455
-17
-283
-377
-400
-400
-389
-378
-385
-413
-442
-462
-491
-530
-565
-605
-659
-706
-722
-705
-659
-574
-438
-272
-124
4
126
210
222
197
173
143
108
91
94
96
94
86
67
50
43
42
43
40
24
23
62
123
159
148
100
63
73
101
95
62
79
136
110
72
201
374
480
702
827
407
-168
-234
-39
-37
-75
-10
0
-56
-73
-61
-23
23
-4
-53
-14
51
63
85
146
204
276
363
394
376
371
344
251
134
37
-34
-79
-96
-102
-116
-129
-122
-107
-87
-55
-42
-7
131
325
488
621
744
941
1271
1461
1177
569
31
-309
-499
-540
-503
-505
-540
-547
-541
-561
-599
-625
-641
-686
-750
-781
-805
-860
-862
-752
-619
-522
-370
-139
20
37
41
100
102
29
3
34
23
-23
-12
50
57
3
0
57
66
35
42
52
17
-9
2
16
10
-19
-19
71
157
129
72
56
26
15
61
66
39
63
44
-4
135
364
481
595
592
200
-216
-197
-23
-23
-53
-17
-11
-25
-7
20
28
29
39
48
51
69
110
142
172
232
298
333
353
369
347
276
193
110
20
-51
-92
-135
-179
-193
-194
-201
-183
-147
-137
-141
-121
-87
-49
-17
-41
-112
-149
-147
-152
-145
-131
-150
-158
-149
-152
-69
97
232
444
635
358
-206
-378
-210
-182
-262
-242
-197
-207
-229
-229
-201
-167
-148
-128
-99
-82
-54
3
54
92
147
209
257
281
265
215
155
83
-4
-65
-86
-93
-87
-78
-91
-105
-96
-76
-55
-43
-43
-8
73
128
129
135
172
214
283
419
556
632
797
1158
1400
1129
484
-57
-293
-358
-379
-382
-382
-387
-394
-411
-437
-452
-458
-479
-517
-551
-581
-604
-595
-553
-494
-406
-279
-124
25
132
188
209
207
187
161
147
146
137
127
132
134
126
145
180
180
153
139
140
136
122
112
119
