# session 218
-763
4724
6557
6366
6359
6020
6395
7604
4702
-1586
-1880
4183
6941
5124
4539
5307
5151
4905
4985
4756
4587
4568
4246
4062
4222
3856
3158
3200
3322
2972
3329
3180
-17
-3777
-4504
-4136
-4923
-5501
-5515
-5510
-4235
-1800
9
1904
4823
5407
1531
-1424
1064
4431
4183
3135
3475
3476
3111
3307
3201
2929
3214
2850
2287
3258
2628
-1596
-2971
1028
3151
2021
2647
1916
-3462
-5590
-721
2778
1983
2282
1950
-3449
-8313
-7635
-6857
-8253
-6175
-1551
-715
-2722
-3869
-3925
-1818
1951
3294
2186
1975
2424
2159
1937
2075
2068
2009
2023
1973
1895
1836
1814
1854
1829
1729
1764
1846
1766
1770
1865
1687
1629
1804
1372
1195
2058
575
-4662
-8338
-8037
-7530
-7502
-6688
-7227
-7748
-3671
672
-2284
-6831
-3449
1920
153
-2164
1937
5282
4035
4164
4683
866
-2246
-112
2469
2404
1886
1963
2528
1996
-1888
-5427
-3362
1213
3050
1990
-1467
-5232
-4210
517
2562
1917
1969
1934
1905
2959
1690
-3163
-7070
-7864
-5930
-1430
1753
275
-2848
-4246
-3256
255
3692
3894
2555
2832
3676
1588
-3698
-7190
-4638
1000
3954
3727
3331
3497
3456
3423
3476
3315
3249
3220
2939
3015
3122
2451
2728
3633
412
-5553
-7198
-6072
-6274
-3116
1969
-963
-6650
-2600
4053
2454
-489
659
172
-1148
1458
4205
3722
2816
2938
3438
3177
159
-4589
-7217
-5820
-1344
3010
4408
3780
3269
3512
4027
2946
-328
-3658
-5325
-3659
810
1466
-3940
-7345
-5749
-5188
-6164
-4291
-1417
-1875
-3910
-2842
1375
4595
4862
3926
3660
4341
3693
-1162
-6432
-4558
2037
4550
3840
4695
3444
-1038
-1105
3724
5654
4070
3397
3504
3273
3304
3201
3020
3179
2703
2432
3467
2156
-3027
-6890
-7369
-6811
-4516
-871
268
-1478
-3810
-5045
-2927
1688
4308
3843
2862
3129
4019
2293
-2817
-6741
-7294
-6254
-3273
1461
4478
3576
-414
-3983
-4289
-4577
-6977
-5253
1616
3042
-3888
-8105
-4449
-346
-399
-1552
-2637
-4170
-3038
1433
4479
4336
3476
3354
4259
3792
-1435
-6532
-3370
3729
3810
-2491
-5201
-1146
3423
4124
3265
3342
3492
3119
3032
3085
2752
2705
2943
2439
2250
3166
1757
-3340
-7408
-8070
-7568
-6037
-3113
-1338
-723
1670
3678
846
-2855
-999
2904
3111
1917
2232
2535
2229
2192
2287
2254
2116
2045
2122
1868
1727
2124
1557
1039
2616
1393
-4434
-5106
15
-1357
-6658
-3401
2603
-77
-5130
-3372
928
1800
1028
1132
1368
1259
1335
1567
1662
1583
1547
1652
1524
1397
1738
1514
961
2009
1782
-3369
-7391
-3989
1069
1619
865
1865
2601
289
-5522
-9409
-5743
-391
-940
-1961
1205
1339
-4013
-6641
-3622
-13
2396
4117
1619
-4599
-5582
430
4093
2915
2506
3138
2870
2955
2772
2236
3365
2864
-1385
-2311
1589
1758
-2101
-2796
-1580
-3288
-4849
-1743
2601
3032
2058
3046
1529
-4323
-6345
-1165
3396
3324
2716
3159
3069
2875
2967
2820
2948
3043
2555
3034
3564
289
-5156
-7506
-6754
-4803
-1125
2524
3237
2501
2928
3164
-33
-5947
-8279
-4319
-990
-2132
-1955
446
-826
-4452
-4731
-1796
1602
3818
3119
-732
-5234
-6617
-3198
1769
4294
4523
3292
118
-3652
-5118
-2555
1328
289
-4261
-2688
3964
3970
-2718
-6374
-6128
-5436
-2884
366
16
-2873
-3796
-1147
2759
4484
3935
3692
4144
4204
4135
4270
4319
4374
4485
4396
4188
4111
4048
3841
3762
3876
3691
3387
3427
3131
2675
3238
2699
-1783
-6962
-7767
-5512
-4656
-5554
-6359
-7488
-8106
-5565
-2663
-2955
-1741
2900
3100
-2921
-6335
-3235
1420
3741
4194
3823
3514
3911
2904
-1453
-6308
-8167
-6392
-1471
3174
3767
2871
3349
2915
2430
3848
2045
-3136
-2705
2003
1531
-2198
-3131
-3033
-3316
-2137
208
2352
3382
3035
2598
2777
2840
2754
2898
3005
2986
3033
3066
3027
3034
3076
3045
2995
3003
2947
2932
3156
3082
2585
2760
2979
431
-4810
-8449
-8125
-7581
-9504
-8274
-1849
-521
-5615
-3032
5323
2530
-5975
-3611
2269
677
573
4415
252
-8559
-6821
2250
2779
-5491
-8449
-1789
4676
5130
4058
4514
4316
3828
4654
2203
-5920
-9798
-3913
286
-2324
-1877
753
-2757
-5087
474
4816
4207
3858
1511
-4931
-8696
-6147
-760
3881
5057
1616
-3631
-6190
-3842
1226
4644
4986
3905
3545
4708
3896
-1057
-3406
700
3994
3491
3492
3093
1397
999
-1376
-6510
-6561
-1983
-765
-2371
-3359
-4550
-5490
-5397
-3896
856
5022
1177
-6365
-6131
799
4739
4662
4492
4192
4594
5305
854
-5779
-3892
3242
5074
4489
4852
148
-6811
-8093
-7631
-7853
-3092
2911
2528
-968
-2953
-2781
731
4567
4518
3301
3677
3967
3810
3894
4100
4563
4383
3923
5163
4605
-1115
-4505
-230
3847
2827
1867
2661
2388
1932
2434
1869
404
672
1908
1654
1277
1970
317
-4804
-8643
-8176
-4724
-174
2846
1615
-3653
-9348
-9589
-3479
11
-3050
-3838
-656
-2145
-5757
-2321
3867
4369
2747
4181
3743
-2375
-6601
-2094
4707
4233
-966
-1799
2163
4382
3364
2655
3353
3406
2419
2950
3925
-66
-6213
-4954
1886
4333
2294
2118
3561
2037
-2929
-7406
-8665
-7708
-7065
-7845
-7590
-3507
1234
1271
-2632
-5476
-4033
713
4297
4420
3743
4061
4022
3453
3446
3666
3481
3332
3380
3149
2942
3150
2909
2476
3239
2692
-2240
-6856
-5074
575
4341
3530
-1883
-7114
-7248
-5016
-3354
-1270
-2160
-6829
-6550
-821
-24
-4765
-7944
-7605
-3588
708
-1578
-5937
-2306
4728
5986
4798
5267
3740
1721
4394
5986
377
-3494
1196
5789
4919
4081
4832
4582
4351
4194
2973
2970
3401
-708
-6850
-7139
-1510
3819
4310
-1025
-7564
-9336
-7961
-7696
-6098
408
6623
3731
-4308
-4151
2668
3686
239
-1403
-4351
-6340
-1094
4932
4711
3129
3605
3505
2873
3002
2976
2620
2578
2550
2336
2220
2193
2095
1918
1815
1870
1768
1516
1581
1511
966
1089
1385
-440
-2651
-1204
1695
1034
-241
2122
1020
-7663
-10637
-2472
949
-4424
-5086
-2519
-5404
-6088
-85
2919
1079
893
1826
1346
1148
1587
1379
1091
1343
1319
1016
1340
1427
720
1384
1979
-2267
-7314
-4979
993
2463
1010
540
116
-262
860
1688
137
-825
1303
1213
-4342
-7944
-6172
-5892
-7400
-4066
1595
2675
770
485
1427
1740
1591
1587
1672
1637
1528
1504
1491
1427
1460
1537
1616
1894
2095
1803
1265
718
326
411
660
910
1207
644
286
1722
245
-6633
-9427
-3761
-688
-5277
-8197
-4513
388
2218
1981
1775
2035
2150
2013
1939
1902
1787
1654
1557
1492
1424
1331
1197
1095
1138
1129
953
980
1034
741
840
1132
504
644
1899
-323
-5440
-6703
-5217
-6116
-5745
-905
2525
1221
-713
-752
-12
909
1775
2020
2007
2199
1990
1280
1093
1393
1226
1107
1456
1034
681
1873
869
-4314
-6638
-2285
1836
1331
435
1596
1619
-95
250
1661
-694
-3946
-3068
-2610
-5962
-6635
-1950
1943
2187
1655
1714
1704
1667
1743
1705
1630
1628
1621
1638
1690
1695
1746
1967
2254
2487
2758
3039
2798
1846
1127
992
550
437
1194
-892
-6867
-8461
-1891
2418
-1265
-3934
-1940
-1852
-3007
-892
1457
1579
-26
-4788
-8073
-3336
1937
-821
-3755
-44
3374
2532
1881
2481
2330
2068
2281
2171
1930
2079
2111
1829
1924
2000
1408
1813
2399
-1945
-8470
-7312
-1008
260
-1035
107
-1169
-4602
-3135
1824
4048
1979
-1942
-2707
1058
3733
2931
2332
2825
2748
2472
2530
2557
2426
2301
2468
2310
1720
2609
3207
-940
-5383
-3073
173
-3152
-7880
-7978
-6117
-6080
-6742
-4356
8
470
-1751
269
4613
3861
-1177
-3475
-428
3664
3878
123
-4707
-7542
-5399
200
1970
-2215
-4815
-1313
3356
4556
3764
3511
3739
3527
3189
3400
3266
2611
3287
3266
-1653
-6995
-5488
-885
160
218
3132
4747
-307
-6916
-4710
2760
2363
-3990
-4764
-1826
-2927
-5264
-3294
1144
3763
3987
3623
3354
2873
2564
2663
2657
2495
2446
2353
2206
2188
2120
1997
2017
1865
1668
1919
1700
1030
1878
2220
-1866
-7173
-8898
-8256
-5549
-403
1940
359
933
2636
339
-2665
-2874
-3035
-3989
-4754
-5202
-3099
1209
3005
2100
2060
2619
2392
2302
2521
2328
2063
1999
1866
1801
1814
1645
1638
1784
1541
1538
1826
1112
1121
2824
283
-7071
-8763
-4201
-4429
-8007
-5440
889
3953
1926
-4182
-7932
-3524
3063
4180
1189
-3029
-6534
-5409
-151
3327
3220
2723
2987
2958
2725
2704
2621
2452
2393
2317
2108
1934
1885
1771
1596
1573
1470
1240
1403
1403
856
1495
1927
-2429
-7234
-3284
3472
1031
-4314
-2008
2053
2658
3296
418
-6232
-4694
2795
821
-6587
-6437
-4002
-6131
-5631
79
3457
2581
1696
2141
2632
1891
215
135
1992
2871
2285
2131
2343
2145
1994
2013
1911
1864
1826
1694
1818
1863
1480
1862
2057
-2189
-8860
-8813
-2363
-448
-5112
-8943
-9215
-5664
1008
3237
-1814
-5393
-4745
-5059
-4373
-359
1571
841
2195
4018
3444
2849
3270
3156
2815
2879
2831
2686
2666
2588
2520
2471
2337
2376
2496
2403
2619
2986
2339
1586
2089
927
-4733
-9907
-7486
-447
2464
1767
2828
1745
-4040
-4762
1631
2869
-2102
-2843
-1253
-4257
-6527
-3110
1186
3465
3599
-421
-4470
-1855
3109
3489
2067
2404
2636
2140
2130
2240
2097
2114
2183
2027
1844
1869
1864
1692
1831
1923
1285
1345
2191
100
-5152
-8682
-8793
-7755
-7676
-8882
-7469
-1837
244
-3936
-4537
121
-326
-5264
-3961
2041
2744
-509
11
2956
3356
2513
2714
2874
2564
2507
2505
2393
2388
2353
2261
2266
2236
2143
2160
2160
2070
2105
2065
1805
1822
1869
1505
1686
1976
1105
1478
2971
-434
-6626
-6093
-992
-553
-4136
-6124
-5532
-4712
-5301
-4780
-667
3195
3368
2643
3287
3932
3645
2953
2610
2736
2631
2171
1944
1869
1639
1495
1469
1312
1205
1202
956
815
1031
695
250
993
634
-3307
-8015
-9866
-8433
-4498
149
2958
1275
-5198
-9047
-4416
147
-2029
-3187
-1183
-2359
-3193
792
3392
2118
1716
2503
2254
1808
2074
2247
1673
1592
2644
1242
-3639
-5179
-752
2714
2198
1660
2115
1931
1604
1725
1784
1536
1339
1840
1588
-2553
-8302
-8612
-3335
1235
3346
2704
-3193
-8390
-4223
2338
1089
-2515
-2511
-3575
-5623
-2964
1729
2772
1835
1915
2169
1999
2025
2098
2025
2032
2045
1999
2033
2105
2096
2056
2041
2017
1982
1987
1951
1775
1643
1675
1609
1428
1412
1407
1295
1338
1229
864
1306
1584
-1989
-8309
-9823
-4796
-1495
-3496
-4141
-791
1072
56
244
1927
2342
1789
1873
2090
1968
2304
2628
2152
2237
2312
-829
-4603
-2986
1568
2707
1581
1730
2123
1719
1687
1947
1693
1632
1995
1615
1295
2322
1742
-2639
-7281
-9160
-7604
-2121
2436
511
-3307
-3674
-3668
-3822
-391
3631
2066
-4046
-7704
-5093
-1930
-4402
-6354
-1603
1843
-1342
-3899
-3324
-3193
-1261
3159
4869
3750
3599
3999
3650
3418
3541
3546
3314
3145
3395
3326
2944
3767
3820
-450
-6020
-7642
-6368
-5921
-6979
-6830
-2459
3251
3956
491
-1854
-3051
-3958
-1782
2592
4436
3719
3534
3850
3623
3442
3517
3433
3327
3304
3197
3056
2926
2792
2684
2531
2460
2619
2560
2291
2451
2378
1749
2218
2521
-1059
-6370
-8233
-7410
-7099
-7384
-7274
-6426
-6297
-7739
-6524
-1556
165
-1805
-977
-233
-3626
-4081
1000
4250
4503
4464
699
-5716
-5764
1124
4989
1255
-3865
-3397
1310
4089
3592
3061
3325
3176
2881
2879
2788
2640
2628
2560
2411
2350
2351
2312
2273
2294
2269
2185
2192
2118
1900
1973
1933
1357
1625
2180
-800
-6524
-8886
-6274
-2297
118
-856
-3663
-3032
887
2735
2450
1958
-1772
-7900
-8113
-988
3280
-719
-5035
-2417
2687
3478
1775
2718
4100
842
-3095
-1210
2609
2637
1619
2152
2236
1769
1900
1924
1783
1869
1604
1591
2207
514
-4792
-8733
-7852
-6942
-8764
-6909
-519
648
-3662
-3060
2100
3937
2832
2159
2153
2830
2059
-2146
-6450
-7169
-4080
825
3291
2558
2951
3231
-641
-3331
280
4173
3807
3108
4029
4404
4237
4275
3264
1774
2245
2566
-1270
-6571
-8697
-8403
-6713
-3319
-1207
-2625
-4580
-3454
227
2877
2799
2107
2332
2517
2378
2484
2604
2598
2680
2657
2544
2547
2392
2182
2246
1992
1666
2293
1454
-3274
-6561
-3015
1895
2333
2061
2735
-289
-6008
-9189
-8728
-4681
1231
3289
145
-3739
-5975
-5321
-850
3449
3834
2918
3267
3514
3122
3004
2948
2660
2517
2511
2458
2367
2214
2116
2118
2109
2287
2521
2289
1851
1313
700
1426
1905
-2305
-7028
-3731
1838
-1469
-8548
-9552
-7914
-8517
-7753
-4306
-1979
-2035
-3630
-5430
-4051
1038
4536
3644
2665
4090
3283
-1270
-2765
1117
3750
2748
2187
2725
2443
2072
2280
2092
1763
2053
1948
1454
2390
2502
-2072
-6203
-2509
3216
1793
-2115
-1000
1574
2070
2584
256
-6877
-9898
-4533
176
-678
-3214
-5542
-5838
-1787
2341
2736
2461
1978
-642
-1616
1120
2853
2050
1780
2208
1996
1768
1874
1808
1705
1758
1753
1689
1706
1699
1605
1645
1748
1585
1515
1662
1323
1147
1657
1029
237
1373
-328
-6076
-6703
-2039
-1301
-2545
-1645
-3320
-4860
342
4506
-200
-5185
-2244
2722
2664
305
426
2000
2409
2141
2155
2071
1993
2141
2133
2346
2813
2419
1714
1621
1060
1086
2519
-196
-7396
-8212
-1485
1286
-395
812
2520
2165
2685
642
-6361
-9480
-4776
-470
-886
-2839
-4562
-4973
-2039
2738
4593
1398
-3724
-7058
-7962
-5426
455
3209
-1150
-5297
-2560
2629
4245
3607
3872
4228
3957
4943
5367
658
-5256
-3559
3462
6155
3994
3105
3741
2976
2556
3718
2272
-3069
-7445
-8449
-7096
-3619
-247
-196
-2025
-1752
1285
3248
746
-3624
-4563
-761
4246
4461
-1106
-3942
588
4839
4089
3090
3763
3705
3281
3428
3346
3127
3056
2705
2648
3000
2551
2327
3430
1968
-3962
-8376
-7978
-6885
-6784
-6502
-7267
-7608
-4040
473
1234
-717
-3197
-4695
-2445
2467
4626
3089
2608
4011
1190
-6318
-7765
-373
2966
-1479
-1967
3421
5432
3578
2994
3286
2966
2847
2982
2872
2640
2655
2766
2272
2065
2960
1503
-4148
-8407
-8119
-7734
-7527
-2415
4097
3313
-1468
-1356
33
-3338
-4819
148
3989
3143
2449
3037
2815
2456
2617
2527
2297
2284
2243
2180
2168
2068
2008
2050
1983
1959
1942
1552
1609
2319
682
-4550
-8755
-8533
-7269
-8163
-8085
-3755
1795
4110
3310
2160
2307
2355
-134
-3231
-3520
-3267
-4944
-4863
-938
2580
2644
1447
1719
2503
1117
-2584
-6622
-8061
-3966
1715
903
-3089
-1128
3559
3915
2635
3087
3443
3004
2832
3124
3152
2502
2856
3618
-155
-6281
-5439
983
3758
3179
2238
-2594
-8427
-6237
235
476
-2718
-2012
-1158
-3724
-3652
1455
4748
3534
3325
4893
1944
-4054
-3808
2286
5514
4667
3844
3564
3330
3228
3000
3454
3113
-1150
-5370
-3113
2260
4011
3041
2807
3251
3147
2517
2816
3568
999
-4493
-7382
-6871
-6321
-6376
-6885
-7061
-4341
-483
30
-1588
-2451
-3449
-3679
-399
3853
4419
2808
3316
3975
-182
-6055
-5717
241
4409
4265
2670
1973
2472
3221
3535
3293
2681
3094
3913
1592
-2132
-1360
2810
4853
3148
-1521
-6495
-7634
-5972
-6259
-7188
-4552
-2353
-5457
-6641
-633
2583
-1273
-1935
1002
-781
