# session 103
26
104
327
362
-39
-435
-403
-237
-246
-272
-228
-224
-244
-236
-235
-243
-237
-225
-205
-179
-164
-145
-99
-45
7
73
148
204
234
246
231
176
100
41
-13
-84
-122
-110
-126
-169
-151
-108
-134
-171
-144
-106
-114
-128
-103
-73
-93
-136
-132
-96
-87
-96
-69
-1
59
77
51
-2
-39
-37
-27
-37
-51
-45
-12
-7
-70
-82
39
214
453
661
466
-47
-288
-188
-135
-163
-126
-90
-97
-83
-54
-47
-49
-42
-39
-39
-15
10
1
23
111
171
164
196
290
327
283
253
244
178
83
35
13
-21
-45
-43
-34
-34
-44
-49
-28
-3
-19
-48
-33
-9
-21
-29
-15
-12
-13
-18
-52
-53
9
34
9
48
123
119
59
15
-13
-29
-32
-35
-39
-44
-45
-35
-60
-102
-51
90
268
429
337
-73
-350
-259
-146
-180
-188
-159
-159
-138
-103
-100
-100
-84
-66
-55
-47
-18
38
77
95
137
210
281
324
334
331
328
289
203
120
58
-13
-74
-88
-91
-116
-123
-103
-105
-123
-111
-87
-99
-125
-114
-87
-80
-74
-59
-62
-77
-94
-113
-95
-48
-41
-51
-2
61
55
1
-44
-55
-61
-95
-100
-49
-55
-109
-84
-55
-108
-106
-8
111
270
281
-62
-398
-349
-182
-182
-205
-163
-138
-132
-108
-94
-119
-140
-100
-44
-55
-85
-45
19
54
107
180
225
267
327
352
332
312
274
186
91
31
-3
-19
-25
-37
-40
-21
-13
-30
-41
-35
-31
-11
24
17
3
90
210
263
424
754
980
1132
1454
1591
1068
253
-211
-310
-355
-409
-394
-360
-386
-431
-432
-412
-411
-427
-453
-472
-481
-499
-507
-470
-396
-302
-194
-92
12
115
156
134
129
127
63
-7
-16
-20
-44
-46
-47
-72
-57
-15
-28
-52
-30
-18
-34
-19
-16
-63
-66
-12
-23
-77
-59
-24
-41
-56
-46
-39
-36
-47
-69
-56
-25
-55
-124
-129
-69
-38
-53
-48
-13
20
42
40
11
-15
-34
-53
-40
-12
-26
-43
-25
-56
-91
14
146
209
355
411
59
-336
-309
-140
-146
-161
-94
-84
-139
-146
-95
-90
-140
-126
-58
-56
-72
0
88
106
113
183
292
388
442
444
437
457
448
369
265
160
62
25
26
-17
-61
-39
-6
9
48
120
270
568
879
1119
1506
1894
1585
563
-257
-448
-423
-423
-376
-359
-440
-506
-509
-521
-559
-583
-590
-608
-644
-665
-643
-618
-610
-536
-379
-257
-189
-82
39
75
29
-20
-33
-33
-48
-60
-53
-51
-49
-31
-21
-27
-29
-15
14
37
30
9
-5
-10
1
25
34
11
-28
-31
21
48
14
-2
16
5
-6
36
59
21
4
37
52
36
39
49
34
14
7
3
6
20
44
81
113
120
115
96
51
15
25
50
36
8
36
61
8
7
124
200
232
280
126
-219
-332
-181
-105
-124
-102
-95
-116
-97
-69
-74
-78
-62
-40
-28
-12
22
51
68
115
195
255
289
330
364
374
376
361
314
258
202
135
66
11
-27
-41
-47
-57
-56
-52
-74
-94
-78
-62
-71
-75
-69
-73
-81
-72
-40
-14
-3
23
50
38
3
-28
-60
-82
-87
-90
-92
-100
-110
-93
-93
-148
-148
-53
34
86
21
-260
-485
-385
-212
-211
-233
-198
-195
-198
-162
-136
-137
-118
-81
-74
-95
-88
-40
12
63
131
204
264
314
356
375
359
309
246
183
104
19
-32
-44
-55
-70
-64
-47
-43
-40
-32
-30
-30
-23
-24
-40
-53
-48
-36
-14
16
27
33
72
107
79
30
13
6
-3
-5
-4
4
-3
-22
-7
-4
-40
-6
107
208
293
238
-75
-325
-234
-82
-102
-139
-113
-96
-82
-62
-68
-71
-50
-40
-42
-25
4
35
76
126
175
219
267
326
375
371
332
299
246
154
78
28
-40
-99
-104
-91
-90
-93
-102
-112
-104
-97
-105
-110
-105
-101
-101
-100
-104
-117
-109
-75
-72
-96
-54
37
52
-14
-69
-88
-96
-95
-73
-48
-66
-94
-61
-49
-87
-22
128
257
428
444
44
-346
-276
-96
-127
-156
-109
-123
-144
-104
-79
-91
-88
-74
-72
-65
-41
-3
48
103
154
219
306
382
422
433
421
383
318
226
132
68
25
-17
-47
-57
-58
-49
-37
-44
-60
-59
-50
-56
-63
-55
-53
-71
-90
-98
-95
-96
-101
-74
-4
43
18
-45
-82
-78
-76
-106
-113
-92
-105
-116
-95
-129
-153
-36
135
321
505
370
-112
-391
-301
-222
-251
-246
-239
-248
-216
-186
-192
-195
-187
-180
-168
-153
-133
-101
-63
-8
61
124
182
231
254
269
271
215
128
71
27
-21
-49
-63
-73
-68
-62
-74
-84
-72
-57
-59
-60
-53
-56
-64
-53
-39
-45
-55
-63
-77
-60
-4
25
48
166
304
340
434
693
889
1027
1370
1604
1188
394
-137
-335
-417
-444
-459
-500
-517
-493
-487
-504
-495
-455
-431
-444
-462
-458
-443
-428
-403
-353
-269
-154
-36
62
142
205
233
214
164
113
74
42
25
30
31
25
47
76
65
53
84
104
89
94
119
115
104
128
160
165
159
164
179
189
185
177
185
204
206
183
163
179
213
215
206
253
316
296
213
157
158
182
187
179
179
149
107
125
137
83
81
159
266
425
417
29
-337
-294
-153
-223
-335
-357
-356
-367
-405
-470
-508
-505
-510
-565
-646
-681
-667
-657
-598
-452
-342
-282
-149
6
71
111
150
120
65
28
-54
-150
-172
-150
-144
-140
-116
-102
-113
-101
-51
-20
-37
-56
-34
7
11
-29
-48
-24
-10
-14
6
50
85
97
86
69
58
57
67
68
58
60
65
71
83
44
10
115
275
393
507
421
13
-275
-173
-29
-32
-29
-9
-27
-34
-31
-34
0
54
57
22
18
48
76
110
165
233
308
380
428
453
469
466
424
334
217
118
57
1
-59
-87
-82
-77
-84
-98
-110
-105
-88
-90
-106
-109
-97
-83
-65
-10
71
127
242
523
800
985
1347
1768
1590
757
-9
-334
-441
-498
-505
-503
-523
-538
-533
-520
-515
-531
-550
-557
-557
-564
-569
-551
-506
-453
-378
-256
-132
-45
40
127
154
116
73
50
19
-24
-51
-51
-44
-47
-60
-64
-43
-21
-25
-33
-22
-17
-32
-40
-21
2
6
-2
-3
3
0
-2
4
-2
-15
-10
1
-3
-9
-8
-11
-16
-12
-2
-5
-27
-41
-15
25
34
30
60
103
97
51
18
9
6
9
18
14
0
14
38
4
-21
62
158
220
309
247
-76
-288
-186
-83
-118
-114
-68
-76
-88
-69
-64
-70
-58
-44
-43
-28
8
32
51
99
162
209
254
313
370
400
398
376
343
291
215
140
81
29
-18
-41
-49
-69
-87
-86
-81
-87
-89
-89
-89
-87
-90
-98
-107
-111
-86
-38
-31
-49
-13
39
21
-38
-71
-80
-83
-93
-108
-101
-93
-114
-113
-87
-121
-165
-107
7
117
162
-30
-340
-390
-223
-173
-214
-193
-163
-152
-118
-104
-121
-101
-60
-59
-73
-48
-3
20
43
105
185
239
277
328
372
376
345
301
239
162
91
38
-3
-29
-38
-36
-30
-28
-34
-31
-21
-22
-30
-22
-9
-17
-41
-45
-19
4
9
30
106
220
283
309
458
711
865
1031
1376
1487
974
245
-185
-357
-438
-452
-458
-486
-487
-471
-470
-471
-469
-473
-480
-495
-515
-517
-523
-546
-530
-453
-371
-295
-184
-46
67
130
155
151
115
47
-16
-38
-42
-58
-72
-70
-67
-67
-63
-56
-43
-27
-22
-25
-19
-9
0
11
18
19
24
26
26
43
54
12
-32
-6
31
9
-6
58
134
141
92
50
45
54
42
31
38
21
5
52
67
14
70
226
339
498
600
302
-160
-254
-105
-79
-113
-92
-90
-105
-88
-75
-86
-86
-67
-53
-48
-24
19
44
57
110
190
245
291
358
405
403
380
346
293
230
158
66
-29
-88
-112
-132
-151
-146
-137
-153
-169
-158
-134
-134
-165
-190
-180
-165
-165
-144
-83
-18
10
-2
-34
-66
-74
-54
-46
-62
-72
-87
-99
-63
-45
-88
-64
80
279
503
535
176
-217
-249
-130
-130
-151
-123
-112
-113
-100
-89
-80
-76
-80
-75
-51
-23
-8
7
53
118
164
217
301
344
315
292
291
239
138
62
20
-29
-77
-90
-91
-108
-110
-98
-109
-120
-101
-98
-122
-128
-119
-122
-121
-113
-130
-155
-134
-88
-76
-64
-9
31
11
-22
-48
-67
-61
-59
-87
-104
-102
-97
-71
-68
-113
-97
21
161
278
224
-112
-403
-344
-184
-170
-184
-156
-156
-150
-108
-92
-95
-77
-63
-53
-15
15
22
59
121
156
198
280
352
376
377
377
351
275
193
153
111
38
-6
5
8
-22
-33
9
52
39
16
42
63
42
51
88
70
28
44
80
61
17
40
128
136
59
88
218
229
115
40
37
72
108
83
34
20
0
-16
-1
-34
-81
-14
146
368
562
379
-156
-431
-269
-132
-171
-174
-128
-114
-104
-79
-57
-44
-56
-87
-103
-93
-70
-49
-37
-15
35
100
171
239
288
321
318
242
127
25
-71
-161
-206
-217
-223
-225
-237
-274
-299
-283
-259
-260
-271
-272
-260
-233
-212
-213
-200
-151
-112
-108
-121
-134
-124
-82
-62
-104
-131
-55
58
88
40
-1
-23
-63
-88
-44
1
-48
-101
-61
-33
-52
28
184
324
491
471
9
-441
-374
-152
-160
-170
-90
-110
-165
-121
-87
-132
-166
-150
-140
-146
-125
-83
-51
-19
42
135
240
329
406
484
518
489
429
309
145
57
22
-72
-158
-158
-157
-195
-216
-210
-174
-108
-57
4
143
346
614
950
1196
1344
1744
2339
2337
1387
241
-337
-450
-506
-578
-605
-624
-596
-471
-409
-506
-584
-556
-553
-630
-703
-706
-653
-619
-611
-541
-397
-250
-127
-26
60
124
117
55
36
42
-8
-51
-16
14
-11
-26
-12
-9
2
31
32
13
35
70
53
31
65
92
65
56
81
71
47
72
96
73
47
41
35
37
45
45
48
60
61
43
29
39
58
55
39
33
35
41
48
29
-8
-19
-6
-11
-26
-18
-10
-26
-35
-29
-47
-84
-87
-53
-36
-53
-47
12
48
15
-27
-32
-34
-45
-37
-33
-54
-36
2
-36
-58
56
223
443
688
546
-47
-410
-270
-115
-147
-150
-119
-134
-133
-115
-131
-141
-129
-138
-146
-98
-34
-14
-11
23
78
125
185
272
345
384
423
451
422
350
278
195
102
23
-51
-120
-155
-171
-214
-256
-258
-248
-255
-261
-259
-259
-256
-246
-233
-221
-221
-234
-234
-207
-186
-202
-213
-164
-106
-122
-189
-237
-249
-262
-289
-291
-271
-284
-293
-256
-282
-344
-251
-70
88
338
436
-1
-522
-511
-257
-213
-247
-201
-190
-217
-161
-47
50
220
488
662
673
680
731
735
681
635
639
688
751
801
837
843
795
699
583
452
299
155
65
15
-32
-61
-68
-89
-108
-98
-98
-122
-136
-143
-144
-120
-92
-38
75
202
393
727
1022
1226
1661
2167
1948
874
-218
-719
-763
-693
-675
-698
-726
-764
-780
-771
-792
-802
-753
-754
-838
-864
-845
-919
-1010
-975
-864
-759
-625
-481
-328
-88
119
107
29
54
63
4
-27
-48
-89
-87
-32
13
15
21
55
73
81
113
99
9
-38
20
82
79
46
22
12
27
50
48
29
19
37
71
64
1
-38
-19
-22
-43
0
62
59
47
80
106
101
101
96
85
101
115
82
53
92
163
203
185
124
86
99
104
72
48
56
80
76
32
55
172
279
516
941
969
308
-279
-264
-114
-177
-229
-168
-127
-142
-169
-178
-162
-140
-135
-128
-112
-101
-80
-36
-7
9
79
183
237
260
318
388
414
387
334
275
202
105
17
-33
-69
-110
-129
-130
-143
-156
-156
-160
-161
-152
-165
-188
-170
-149
-178
-206
-197
-191
-186
-162
-157
-160
-108
-38
-27
-56
-87
-111
-113
-103
-96
-94
-108
-118
-100
-124
-173
-105
32
199
532
734
331
-274
-402
-255
-258
-295
-242
-207
-202
-190
-193
-194
-178
-177
-174
-143
-118
-109
-74
-12
46
104
176
250
320
382
414
415
395
341
245
146
83
43
11
-3
6
18
9
-4
6
23
19
13
26
38
48
59
48
29
39
55
57
71
96
145
259
373
479
721
1002
1128
1310
1618
1533
884
233
-81
-226
-315
-336
-349
-384
-419
-450
-466
-457
-454
-480
-500
-507
-534
-568
-571
-551
-530
-486
-401
-284
-145
2
130
224
281
301
291
252
200
157
119
79
47
22
-4
-21
-30
-54
-82
-92
-95
-103
-106
-104
-104
-107
-116
-123
-125
-135
-143
-137
-139
-158
-162
-154
-159
-168
-168
-173
-183
-187
-194
-202
-194
-177
-181
-205
-214
-194
-176
-176
-158
-97
-45
-50
-87
-113
-122
-133
-151
-150
-139
-157
-168
-147
-189
-231
-123
10
138
463
636
172
-414
-454
-275
-292
-325
-271
-250
-245
-235
-254
-255
-210
-178
-173
-160
-123
-76
-37
8
74
137
193
274
367
436
488
521
500
442
388
321
223
134
84
57
43
45
46
33
26
42
65
75
71
77
112
145
157
171
180
162
148
172
201
188
173
233
324
348
318
287
256
244
253
251
266
293
265
240
274
248
215
338
465
552
827
961
483
-59
-34
157
98
32
82
86
52
51
45
19
2
-20
-58
-76
-62
-47
-38
-15
29
84
148
211
268
318
336
304
243
162
44
-89
-176
-208
-244
-302
-354
-390
-418
-432
-453
-501
-557
-609
-652
-669
-685
-739
-795
-826
-875
-922
-923
-950
-1038
-1070
-1010
-950
-880
-702
-453
-234
