# session 74
-62
-43
-35
-44
-36
13
56
45
3
-20
-25
-39
-52
-51
-58
-61
-41
-56
-80
7
155
298
492
497
63
-374
-353
-164
-141
-160
-134
-136
-150
-154
-160
-143
-109
-92
-79
-56
-23
25
77
122
184
274
356
406
436
448
433
394
327
229
134
71
25
-24
-58
-63
-47
-23
-11
-22
-15
44
101
125
192
336
506
701
920
1069
1196
1446
1598
1227
444
-165
-363
-396
-436
-458
-471
-482
-465
-462
-501
-538
-568
-609
-641
-676
-730
-759
-754
-732
-672
-575
-453
-281
-85
39
77
92
100
78
40
13
-7
-25
-29
-30
-39
-42
-40
-39
-30
-17
-8
1
-1
-17
-11
10
-5
-34
-31
-16
-25
-54
-77
-44
44
88
52
11
-8
-25
-20
-4
-18
-18
22
5
-45
58
243
355
554
738
425
-170
-332
-138
-90
-144
-112
-90
-106
-97
-91
-100
-88
-67
-66
-65
-41
-5
29
62
104
167
246
309
334
340
335
298
216
108
13
-41
-78
-118
-140
-144
-156
-163
-149
-131
-121
-100
-58
-36
-56
-59
-2
45
22
-30
-62
-79
-75
-47
-42
-67
-50
-12
-42
-19
139
239
353
665
690
106
-375
-290
-132
-173
-181
-142
-147
-145
-137
-142
-120
-95
-95
-75
-40
-10
37
84
111
165
260
331
362
380
379
337
259
158
57
-10
-46
-73
-97
-109
-103
-89
-89
-106
-112
-96
-55
31
113
174
366
705
934
1053
1311
1510
1235
627
91
-267
-450
-467
-463
-513
-526
-502
-528
-580
-602
-617
-636
-654
-686
-734
-778
-797
-760
-673
-558
-399
-212
-71
18
97
153
156
118
81
69
60
40
37
44
32
14
6
-2
-8
-6
-7
-11
-20
-47
-76
-74
-51
-47
-73
-92
-91
-88
-80
-65
-58
-40
4
32
17
1
-5
-22
-32
-17
-12
-14
19
34
2
47
191
329
475
530
247
-166
-235
-43
36
1
0
12
11
26
44
46
41
46
68
96
112
121
146
183
224
269
317
355
373
374
351
299
235
170
98
30
-15
-43
-62
-71
-64
-51
-49
-49
-30
6
64
152
222
305
542
851
1014
1172
1461
1491
976
299
-134
-342
-427
-423
-414
-445
-472
-475
-490
-513
-523
-553
-623
-678
-691
-709
-733
-715
-650
-563
-446
-297
-149
-30
48
78
64
26
-17
-46
-57
-62
-71
-87
-103
-105
-90
-79
-90
-106
-108
-105
-103
-93
-82
-86
-99
-103
-89
-76
-83
-93
-83
-74
-81
-63
8
72
75
56
70
74
29
12
57
65
24
39
59
33
126
318
439
613
767
432
-181
-330
-92
-32
-121
-109
-76
-87
-87
-91
-101
-74
-50
-57
-38
10
37
64
129
211
279
340
406
450
444
421
387
288
155
70
20
-31
-69
-103
-137
-137
-118
-112
-98
-73
-61
-46
-25
-30
-30
21
72
54
-13
-62
-82
-112
-139
-118
-94
-95
-73
-72
-101
4
194
303
472
609
273
-273
-369
-163
-118
-150
-117
-106
-110
-94
-97
-99
-73
-54
-51
-39
-12
24
57
89
144
220
288
336
369
371
317
229
140
53
-29
-98
-162
-197
-193
-193
-204
-196
-192
-198
-181
-163
-181
-197
-169
-120
-81
-71
-90
-117
-139
-156
-153
-135
-138
-144
-111
-113
-164
-98
51
124
298
581
437
-140
-415
-250
-152
-205
-194
-157
-171
-179
-164
-156
-154
-144
-129
-114
-96
-67
-30
12
69
137
201
251
284
297
295
265
193
97
8
-66
-129
-159
-144
-121
-137
-156
-119
-73
-64
0
140
233
352
650
953
1147
1451
1724
1464
745
116
-224
-388
-444
-456
-462
-449
-454
-496
-509
-497
-521
-562
-589
-617
-645
-646
-615
-555
-463
-340
-197
-55
54
113
132
131
116
85
60
53
53
65
113
173
199
232
338
486
682
1000
1283
1176
638
42
-294
-366
-307
-231
-196
-192
-204
-234
-268
-272
-241
-206
-212
-251
-242
-173
-131
-137
-110
-26
64
138
204
254
262
236
200
150
95
74
71
35
-3
-13
-26
-49
-58
-68
-83
-78
-63
-58
-51
-39
-35
-33
-26
-23
-24
-21
-18
-25
-30
-29
-29
-36
-44
-50
-46
-41
-44
-56
-67
-81
-93
-90
-79
-84
-101
-102
-89
-93
-116
-131
-131
-124
-115
-117
-127
-102
-38
-6
-36
-69
-71
-74
-88
-88
-85
-79
-66
-78
-55
76
229
400
611
517
-12
-371
-237
-59
-75
-82
-49
-55
-51
-38
-54
-50
-12
5
-1
11
40
75
109
149
212
294
367
413
438
440
410
366
321
247
142
45
-31
-96
-133
-148
-168
-183
-173
-165
-173
-156
-114
-100
-115
-105
-59
-4
31
20
-36
-87
-94
-74
-60
-69
-87
-75
-59
-89
-57
106
242
361
561
473
-80
-446
-280
-115
-181
-178
-101
-120
-152
-124
-107
-106
-93
-80
-68
-52
-28
24
80
113
174
273
354
403
423
387
312
218
100
-13
-93
-156
-203
-217
-215
-231
-245
-214
-160
-110
-26
95
236
454
748
1022
1311
1647
1725
1246
454
-148
-406
-487
-513
-519
-537
-561
-567
-579
-612
-642
-680
-744
-807
-853
-895
-933
-939
-897
-814
-683
-492
-273
-82
58
138
161
157
131
87
75
98
97
75
86
111
114
121
143
139
115
117
127
108
91
107
128
121
92
79
98
97
63
66
98
82
45
66
119
147
155
139
87
41
37
51
52
48
69
86
47
55
199
326
449
736
821
321
-217
-212
-14
-22
-72
-44
-38
-62
-60
-43
-42
-51
-36
-3
-2
-13
13
41
58
128
227
275
295
322
313
276
257
219
132
57
16
-46
-112
-123
-108
-126
-133
-110
-120
-154
-134
-88
-90
-113
-99
-59
-37
-51
-86
-111
-117
-118
-112
-100
-99
-78
-47
-81
-106
0
127
206
312
256
-110
-391
-314
-182
-182
-177
-157
-180
-181
-151
-153
-168
-156
-135
-120
-103
-86
-63
-25
23
74
139
206
247
256
248
222
157
59
-31
-102
-161
-187
-186
-197
-200
-163
-131
-128
-111
-71
-44
-40
-41
-16
38
61
29
-7
-12
-7
-10
-5
13
16
18
35
19
-4
71
189
269
366
341
17
-298
-273
-123
-98
-108
-91
-94
-97
-80
-71
-63
-46
-38
-33
-16
13
46
87
131
177
228
285
340
373
373
350
304
230
142
61
-6
-46
-56
-67
-88
-91
-81
-85
-89
-80
-70
-67
-59
-41
-14
21
40
10
-44
-70
-70
-68
-68
-84
-80
-38
-64
-108
21
193
286
527
701
276
-350
-436
-228
-208
-243
-199
-193
-205
-182
-170
-170
-154
-140
-124
-98
-79
-67
-30
51
148
216
255
312
383
405
356
267
164
61
-16
-72
-127
-154
-140
-137
-165
-178
-170
-152
-112
-83
-86
-33
141
381
616
800
918
1101
1411
1510
1065
339
-172
-386
-467
-461
-430
-468
-514
-488
-473
-520
-555
-563
-597
-648
-688
-735
-769
-758
-728
-683
-571
-393
-207
-38
91
159
188
191
151
102
86
81
60
42
31
24
22
23
23
21
19
22
30
36
43
61
75
67
48
37
44
60
54
37
76
158
191
157
127
118
99
88
105
100
75
98
112
56
87
240
366
604
944
794
120
-248
-115
-39
-115
-111
-86
-104
-89
-70
-89
-97
-68
-33
-32
-61
-42
33
71
73
123
190
216
243
284
277
225
174
114
28
-53
-100
-135
-172
-190
-187
-182
-179
-176
-171
-149
-122
-129
-147
-116
-59
-47
-84
-125
-146
-157
-168
-164
-153
-158
-151
-137
-167
-152
-21
99
235
446
372
-120
-448
-334
-195
-215
-206
-165
-173
-174
-149
-126
-100
-85
-78
-38
5
20
62
151
217
245
287
362
430
447
416
365
285
176
84
21
-34
-60
-53
-60
-84
-84
-73
-77
-75
-49
-16
31
90
153
288
526
702
762
899
1054
890
437
50
-155
-266
-300
-297
-312
-326
-323
-338
-373
-399
-422
-454
-493
-531
-565
-591
-594
-564
-511
-428
-301
-154
-14
118
198
200
183
175
139
90
77
73
46
26
22
9
-7
-7
1
6
5
1
-6
-16
-24
-30
-34
-31
-39
-73
-97
-83
-63
-66
-63
-27
14
23
3
-19
-32
-42
-38
-18
-16
-9
33
26
-16
71
216
290
461
610
288
-247
-337
-126
-92
-147
-108
-79
-105
-116
-109
-101
-94
-86
-71
-48
-29
-6
28
65
107
168
245
316
369
398
381
322
260
191
91
12
-17
-59
-113
-109
-82
-95
-95
-71
-88
-100
-39
14
42
170
372
534
705
897
1022
1200
1488
1503
985
302
-120
-284
-343
-362
-385
-418
-429
-440
-482
-527
-557
-597
-658
-717
-735
-738
-783
-839
-822
-732
-600
-433
-267
-117
24
106
111
96
81
52
22
-8
-26
-11
-1
-14
-4
12
0
-5
26
56
60
56
64
62
27
-9
-4
12
3
-16
-13
35
101
127
100
71
63
51
41
51
38
14
48
61
3
66
249
350
524
772
557
-66
-322
-147
-84
-155
-141
-118
-134
-119
-103
-111
-96
-63
-50
-41
-17
14
50
96
149
215
284
332
361
376
367
330
261
160
63
-13
-81
-132
-164
-194
-210
-195
-190
-205
-198
-164
-154
-173
-170
-118
-58
-37
-50
-78
-105
-116
-117
-100
-61
-50
-56
-33
-33
-32
74
187
296
553
635
181
-299
-278
-112
-148
-190
-144
-129
-135
-114
-102
-104
-94
-78
-69
-52
-23
3
32
75
121
181
256
303
312
312
282
205
111
27
-40
-84
-103
-103
-99
-111
-118
-102
-99
-124
-128
-97
-76
-84
-77
-29
9
10
0
-17
-42
-44
-24
-25
-46
-45
-9
0
-26
18
120
208
408
616
395
-119
-306
-173
-133
-169
-131
-105
-118
-100
-87
-113
-124
-87
-47
-42
-44
-26
-6
15
65
129
192
263
311
313
300
274
202
103
28
-16
-42
-55
-62
-70
-77
-76
-75
-84
-85
-55
-17
20
77
168
329
557
711
780
960
1139
923
360
-112
-329
-412
-431
-430
-452
-473
-480
-494
-513
-530
-556
-584
-611
-651
-691
-705
-695
-662
-587
-465
-314
-160
-22
91
158
167
146
128
104
68
45
34
21
20
37
54
59
58
51
47
54
64
72
77
83
91
96
96
90
67
36
26
33
25
2
7
58
115
118
68
35
50
52
33
49
71
68
79
70
64
174
322
484
822
971
435
-236
-287
-49
-43
-107
-69
-47
-67
-72
-67
-55
-41
-42
-36
-12
4
13
41
84
134
202
274
331
366
375
356
310
240
148
49
-23
-66
-120
-175
-183
-172
-181
-178
-167
-178
-171
-122
-81
-25
106
276
455
656
789
836
1000
1283
1284
816
187
-253
-431
-456
-468
-498
-492
-473
-496
-532
-550
-576
-622
-676
-731
-778
-813
-848
-881
-883
-834
-730
-584
-421
-262
-128
-42
-5
-2
-8
-6
-22
-60
-59
-18
-15
-31
-10
12
19
40
45
34
64
99
80
55
71
94
99
78
47
62
99
73
31
94
214
254
216
185
174
153
135
141
146
150
165
131
74
149
285
379
665
1008
745
22
-270
-84
1
-39
-6
2
-34
-13
20
15
15
31
43
55
65
69
91
136
185
229
272
313
351
376
377
346
278
197
123
37
-36
-49
-48
-87
-115
-113
-120
-126
-126
-140
-129
-84
-81
-119
-104
-36
1
-21
-64
-101
-129
-146
-134
-104
-109
-127
-115
-137
-175
-101
14
121
404
626
286
-284
-401
-224
-191
-223
-187
-174
-186
-173
-165
-169
-170
-165
-145
-130
-138
-118
-61
-27
-7
56
134
172
186
189
162
105
13
-110
-204
-237
-262
-297
-312
-310
-309
-304
-302
-302
-301
-301
-291
-261
-236
-226
-192
-138
-115
-127
-121
-96
-86
-78
-47
-31
-45
-28
2
-18
9
137
255
416
617
479
-4
-234
-74
32
-10
-2
30
22
30
55
57
49
53
73
94
102
112
144
186
229
281
342
406
455
475
470
438
372
291
218
156
113
94
84
71
70
88
104
100
88
89
109
132
146
167
217
293
368
413
448
558
731
857
1000
1268
1427
1173
601
49
-283
-399
-418
-443
-482
-509
-525
-539
-559
-591
-633
-677
-716
-762
-827
-884
-900
-887
-863
-790
-650
-496
-367
-242
-124
-63
-68
-86
-95
-120
-161
-180
-173
-167
-163
-152
-131
-109
-105
-114
-112
-99
-82
-58
-47
-66
-87
-86
-66
-44
-53
-75
-39
41
85
71
39
19
6
-13
-7
17
6
-2
24
3
5
154
305
434
667
635
82
-357
-248
-50
-56
-68
-37
-41
-38
-12
7
9
0
10
49
84
103
119
147
213
311
394
457
520
569
586
558
468
340
230
149
79
20
-35
-87
-109
-98
-92
-102
-107
-91
-54
-7
29
68
163
335
558
793
957
1048
1246
1508
1393
756
78
-249
-337
-378
-409
-446
-472
-454
-430
-453
-509
-557
-583
-602
-630
-674
-730
-766
-756
-715
-641
-512
-362
-222
-74
51
92
74
54
34
8
-20
-51
-74
-74
-60
-41
-29
-31
-45
-56
-54
-44
-36
-31
-25
-29
-44
-50
-47
-57
-83
-85
-51
-42
-77
-68
19
89
86
60
47
34
16
18
40
35
18
42
41
0
85
244
333
591
930
675
-47
-330
-141
-84
-158
-133
-106
-123
-116
-116
-128
-114
-94
-87
-70
-46
-18
27
75
116
178
254
306
341
379
384
339
282
218
124
33
-25
-74
-114
-132
-151
-162
-128
-100
-126
-146
-110
-75
-82
-94
-78
-43
-12
-6
-40
-86
-107
-115
-127
-121
-108
-110
-85
-50
-78
-65
69
192
346
617
602
90
-315
-239
-87
-110
-130
-101
-91
-78
-60
-69
-70
-47
-27
-20
-7
16
