# session 90
2
79
94
87
97
97
81
81
96
101
111
126
129
135
161
195
229
260
282
317
363
376
359
351
329
253
158
89
43
7
-11
-10
-7
-5
-5
-14
-16
11
33
17
18
62
80
42
4
-13
-33
-45
-33
-35
-55
-46
-40
-74
-46
61
147
257
339
119
-273
-375
-222
-164
-198
-186
-163
-163
-164
-165
-156
-133
-125
-126
-114
-94
-73
-50
-28
14
90
159
195
227
258
244
182
108
35
-31
-76
-97
-109
-109
-92
-98
-135
-142
-104
-74
-69
-63
-35
15
53
27
-28
-38
-21
-16
-14
-17
-16
4
-11
-15
101
231
354
642
764
276
-308
-344
-157
-158
-182
-134
-128
-135
-113
-104
-100
-81
-61
-40
-13
20
55
79
108
177
266
321
343
355
342
289
200
93
1
-62
-107
-126
-129
-155
-186
-178
-158
-155
-154
-164
-177
-136
-65
-50
-77
-83
-96
-144
-164
-124
-103
-111
-82
-83
-137
-62
123
232
342
410
116
-340
-436
-271
-211
-221
-191
-178
-182
-172
-169
-168
-145
-119
-102
-81
-49
-6
44
102
169
244
317
367
381
364
316
234
128
30
-31
-67
-94
-107
-103
-95
-102
-119
-111
-68
-47
-60
-23
75
153
198
245
311
447
650
815
977
1278
1569
1469
894
194
-258
-415
-437
-437
-445
-468
-472
-450
-468
-539
-583
-590
-624
-689
-738
-769
-779
-745
-672
-565
-410
-224
-53
82
167
191
168
129
99
76
51
34
29
21
6
-1
0
-2
10
37
35
-1
-2
39
54
43
72
134
172
163
122
85
79
89
92
78
63
74
79
41
55
150
232
411
713
668
125
-261
-175
-53
-93
-100
-64
-66
-77
-79
-71
-47
-41
-49
-22
8
12
36
93
143
183
231
276
306
309
275
223
163
81
-4
-54
-76
-99
-117
-116
-114
-116
-100
-67
-43
-32
-16
28
110
193
241
314
452
559
628
766
857
672
304
-6
-208
-333
-378
-387
-399
-405
-413
-435
-459
-481
-512
-552
-587
-608
-628
-661
-673
-628
-547
-450
-320
-176
-67
3
44
45
11
-26
-55
-74
-76
-69
-61
-45
-29
-22
-8
8
0
-10
5
14
-1
-16
-16
2
26
37
48
84
125
135
121
110
109
106
107
110
100
110
137
107
89
188
304
465
782
825
257
-288
-256
-58
-72
-103
-55
-45
-62
-52
-32
-16
1
15
24
42
71
98
133
197
264
313
367
428
457
447
420
361
258
164
101
25
-54
-86
-85
-85
-100
-123
-117
-79
-57
-26
86
248
407
604
806
951
1146
1406
1407
944
292
-196
-446
-534
-550
-567
-596
-616
-628
-635
-646
-687
-745
-776
-798
-850
-913
-943
-927
-875
-780
-635
-454
-274
-134
-42
12
31
14
-16
-36
-42
-44
-48
-46
-33
-15
-4
3
10
16
24
35
42
41
30
6
-7
8
10
-20
-2
91
155
128
81
64
45
22
39
64
38
26
55
41
58
196
318
486
811
817
249
-204
-134
-6
-57
-65
-24
-30
-29
-10
1
26
45
50
77
102
97
118
181
237
288
350
395
416
414
374
308
239
155
66
-9
-73
-113
-112
-106
-126
-140
-118
-78
-56
-54
-45
-13
28
53
43
4
-36
-49
-39
-33
-55
-71
-43
-35
-70
-29
86
195
418
646
420
-138
-364
-214
-141
-192
-190
-162
-159
-159
-168
-173
-153
-136
-132
-113
-85
-61
-21
35
89
143
188
215
242
253
210
123
23
-66
-121
-149
-174
-194
-192
-178
-174
-177
-167
-136
-111
-112
-111
-76
-32
-31
-73
-104
-113
-126
-130
-112
-108
-112
-88
-90
-121
-53
82
177
296
338
54
-318
-350
-188
-156
-187
-157
-137
-150
-138
-107
-101
-108
-102
-85
-71
-58
-42
-7
53
113
166
229
286
307
304
289
239
148
52
-21
-72
-98
-95
-86
-94
-107
-104
-80
-47
-40
-67
-57
20
81
73
49
34
18
13
22
25
25
49
75
28
-7
112
262
393
676
769
233
-350
-306
-67
-113
-181
-107
-67
-87
-96
-88
-52
-20
-39
-56
-4
62
81
94
149
221
296
372
401
380
366
317
186
72
27
-32
-110
-142
-143
-157
-185
-206
-179
-118
-108
-153
-153
-80
10
81
144
235
352
421
472
671
1016
1323
1425
1171
584
21
-269
-405
-479
-471
-462
-496
-505
-501
-537
-585
-607
-633
-683
-732
-760
-790
-830
-836
-785
-703
-596
-451
-286
-137
-13
64
80
67
61
50
22
0
-5
-1
8
24
39
39
35
43
52
39
33
53
57
36
46
101
147
150
118
77
57
71
102
125
154
218
298
391
563
756
925
1282
1655
1317
324
-309
-275
-194
-283
-303
-261
-273
-289
-284
-291
-303
-314
-345
-370
-361
-356
-369
-360
-325
-290
-232
-139
-50
24
92
131
132
116
94
64
32
7
-10
-23
-33
-34
-28
-18
4
29
39
57
107
147
123
74
59
60
53
54
41
15
41
73
26
27
145
247
410
658
556
38
-272
-181
-93
-110
-85
-56
-61
-58
-55
-50
-25
-14
-17
-5
11
19
39
81
130
173
209
250
285
289
269
224
137
34
-39
-87
-121
-131
-138
-168
-198
-205
-204
-192
-171
-176
-196
-171
-111
-85
-113
-156
-179
-184
-183
-175
-171
-171
-140
-121
-148
-104
26
106
204
329
147
-284
-426
-254
-170
-193
-176
-161
-160
-141
-136
-130
-108
-110
-112
-71
-28
-9
23
85
152
211
266
314
346
359
335
254
138
33
-50
-108
-119
-105
-113
-127
-125
-125
-115
-70
-31
-22
19
138
279
392
541
754
925
1062
1320
1577
1447
864
201
-205
-341
-369
-386
-389
-380
-389
-418
-440
-454
-487
-540
-582
-620
-674
-720
-748
-764
-728
-608
-455
-314
-170
-28
70
111
125
115
65
20
27
47
33
12
8
15
37
53
44
45
62
65
61
58
30
5
31
53
9
-15
67
165
165
109
89
90
72
68
84
68
56
78
48
31
155
285
422
747
869
351
-233
-260
-84
-98
-128
-81
-79
-105
-99
-85
-82
-82
-78
-70
-69
-62
-26
24
73
128
191
248
285
291
268
219
153
73
-9
-73
-122
-161
-176
-172
-176
-184
-184
-181
-159
-112
-75
-54
14
142
264
362
499
675
834
1029
1288
1375
1032
396
-142
-404
-485
-510
-526
-542
-553
-558
-565
-586
-612
-647
-700
-752
-773
-787
-814
-795
-712
-616
-495
-317
-140
-22
61
122
138
115
80
53
51
58
47
32
37
45
33
35
63
71
50
50
64
48
25
24
39
67
84
68
73
137
183
150
99
91
92
72
61
61
56
67
72
40
71
196
292
413
607
530
75
-219
-108
25
4
-1
24
16
17
37
42
45
53
62
79
98
116
149
186
220
270
324
360
380
384
369
341
288
206
116
34
-36
-82
-104
-111
-107
-105
-119
-120
-82
-33
2
44
105
226
446
635
703
866
1149
1113
607
48
-270
-417
-473
-481
-505
-532
-535
-544
-568
-587
-614
-656
-685
-699
-730
-768
-773
-747
-698
-597
-447
-296
-167
-56
22
47
33
12
-7
-28
-53
-72
-80
-70
-54
-54
-62
-54
-38
-37
-53
-65
-64
-60
-60
-62
-65
-74
-89
-94
-84
-73
-42
29
93
101
87
90
81
54
64
99
88
78
119
114
98
218
372
499
734
776
276
-222
-161
55
33
-3
47
44
26
46
42
34
59
66
49
62
85
98
139
206
267
332
404
457
468
444
408
352
238
101
33
18
-28
-95
-119
-108
-100
-98
-76
-23
41
94
157
302
579
884
1070
1249
1543
1642
1223
517
-50
-364
-487
-506
-527
-567
-578
-579
-597
-614
-639
-690
-730
-749
-794
-855
-878
-880
-869
-777
-601
-436
-302
-163
-52
-7
-1
-13
-40
-59
-60
-58
-63
-64
-55
-44
-42
-48
-47
-41
-44
-55
-49
-25
-12
-20
-27
-28
-41
-55
-43
-36
-64
-70
-3
73
88
67
52
37
23
33
48
24
13
63
64
7
74
234
375
582
648
239
-248
-282
-128
-128
-130
-75
-84
-94
-47
-34
-54
-33
8
35
67
96
113
154
222
281
326
379
432
452
438
411
358
272
187
115
40
-17
-47
-67
-71
-61
-66
-76
-61
-33
-24
-43
-65
-47
0
10
-32
-66
-62
-56
-65
-58
-41
-38
-27
-19
-25
30
141
234
363
427
160
-234
-306
-150
-96
-118
-101
-91
-97
-82
-57
-42
-40
-34
-12
2
8
42
89
118
152
199
234
257
272
256
212
149
60
-31
-88
-120
-145
-154
-152
-162
-175
-187
-205
-218
-200
-179
-190
-197
-156
-104
-99
-133
-161
-175
-187
-186
-167
-160
-154
-127
-134
-151
-61
63
128
241
277
-22
-363
-338
-171
-156
-171
-129
-117
-114
-85
-75
-86
-76
-40
-7
-4
3
56
125
163
201
280
364
411
430
428
385
300
195
88
3
-43
-77
-114
-127
-113
-98
-79
-61
-64
-75
-70
-40
11
61
90
88
54
28
38
37
12
8
18
36
61
37
29
156
288
348
441
324
-165
-486
-329
-162
-216
-229
-156
-130
-136
-154
-175
-141
-82
-81
-111
-94
-34
20
65
131
212
291
378
442
437
387
323
228
116
29
-32
-70
-86
-106
-132
-132
-118
-128
-139
-121
-104
-123
-125
-60
13
23
-8
-35
-64
-92
-89
-76
-92
-96
-64
-82
-125
-30
129
228
433
622
334
-205
-355
-209
-179
-204
-170
-171
-197
-187
-172
-172
-164
-150
-129
-100
-75
-42
4
49
98
167
235
278
298
296
262
194
107
26
-39
-85
-106
-111
-114
-109
-104
-105
-96
-70
-41
-1
62
184
386
565
661
842
1142
1310
1249
1020
562
-4
-342
-425
-469
-509
-510
-514
-533
-544
-560
-591
-627
-657
-689
-725
-743
-743
-734
-691
-597
-481
-352
-193
-33
79
151
198
193
139
107
112
96
68
77
94
81
73
86
86
80
93
108
96
72
67
86
88
52
15
14
29
19
4
39
103
122
103
100
99
76
67
89
105
103
115
122
102
126
210
288
436
634
518
47
-240
-139
-21
-42
-52
-35
-37
-35
-26
-20
-4
5
1
16
43
58
74
116
166
205
240
283
323
329
300
258
210
143
62
-9
-57
-81
-101
-125
-132
-119
-129
-161
-156
-114
-79
-39
41
178
389
598
715
884
1192
1277
843
195
-241
-429
-502
-521
-524
-539
-561
-569
-563
-566
-590
-633
-699
-762
-789
-809
-835
-827
-772
-685
-547
-349
-150
-7
87
152
162
126
100
79
39
17
25
25
32
41
13
-2
42
54
3
-12
9
-5
-10
19
9
-35
-33
-2
-3
-19
-10
19
61
103
105
72
51
30
0
17
55
50
62
79
37
85
268
423
640
878
633
5
-232
-40
43
3
25
18
-12
14
24
4
21
40
32
48
81
106
143
204
273
339
394
442
476
460
404
353
286
179
80
12
-51
-104
-129
-133
-133
-147
-159
-128
-74
-28
34
144
344
647
923
1114
1386
1671
1547
913
186
-287
-508
-577
-581
-596
-623
-623
-613
-630
-661
-695
-747
-804
-846
-890
-934
-937
-894
-817
-678
-485
-316
-197
-100
-35
-27
-46
-55
-54
-55
-59
-60
-61
-49
-20
1
4
10
16
6
11
40
46
29
22
25
22
7
-14
-14
7
14
10
35
80
98
82
62
46
16
-9
4
16
0
9
25
-17
-13
99
209
362
549
392
-104
-332
-169
-54
-64
-29
-10
-36
-15
22
25
38
63
68
69
90
125
164
202
247
312
385
438
458
465
463
427
351
273
209
137
68
29
11
-3
-13
-24
-36
-36
-15
14
24
15
33
91
123
99
63
46
31
22
33
41
29
41
69
37
13
94
199
333
540
492
26
-330
-254
-117
-142
-154
-123
-134
-151
-148
-161
-189
-211
-241
-305
-370
-376
-323
-268
-215
-132
-31
51
106
129
104
38
-43
-136
-219
-255
-269
-299
-320
-303
-289
-299
-302
-290
-274
-254
-243
-235
-196
-133
-92
-98
-135
-152
-136
-129
-130
-115
-104
-80
-60
-89
-32
156
283
408
603
462
-70
-339
-175
-58
-86
-56
-23
-46
-31
0
-17
-17
33
67
66
69
94
148
222
290
344
413
498
533
491
434
381
269
118
14
-38
-65
-72
-90
-122
-115
-70
-43
-24
32
105
171
338
671
949
1062
1300
1659
1585
944
288
-71
-300
-456
-462
-412
-431
-482
-493
-476
-481
-530
-602
-644
-656
-705
-797
-840
-798
-729
-644
-511
-337
-168
-36
45
80
77
62
55
43
18
15
33
35
22
30
62
72
36
29
89
112
53
25
63
75
44
27
11
-5
19
31
-29
-56
37
128
108
57
57
49
-2
-24
-3
-4
0
26
-7
-20
124
281
420
693
738
205
-317
-298
-142
-180
-206
-174
-185
-179
-143
-143
-143
-112
-99
-108
-101
-73
-37
2
49
111
188
252
284
293
286
257
198
113
28
-34
-82
-120
-131
-130
-139
-144
-138
-126
-91
-29
14
49
137
286
461
663
867
1029
1215
1447
1486
1100
441
-119
-397
-463
-466
-502
-553
-556
-524
-515
-541
-571
-597
-622
-646
-685
-748
-807
-813
-751
-641
-498
-320
-131
19
124
189
191
137
91
79
65
40
38
51
42
33
48
55
35
24
28
14
-8
-7
8
9
-5
-8
10
28
29
32
72
131
149
122
106
110
89
56
69
88
67
72
100
66
59
161
263
446
767
752
187
-266
-207
-52
-65
-80
-59
-56
-36
-13
-34
-53
-25
9
11
