# session 121
-12
-46
-116
-204
-270
-301
-309
-316
-325
-326
-320
-325
-324
-282
-220
-185
-139
-16
171
409
664
835
993
1317
1550
1214
427
-243
-550
-631
-626
-624
-654
-665
-640
-640
-665
-668
-672
-716
-767
-780
-792
-832
-850
-799
-703
-587
-427
-225
-46
60
108
120
115
104
70
14
-5
23
35
22
12
2
2
18
7
-23
-1
43
34
22
61
81
57
75
133
149
136
155
194
226
244
229
194
180
176
170
181
185
178
197
190
156
212
319
446
746
960
600
-7
-174
-12
37
-7
-3
12
6
-6
-16
-14
-14
-21
-6
32
50
43
55
108
166
201
237
288
330
345
347
335
288
200
116
80
67
30
-5
3
7
-22
-21
25
39
17
30
101
197
270
320
423
575
689
841
1118
1249
930
340
-143
-395
-495
-521
-520
-514
-510
-511
-514
-523
-546
-571
-588
-608
-641
-669
-679
-673
-642
-574
-476
-363
-239
-122
-37
7
10
-18
-45
-64
-92
-120
-131
-135
-134
-127
-130
-140
-127
-108
-114
-123
-108
-103
-129
-144
-130
-120
-129
-127
-93
-43
-9
-16
-55
-78
-71
-66
-72
-77
-77
-58
-50
-79
-32
112
229
418
680
539
-35
-333
-175
-60
-96
-66
-9
-6
-3
12
13
9
10
23
40
49
62
88
128
193
285
378
450
489
494
485
473
434
342
218
109
55
47
32
3
-8
-15
-41
-41
0
17
7
34
100
156
180
169
167
225
309
405
584
780
883
1076
1460
1582
1065
281
-219
-386
-424
-428
-431
-442
-449
-473
-512
-521
-518
-544
-586
-642
-708
-737
-743
-777
-802
-760
-669
-549
-398
-253
-128
-15
46
32
3
-10
-33
-57
-61
-60
-60
-55
-48
-34
-28
-54
-83
-71
-51
-58
-61
-27
22
46
31
9
6
-6
-35
-32
-9
-22
-31
-11
-31
-32
83
198
307
529
555
110
-315
-285
-127
-125
-132
-91
-86
-109
-126
-129
-96
-52
-33
-24
6
55
104
157
234
313
374
438
493
500
483
460
396
297
203
113
30
-18
-35
-48
-63
-61
-27
20
54
74
85
108
185
277
322
394
549
674
773
954
1038
771
307
-50
-254
-356
-374
-381
-410
-407
-390
-412
-447
-475
-519
-553
-555
-582
-643
-670
-644
-604
-552
-453
-304
-156
-45
50
124
139
123
120
107
77
59
52
54
67
59
34
43
78
80
61
74
111
117
90
63
51
57
67
61
62
91
105
69
31
19
1
-27
-30
-20
-33
-38
-41
-92
-113
-32
33
94
266
284
-74
-393
-334
-186
-180
-186
-153
-147
-151
-139
-129
-119
-108
-104
-96
-72
-45
-28
-4
44
100
148
196
248
285
296
282
237
160
76
7
-49
-92
-107
-109
-125
-140
-134
-111
-71
-33
-13
60
217
351
466
665
857
981
1233
1547
1465
869
182
-240
-400
-445
-468
-487
-498
-513
-526
-528
-549
-598
-633
-656
-708
-756
-758
-752
-746
-688
-568
-408
-219
-32
113
214
278
281
216
162
183
229
300
451
578
635
869
1305
1569
1539
1305
794
173
-177
-286
-375
-414
-397
-407
-416
-406
-396
-368
-366
-452
-571
-659
-722
-759
-761
-721
-612
-435
-248
-80
62
154
196
217
214
176
133
118
126
131
119
108
118
127
116
107
104
97
110
130
107
75
87
93
69
71
68
23
13
50
41
1
12
37
24
-2
-21
-34
-32
-28
-33
-28
-19
-22
-13
4
-11
-28
19
94
125
116
93
46
9
19
19
-27
-33
12
-13
-52
33
157
286
495
480
19
-380
-312
-148
-183
-216
-169
-170
-197
-181
-172
-187
-171
-132
-120
-121
-100
-74
-48
4
74
134
194
243
252
234
218
210
186
130
67
21
-22
-58
-69
-76
-90
-104
-121
-108
-45
0
12
63
163
292
465
606
709
909
1060
813
296
-74
-245
-352
-390
-373
-374
-384
-385
-385
-377
-368
-377
-393
-405
-420
-428
-415
-386
-346
-274
-155
-17
99
187
253
284
265
212
157
115
79
50
32
19
9
-3
-15
-17
-14
-21
-33
-31
-25
-26
-34
-49
-69
-70
-53
-52
-58
-31
19
47
35
-1
-28
-30
-25
-24
-19
-19
-10
-1
-37
-37
72
166
305
606
640
112
-355
-292
-117
-150
-195
-170
-171
-180
-172
-171
-170
-150
-120
-96
-79
-60
-29
29
110
186
243
296
352
401
422
386
310
232
142
36
-33
-63
-99
-130
-141
-161
-171
-133
-95
-93
-58
59
195
307
441
618
770
897
1120
1396
1400
932
266
-184
-338
-385
-434
-458
-442
-432
-452
-485
-512
-526
-546
-605
-675
-705
-731
-786
-811
-784
-735
-636
-460
-268
-115
-6
65
105
107
63
12
-3
12
24
16
9
21
35
42
47
32
24
47
38
-17
-27
3
-5
-24
4
72
140
151
104
75
83
81
84
96
67
55
105
93
56
180
347
478
772
927
462
-132
-186
-12
-30
-71
-34
-34
-47
-35
-38
-30
1
5
-11
-1
28
69
131
179
193
228
311
385
401
379
351
306
220
118
50
3
-57
-107
-128
-143
-167
-187
-191
-179
-161
-139
-101
-60
-58
-103
-140
-143
-155
-174
-168
-152
-131
-118
-148
-128
-7
77
214
510
514
7
-376
-297
-186
-233
-238
-203
-214
-223
-200
-182
-184
-181
-158
-142
-139
-101
-34
11
57
141
216
254
290
316
286
229
182
111
21
-20
-31
-79
-120
-100
-81
-102
-108
-88
-82
-84
-67
-43
-33
-52
-85
-106
-124
-143
-136
-126
-136
-119
-105
-125
-55
89
167
316
534
367
-142
-360
-216
-134
-155
-141
-140
-152
-129
-115
-116
-89
-55
-39
-26
1
30
58
107
180
237
267
303
342
350
331
302
242
154
93
69
33
-9
-12
-3
-27
-51
-33
-2
2
-2
23
64
78
60
36
3
-26
-17
0
-19
-32
-32
-75
-94
-28
45
184
427
421
25
-275
-225
-140
-175
-187
-163
-172
-186
-185
-188
-189
-168
-140
-118
-90
-45
4
50
104
162
217
271
304
305
291
259
190
110
55
16
-23
-48
-58
-81
-115
-125
-102
-78
-82
-89
-65
-23
-6
-34
-75
-70
-26
13
71
164
219
242
341
485
574
598
531
338
92
-123
-281
-347
-343
-345
-367
-377
-386
-414
-446
-461
-465
-490
-544
-579
-581
-595
-608
-561
-468
-373
-257
-109
28
132
203
231
242
285
356
460
593
702
891
1288
1586
1414
962
530
105
-228
-292
-215
-183
-181
-197
-265
-335
-364
-388
-435
-491
-552
-624
-669
-647
-574
-468
-317
-131
39
168
255
279
247
222
214
183
152
156
161
142
135
143
134
117
112
109
103
99
88
78
77
71
51
34
33
35
20
8
17
11
-12
-3
5
-36
-66
-45
-28
-51
-79
-65
8
82
78
29
11
4
-26
-42
-43
-51
-41
-58
-107
-35
131
234
405
588
317
-245
-393
-187
-152
-238
-209
-167
-180
-170
-145
-139
-131
-119
-112
-92
-49
-3
27
58
110
175
235
291
331
332
295
246
202
158
97
25
-28
-60
-92
-110
-106
-105
-101
-73
-54
-51
-13
46
58
27
-16
-77
-126
-104
-55
-81
-144
-138
-117
-127
-67
32
114
295
391
70
-336
-349
-206
-221
-247
-198
-180
-181
-158
-142
-138
-130
-113
-84
-60
-42
-10
28
69
146
247
324
367
384
364
315
245
152
71
25
-12
-34
-27
-39
-67
-59
-39
-41
-26
4
10
17
50
52
3
-39
-55
-56
-39
-32
-51
-56
-67
-78
-15
72
156
355
468
165
-251
-296
-146
-130
-173
-158
-136
-131
-128
-132
-127
-98
-64
-54
-65
-58
-21
16
46
82
122
159
196
224
225
201
176
148
92
23
-8
2
10
-4
-24
-30
-13
10
7
-5
17
62
75
43
-1
-29
-43
-51
-55
-67
-72
-60
-87
-136
-86
29
106
192
194
-81
-391
-383
-227
-200
-226
-199
-175
-175
-176
-176
-175
-170
-162
-141
-111
-89
-63
-12
48
107
185
257
275
279
311
306
222
124
54
-1
-43
-75
-100
-91
-56
-29
10
76
171
380
694
969
1265
1651
1704
1071
220
-238
-344
-384
-406
-400
-396
-401
-418
-441
-443
-453
-502
-555
-588
-626
-651
-625
-576
-515
-388
-210
-67
34
133
188
172
130
88
51
33
20
-3
-18
-10
7
9
-10
-16
4
17
3
-14
-17
-11
-12
-17
-19
-31
-39
-19
-21
-66
-49
65
138
107
58
31
3
-1
18
2
-16
16
16
-9
96
254
351
529
627
250
-279
-366
-184
-149
-200
-191
-157
-128
-128
-149
-129
-94
-101
-99
-56
-24
-16
10
70
163
262
312
326
351
363
324
251
158
47
-46
-86
-97
-117
-144
-162
-161
-128
-74
-21
61
194
334
480
681
869
988
1207
1546
1599
1109
393
-133
-380
-446
-455
-488
-522
-522
-524
-545
-562
-585
-630
-678
-726
-782
-815
-817
-818
-799
-704
-549
-384
-215
-64
35
95
133
123
78
44
23
8
13
16
10
25
47
39
32
58
75
44
-2
-12
8
11
-16
-36
-11
44
79
70
46
28
13
10
23
22
27
62
49
20
119
247
329
630
961
669
-12
-241
-61
-12
-76
-58
-32
-43
-48
-53
-52
-31
-11
4
29
43
46
83
153
204
244
302
350
367
360
329
277
221
162
84
-6
-53
-41
-42
-87
-117
-108
-83
-61
-50
-29
9
5
-56
-104
-125
-147
-155
-153
-168
-160
-145
-185
-177
-50
46
143
349
328
-84
-370
-267
-151
-176
-168
-140
-157
-165
-156
-163
-176
-180
-168
-152
-150
-134
-81
-25
22
86
155
203
239
254
226
166
101
35
-26
-64
-76
-82
-101
-125
-124
-89
-59
-62
-58
-6
37
13
-30
-43
-55
-85
-96
-91
-114
-136
-120
-137
-158
-68
47
131
318
389
35
-338
-279
-88
-75
-86
-49
-51
-59
-45
-46
-46
-32
-33
-36
-19
5
35
80
131
186
248
313
369
397
386
352
308
242
163
106
85
77
61
40
25
30
59
79
65
62
104
130
98
56
33
-4
-39
-35
-34
-61
-69
-77
-109
-85
-14
78
315
512
250
-247
-378
-217
-172
-207
-175
-156
-180
-177
-154
-151
-160
-160
-148
-130
-113
-86
-41
11
58
103
159
223
260
243
201
150
69
-22
-75
-96
-114
-133
-154
-177
-174
-141
-129
-146
-128
-68
-25
-34
-69
-72
-29
15
72
168
220
244
391
604
699
643
418
84
-109
-137
-219
-328
-325
-290
-302
-319
-330
-346
-347
-343
-367
-417
-462
-482
-488
-500
-504
-469
-399
-309
-189
-54
48
111
156
168
135
95
75
60
40
31
37
42
42
54
96
161
233
319
444
638
874
1036
1107
1279
1600
1724
1345
640
27
-276
-344
-345
-362
-378
-379
-396
-433
-457
-471
-496
-529
-569
-617
-641
-643
-648
-620
-523
-393
-246
-74
77
158
188
192
178
161
144
114
84
79
77
58
53
74
71
40
32
43
40
33
24
-5
-27
-11
10
10
32
82
105
83
58
30
-2
15
53
31
0
7
-6
9
96
153
290
612
668
182
-248
-217
-109
-161
-175
-140
-172
-212
-197
-182
-179
-156
-129
-111
-87
-58
-26
30
100
155
196
248
299
314
296
274
233
158
87
44
-4
-50
-60
-59
-77
-86
-62
-33
-35
-50
-30
3
-16
-75
-112
-128
-142
-145
-151
-164
-151
-152
-191
-159
-47
41
130
160
-62
-360
-390
-253
-200
-199
-174
-155
-148
-146
-150
-136
-102
-73
-59
-41
-7
29
70
131
190
229
274
323
332
298
255
199
117
32
-30
-61
-69
-82
-109
-121
-95
-50
-22
-19
-4
46
84
65
28
16
2
-21
-17
-10
-22
-11
-10
-48
-7
115
219
432
676
458
-126
-368
-210
-133
-180
-168
-151
-166
-161
-150
-146
-127
-112
-111
-91
-46
-4
27
65
130
196
236
284
351
369
314
245
190
117
31
-20
-23
-23
-53
-92
-99
-75
-49
-47
-54
-22
39
64
47
13
-9
31
126
203
258
316
377
497
664
752
761
753
595
192
-245
-460
-457
-394
-369
-382
-407
-417
-413
-433
-489
-526
-510
-503
-559
-627
-624
-566
-532
-519
-454
-315
-171
-72
15
101
125
95
78
62
23
3
4
-9
-26
-19
9
33
23
1
39
134
184
152
114
107
96
77
67
65
98
134
80
56
217
361
402
591
705
313
-165
-163
21
14
-18
30
45
33
38
40
38
33
14
7
24
36
31
41
90
163
231
287
341
380
375
332
270
190
97
15
-40
-61
-56
-67
-102
-106
-71
-64
-84
-45
58
133
153
172
244
390
560
722
974
1330
1525
1295
707
62
-375
-561
-617
-640
-651
-653
-654
-665
-700
-745
-769
-782
-817
-864
-886
-894
-910
-907
-849
-739
-600
-465
-352
-238
-132
-85
-92
-95
-84
-84
-94
-103
-109
-108
-96
-85
-84
-88
-94
-96
-80
-51
-33
-28
-5
43
74
65
38
10
-26
-47
-30
-15
-27
-22
-8
-26
1
109
217
399
619
473
-24
-248
-83
15
-13
31
64
31
43
86
97
111
145
179
210
235
265
314
361
406
475
550
602
628
627
595
549
496
430
359
296
260
259
257
231
230
277
316
308
286
284
297
297
262
210
173
145
122
122
125
124
137
122
83
120
216
286
363
342
54
-248
-229
-82
-84
-132
-112
-108
-145
-172
-185
-203
-217
-220
-228
-253
-275
-270
-263
-269
-248
-210
-219
-238
-223
-261
-385
-481
-531
-628
-743
-794
-822
-880
-933
-964
-979
-974
-971
-952
-822
-591
-392
-250
-97
