# session 107
-36
-22
-37
-43
-23
-11
-15
-7
16
37
56
84
127
181
231
270
312
356
377
363
317
242
143
40
-50
-107
-139
-166
-187
-192
-194
-194
-177
-162
-166
-163
-134
-111
-112
-108
-71
-12
35
35
-9
-40
-35
-35
-43
-17
5
-17
-11
23
5
51
247
416
591
851
768
193
-215
-160
-77
-123
-117
-91
-121
-145
-133
-104
-84
-98
-108
-85
-73
-83
-69
-29
2
20
49
97
144
184
225
256
269
272
255
199
128
74
34
3
-7
-3
0
0
-2
-6
-19
-49
-75
-73
-68
-98
-133
-108
-46
-25
-56
-97
-118
-112
-102
-105
-91
-73
-70
-38
-22
-72
-29
134
245
452
782
668
55
-279
-152
-81
-148
-141
-113
-124
-122
-122
-128
-109
-95
-104
-113
-104
-68
-33
-32
-35
0
51
89
130
185
226
240
241
234
197
115
12
-68
-102
-114
-135
-172
-204
-214
-209
-210
-220
-225
-224
-217
-194
-184
-201
-184
-113
-59
-55
-73
-93
-96
-82
-82
-79
-63
-70
-69
-44
-79
-106
12
136
233
485
590
172
-290
-279
-131
-167
-197
-151
-155
-173
-149
-141
-151
-130
-102
-97
-86
-57
-27
1
28
66
129
188
221
266
331
381
405
402
365
310
247
173
93
40
30
37
24
6
8
16
7
-7
-11
-11
-2
27
52
47
41
64
93
89
52
14
5
9
-8
-30
-30
-43
-58
-21
-8
-53
-12
121
224
328
353
88
-236
-241
-86
-59
-78
-46
-36
-53
-48
-40
-43
-40
-26
-11
-4
-2
7
26
45
52
67
118
190
236
254
271
279
258
220
172
106
29
-32
-65
-84
-104
-121
-128
-138
-150
-144
-134
-146
-166
-177
-189
-188
-176
-184
-184
-143
-114
-135
-167
-186
-192
-192
-199
-195
-169
-155
-149
-144
-167
-136
-8
87
185
351
250
-201
-433
-252
-109
-140
-134
-112
-141
-137
-103
-102
-107
-96
-94
-93
-79
-57
-37
-18
13
55
107
175
252
315
348
362
379
381
320
213
130
72
15
-18
-26
-31
-32
-32
-44
-55
-53
-51
-58
-69
-65
-49
-52
-66
-43
21
83
115
111
85
71
70
61
60
75
69
68
81
31
-1
110
215
316
620
754
262
-298
-306
-126
-150
-189
-149
-139
-143
-137
-142
-127
-97
-90
-86
-67
-53
-33
4
40
81
139
192
244
311
364
377
384
382
332
252
175
93
28
9
-15
-73
-96
-72
-85
-130
-136
-131
-172
-227
-251
-251
-244
-244
-249
-229
-173
-120
-107
-137
-179
-197
-192
-180
-163
-164
-171
-133
-117
-171
-120
44
137
356
768
720
57
-363
-231
-108
-170
-181
-151
-159
-156
-146
-163
-174
-152
-129
-129
-125
-101
-83
-75
-55
-18
36
96
145
194
254
293
300
289
256
191
110
36
-4
-14
-31
-66
-86
-70
-46
-47
-57
-58
-61
-62
-57
-73
-100
-95
-81
-108
-137
-104
-26
26
22
-11
-28
-21
-12
7
34
34
40
83
70
27
108
238
384
746
1016
620
-61
-257
-105
-81
-135
-122
-117
-133
-120
-103
-96
-90
-88
-82
-59
-43
-45
-32
8
36
54
104
171
208
226
263
292
286
262
228
171
110
62
13
-14
-4
-7
-49
-75
-59
-45
-58
-69
-60
-62
-97
-123
-106
-93
-106
-107
-102
-106
-66
7
14
-42
-79
-96
-127
-148
-148
-162
-188
-179
-167
-198
-184
-93
-20
115
342
284
-149
-413
-299
-187
-216
-221
-190
-178
-169
-167
-176
-171
-164
-156
-124
-76
-32
10
58
114
178
229
249
264
302
339
346
334
321
279
199
122
70
27
-5
-20
-39
-67
-87
-94
-88
-78
-77
-82
-87
-90
-88
-86
-90
-78
-59
-70
-78
-37
5
8
-9
-38
-64
-57
-38
-31
-16
5
22
32
24
40
118
198
279
337
166
-192
-335
-199
-110
-132
-115
-93
-111
-99
-65
-64
-72
-57
-38
-33
-27
-6
22
38
54
94
146
185
235
302
348
358
354
347
320
267
203
139
82
53
56
52
30
30
44
38
16
2
-2
-4
-15
-32
-45
-54
-38
7
36
66
158
258
322
441
584
644
785
1123
1280
926
318
-144
-376
-466
-484
-490
-506
-511
-508
-517
-532
-534
-536
-558
-587
-607
-627
-652
-675
-684
-678
-666
-637
-565
-451
-331
-210
-80
38
109
133
132
120
94
69
61
56
42
33
30
19
12
21
32
36
35
31
28
23
18
14
11
6
-4
-13
-5
16
17
-10
-18
32
105
138
109
62
47
51
44
50
76
84
89
90
52
83
248
390
561
862
843
272
-173
-97
47
16
-2
4
-23
-29
-31
-61
-72
-60
-55
-52
-46
-33
-5
22
43
88
149
201
260
331
381
410
432
420
365
300
228
136
50
-2
-38
-72
-92
-97
-97
-89
-84
-98
-119
-119
-99
-95
-119
-136
-114
-65
-18
-9
-43
-80
-104
-131
-149
-141
-145
-165
-132
-89
-136
-154
-39
72
257
641
701
107
-428
-397
-263
-320
-339
-283
-275
-276
-253
-243
-235
-210
-189
-176
-150
-119
-95
-70
-33
17
78
138
188
237
282
304
301
273
212
123
40
-13
-47
-87
-132
-152
-136
-118
-126
-136
-128
-121
-134
-146
-143
-136
-132
-116
-84
-53
-48
-70
-89
-84
-77
-82
-66
-46
-63
-69
-35
-44
-62
20
140
276
466
452
72
-262
-240
-108
-74
-75
-71
-57
-24
-15
-37
-40
-21
-16
-11
17
43
48
59
88
108
123
176
259
316
341
365
376
347
297
240
172
104
58
34
18
3
-12
-23
-13
5
0
-22
-25
-5
18
26
12
7
50
102
104
66
31
25
37
30
20
28
19
14
40
32
12
68
148
239
349
247
-102
-284
-165
-60
-81
-89
-73
-89
-110
-112
-113
-126
-145
-159
-170
-172
-153
-136
-138
-137
-110
-68
-27
19
73
117
133
132
121
80
6
-63
-104
-141
-178
-190
-181
-180
-184
-170
-149
-155
-174
-162
-125
-115
-129
-112
-56
-6
11
-4
-38
-64
-65
-55
-55
-66
-77
-49
-12
-53
-75
70
223
325
567
646
165
-344
-313
-124
-140
-160
-124
-147
-161
-136
-141
-151
-122
-96
-91
-75
-38
-7
5
29
87
155
208
273
376
470
494
468
444
403
298
169
80
26
-33
-91
-122
-128
-128
-117
-100
-105
-118
-95
-44
-22
-40
-40
13
84
119
104
61
22
-1
-9
-1
1
-17
5
58
13
-42
93
280
415
665
738
237
-290
-251
-59
-119
-176
-124
-121
-130
-120
-156
-165
-95
-74
-122
-122
-85
-88
-88
-53
-41
-44
8
96
152
181
214
220
176
120
60
-30
-114
-139
-149
-184
-213
-215
-203
-174
-140
-127
-126
-120
-108
-85
-62
-62
-58
-18
15
-2
-40
-67
-87
-98
-86
-71
-75
-71
-55
-81
-98
-6
110
209
403
483
135
-302
-342
-180
-155
-180
-145
-122
-128
-137
-142
-113
-67
-59
-73
-71
-66
-52
-16
17
38
70
110
168
253
319
335
332
315
262
196
140
85
41
13
-18
-47
-47
-35
-37
-42
-39
-48
-65
-54
-25
-21
-38
-27
20
56
51
26
11
-2
-25
-37
-25
-17
-20
-5
-3
-32
12
129
223
406
642
502
12
-231
-119
-40
-71
-75
-58
-34
-9
-32
-54
-24
-4
-4
20
39
32
34
45
47
68
118
163
199
245
285
290
268
236
178
94
19
-33
-76
-104
-121
-137
-155
-167
-171
-167
-167
-180
-188
-172
-148
-143
-145
-120
-80
-71
-95
-118
-125
-134
-144
-126
-96
-103
-106
-81
-105
-122
-15
98
182
356
364
-39
-394
-326
-172
-193
-225
-196
-184
-188
-194
-205
-212
-212
-198
-179
-169
-146
-110
-104
-100
-46
16
65
143
237
298
330
335
304
254
192
110
28
-26
-63
-84
-88
-86
-85
-80
-73
-69
-66
-57
-33
-16
-26
-14
58
132
158
146
107
73
71
70
47
27
14
22
36
-16
-51
69
216
347
608
680
200
-301
-268
-70
-81
-108
-63
-65
-79
-57
-49
-53
-39
-22
-14
-3
8
19
45
89
123
154
216
296
351
380
387
384
384
344
223
84
-5
-56
-87
-104
-120
-124
-103
-68
-29
30
178
445
706
905
1226
1609
1533
825
56
-320
-457
-570
-630
-632
-638
-650
-656
-666
-678
-696
-722
-736
-743
-772
-801
-792
-766
-727
-639
-506
-369
-233
-90
30
109
152
154
126
99
87
84
83
69
48
51
73
66
32
27
49
47
23
19
32
33
25
14
-2
-20
-27
-21
-19
-19
-8
-1
-13
-15
12
25
-8
-38
-19
3
-23
-53
-14
67
116
122
117
98
54
36
86
128
123
148
178
145
186
349
467
630
876
740
158
-177
-70
2
-73
-92
-84
-99
-80
-60
-73
-74
-55
-46
-44
-36
-16
3
17
51
104
140
173
239
299
308
299
294
270
236
203
135
54
19
-12
-75
-102
-89
-101
-118
-105
-100
-102
-90
-100
-123
-117
-125
-160
-131
-47
-20
-55
-71
-69
-92
-130
-131
-101
-94
-96
-94
-145
-182
-92
19
174
538
714
247
-334
-397
-247
-269
-303
-258
-242
-238
-214
-197
-174
-150
-150
-146
-114
-88
-73
-43
-8
24
72
138
198
240
273
303
310
275
207
139
81
14
-51
-79
-72
-73
-96
-110
-99
-96
-125
-143
-118
-103
-138
-165
-145
-103
-61
-45
-84
-153
-204
-232
-243
-225
-187
-150
-114
-110
-143
-104
27
129
273
510
470
38
-246
-155
-64
-95
-77
-26
-12
-2
7
9
24
37
33
36
52
73
87
98
121
152
175
215
284
340
366
389
393
358
316
264
176
95
58
34
13
12
14
2
1
15
12
-3
3
30
36
26
47
88
92
64
46
25
-9
-13
22
31
-11
-39
-21
-30
-63
-22
61
128
249
274
-19
-337
-317
-175
-181
-215
-184
-169
-175
-169
-170
-174
-170
-170
-169
-164
-159
-141
-105
-69
-40
1
57
115
162
195
220
234
220
169
101
34
-37
-100
-128
-133
-151
-179
-191
-189
-190
-195
-201
-191
-168
-167
-172
-127
-54
-30
-53
-77
-87
-91
-95
-87
-76
-93
-88
-35
-52
-95
26
203
288
421
446
63
-340
-299
-115
-112
-138
-100
-78
-72
-71
-87
-77
-41
-20
-6
22
48
60
82
129
186
244
311
386
467
534
555
533
487
414
314
206
88
-10
-39
-45
-92
-141
-147
-143
-141
-134
-138
-136
-111
-105
-108
-54
24
42
11
-22
-44
-54
-47
-34
-31
-34
-16
-11
-54
-13
162
289
404
591
470
-60
-368
-225
-86
-106
-120
-122
-120
-97
-109
-128
-110
-111
-122
-88
-65
-76
-51
-1
27
60
108
147
197
254
267
242
210
154
61
-39
-114
-160
-196
-225
-232
-226
-229
-231
-229
-238
-240
-207
-164
-149
-152
-137
-81
-17
-3
-39
-74
-86
-96
-94
-74
-74
-86
-59
-52
-94
-34
117
221
419
651
426
-140
-345
-178
-119
-167
-148
-134
-149
-132
-119
-133
-127
-103
-93
-93
-75
-44
-22
2
55
125
188
255
333
388
412
423
400
335
264
191
103
42
15
-27
-64
-45
-12
-23
-39
-28
-24
-37
-38
-26
-23
-18
12
51
50
4
-32
-48
-74
-80
-57
-69
-95
-59
-45
-92
-41
92
180
352
547
350
-124
-293
-151
-89
-124
-113
-97
-103
-94
-83
-87
-86
-74
-62
-46
-26
-11
-2
26
73
109
138
194
258
281
277
275
267
228
160
79
7
-48
-82
-91
-85
-83
-84
-79
-82
-90
-80
-67
-73
-86
-86
-75
-53
-41
-71
-114
-125
-121
-135
-139
-126
-132
-134
-106
-114
-137
-61
54
126
221
214
-70
-344
-300
-155
-145
-161
-130
-116
-125
-126
-121
-115
-109
-99
-81
-59
-40
-24
-7
26
71
110
146
201
263
298
312
328
323
250
136
56
20
-21
-70
-100
-108
-112
-116
-108
-98
-103
-101
-70
-49
-53
-33
18
53
55
29
-1
-5
-7
-23
-25
-29
-34
4
9
-44
42
235
346
543
775
497
-128
-310
-102
-66
-146
-119
-101
-132
-134
-141
-164
-149
-118
-113
-107
-80
-60
-40
3
50
87
146
234
308
357
395
406
373
296
205
127
49
-37
-83
-82
-94
-115
-97
-75
-100
-130
-106
-66
-73
-103
-91
-36
7
1
-35
-65
-85
-100
-92
-70
-88
-109
-75
-77
-127
-57
87
178
383
586
294
-283
-455
-286
-238
-281
-251
-223
-222
-209
-198
-190
-175
-158
-134
-112
-102
-80
-40
-13
10
64
133
189
247
312
347
350
339
288
186
85
23
-17
-46
-68
-93
-97
-74
-72
-101
-110
-83
-59
-69
-95
-79
-9
26
-10
-54
-79
-102
-112
-101
-89
-99
-105
-72
-59
-82
-14
121
203
347
490
265
-166
-265
-107
-75
-127
-119
-113
-126
-117
-103
-96
-82
-56
-27
-12
-3
21
56
93
137
185
232
288
350
390
394
363
310
246
172
91
15
-43
-76
-90
-95
-90
-79
-67
-61
-62
-56
-29
-9
-15
-4
43
79
71
35
-6
-26
-15
1
0
-13
-4
28
14
-29
32
169
279
419
479
198
-189
-248
-108
-79
-103
-90
-103
-124
-120
-125
-130
-115
-109
-116
-109
-95
-85
-67
-53
-48
-29
6
30
43
63
82
83
59
14
-48
-112
-163
-189
-196
-197
-199
-194
-185
-181
-176
-163
-144
-123
-111
-105
-77
-23
3
-20
-54
-73
-91
-105
-86
-58
-77
-93
-45
-41
-80
35
221
334
575
790
436
-190
-320
-104
-75
-149
-125
-98
-100
-79
-73
-96
-95
-60
-21
-9
-20
-6
56
113
141
180
256
344
412
452
485
504
465
371
286
217
131
66
63
