# session 245
-33
-34
-25
-19
-28
-38
-33
-25
-28
-32
-23
-13
-15
-10
13
43
75
120
172
218
256
293
337
363
342
290
234
163
71
-8
-50
-75
-96
-106
-110
-121
-126
-119
-118
-112
-84
-45
17
114
244
481
808
1036
1234
1630
1885
1447
570
-64
-304
-379
-395
-403
-428
-429
-415
-435
-445
-419
-414
-435
-448
-475
-514
-525
-533
-568
-576
-522
-445
-347
-214
-77
46
152
210
209
177
128
91
86
72
35
38
92
144
171
175
150
122
109
96
81
72
62
48
30
10
-1
1
-2
-11
-8
3
3
-4
-5
-4
-7
-20
-36
-33
-33
-66
-99
-93
-79
-81
-91
-109
-93
-22
4
-49
-61
-45
-83
-71
-46
-134
-106
0
-161
-138
202
-336
-1478
-1205
283
1029
813
406
-20
-235
-149
-142
-242
-218
-162
-159
-134
-110
-123
-132
-127
-123
-113
-101
-89
-61
-19
22
62
110
161
214
265
304
325
337
337
325
306
275
220
157
105
69
45
31
13
-7
-9
4
16
28
42
68
132
208
255
398
710
957
1028
1132
1190
878
351
9
-140
-230
-251
-240
-260
-263
-233
-219
-212
-186
-175
-210
-259
-294
-331
-369
-391
-406
-424
-418
-368
-291
-196
-89
9
81
127
137
106
56
16
-14
-48
-78
-83
-75
-83
-102
-109
-98
-76
-66
-75
-90
-104
-113
-97
-68
-67
-93
-100
-86
-85
-99
-111
-112
-106
-106
-118
-121
-108
-97
-90
-82
-90
-119
-152
-173
-180
-181
-179
-143
-64
-9
-16
-46
-63
-75
-83
-93
-104
-95
-85
-88
-68
-48
-72
-37
91
209
393
629
509
14
-260
-158
-78
-107
-96
-86
-104
-83
-53
-55
-52
-36
-27
-10
16
32
51
84
106
124
176
240
269
281
308
339
368
395
398
369
324
272
217
171
124
82
94
152
178
152
121
108
91
71
75
89
93
126
196
293
496
770
958
1169
1520
1588
1032
285
-146
-317
-405
-425
-420
-432
-440
-445
-464
-488
-507
-514
-518
-535
-564
-588
-605
-625
-648
-664
-649
-597
-518
-419
-306
-185
-69
14
36
15
-13
-42
-74
-85
-77
-102
-161
-186
-164
-144
-135
-115
-98
-97
-92
-85
-93
-103
-91
-75
-81
-93
-87
-75
-65
-48
-31
-29
-26
-15
-11
-12
-1
1
-29
-63
-57
-24
-18
-36
-14
45
80
90
94
62
29
60
92
81
91
92
36
36
94
77
81
215
363
538
736
590
80
-203
-92
-3
-40
-22
26
47
100
147
126
89
79
71
56
49
53
62
75
96
129
162
196
242
289
328
359
375
360
320
272
221
159
87
20
-33
-71
-94
-116
-142
-154
-154
-159
-154
-125
-74
-12
37
119
351
652
879
1210
1706
1796
1113
201
-316
-479
-553
-583
-567
-564
-575
-560
-541
-561
-604
-642
-657
-650
-648
-675
-706
-715
-708
-691
-649
-562
-443
-320
-206
-101
-24
17
29
17
-9
-20
-20
-31
-45
-40
-35
-39
-32
-13
-3
-3
-3
1
10
17
12
18
41
45
32
42
59
62
68
76
82
100
111
103
103
117
125
130
133
118
81
60
80
99
79
76
134
192
214
235
239
196
162
160
148
137
145
133
116
125
104
86
163
268
393
607
622
198
-217
-213
-78
-88
-119
-105
-111
-122
-129
-147
-145
-130
-139
-150
-133
-111
-99
-80
-60
-48
-20
29
63
83
122
159
160
156
168
160
122
83
46
1
-40
-69
-102
-137
-145
-131
-140
-176
-206
-216
-208
-190
-174
-160
-130
-97
-72
-31
44
172
376
561
651
814
1077
1083
682
199
-105
-256
-311
-312
-321
-343
-349
-350
-364
-377
-376
-377
-388
-396
-407
-436
-458
-463
-473
-482
-453
-384
-282
-163
-50
54
160
240
267
255
227
195
170
158
142
113
93
88
86
92
103
98
97
113
118
112
122
131
118
105
102
94
84
80
76
67
58
42
15
-5
-1
10
1
-7
31
85
85
48
24
4
-20
-25
-24
-33
-30
-33
-51
-41
-35
-72
-49
57
176
406
639
438
-99
-341
-227
-176
-243
-252
-222
-211
-208
-201
-188
-189
-206
-202
-160
-122
-132
-161
-141
-95
-96
-98
-35
36
74
124
179
190
172
149
119
79
28
-27
-66
-87
-104
-110
-98
-80
-78
-77
-60
-53
-70
-74
-51
-16
50
128
215
427
732
926
1092
1397
1494
1036
363
-70
-259
-328
-324
-313
-320
-316
-313
-317
-315
-317
-324
-316
-304
-313
-341
-361
-367
-382
-403
-385
-308
-219
-149
-63
61
177
242
263
247
197
145
115
96
84
81
76
63
57
60
57
45
34
26
20
14
5
-1
-1
-8
-26
-37
-40
-54
-73
-76
-79
-100
-122
-125
-113
-105
-106
-91
-41
3
7
-9
-33
-64
-71
-55
-53
-57
-60
-83
-89
-61
-75
-100
-30
74
232
565
732
333
-200
-288
-154
-159
-209
-203
-204
-200
-167
-142
-126
-107
-103
-114
-121
-116
-103
-89
-72
-43
0
41
85
141
198
239
264
283
289
273
241
194
134
75
32
10
-8
-37
-59
-50
-54
-75
-58
-35
-46
-32
-24
-24
81
124
68
382
720
190
-364
352
1393
1458
992
580
142
-166
-210
-206
-233
-232
-232
-240
-239
-240
-235
-230
-249
-281
-304
-324
-348
-380
-417
-442
-450
-440
-391
-302
-200
-84
37
123
166
193
198
163
109
70
54
44
27
14
16
12
-13
-29
-17
0
3
-2
-20
-44
-45
-26
-24
-43
-57
-60
-57
-50
-64
-99
-102
-73
-77
-99
-63
12
56
56
16
-36
-45
-27
-50
-99
-111
-97
-105
-95
-53
-65
-82
21
147
258
473
512
69
-382
-366
-203
-209
-219
-169
-159
-159
-127
-105
-101
-94
-87
-76
-62
-58
-55
-36
-9
10
35
87
147
188
224
280
330
345
334
308
264
221
175
108
40
-7
-26
-13
-5
-37
-59
-32
-17
-38
-40
-22
-16
12
80
143
198
268
310
309
309
344
451
633
782
908
1191
1539
1549
1085
445
-44
-273
-326
-343
-373
-384
-388
-412
-427
-419
-421
-441
-460
-490
-526
-539
-550
-593
-626
-612
-595
-579
-525
-437
-328
-200
-90
-24
17
40
36
4
-30
-23
-7
-37
-67
-52
-47
-69
-62
-39
-58
-90
-89
-91
-129
-149
-119
-72
-29
0
-10
-45
-69
-77
-92
-122
-157
-170
-148
-119
-113
-99
-39
23
34
18
13
10
11
22
15
0
11
17
7
28
34
3
50
156
276
570
805
467
-92
-205
-95
-63
-8
-107
-145
200
-127
-1437
-1678
-342
430
118
25
215
170
126
194
205
225
287
323
371
439
485
524
552
531
471
408
349
287
221
173
144
114
86
76
70
54
38
35
31
14
8
21
38
71
130
211
387
647
809
913
1201
1448
1146
415
-144
-325
-358
-387
-394
-394
-400
-396
-400
-428
-448
-447
-455
-474
-484
-507
-559
-606
-607
-577
-552
-526
-467
-364
-255
-173
-104
-40
-12
-13
-20
-47
-75
-53
-11
-12
-38
-53
-68
-95
-121
-134
-133
-122
-112
-100
-78
-51
-32
-21
-18
-23
-22
-18
-23
-30
-31
-38
-41
-35
-34
-32
-16
-13
-30
-32
-21
-16
1
25
23
7
7
9
-2
-5
7
4
0
39
97
111
92
67
33
13
18
18
25
51
41
34
113
185
191
258
372
476
701
838
478
-48
-149
4
23
-15
-5
-13
-26
-21
-32
-35
-14
-5
-11
-15
-31
-36
-2
21
14
33
85
110
119
164
232
272
273
274
289
271
206
146
100
27
-45
-72
-89
-117
-128
-132
-142
-131
-109
-99
-92
-92
-107
-120
-134
-167
-190
-179
-165
-168
-168
-137
-86
-68
-113
-177
-204
-210
-219
-211
-175
-141
-131
-123
-86
-70
-100
-49
113
259
451
650
436
-136
-381
-204
-118
-194
-182
-129
-143
-142
-103
-105
-140
-125
-71
-66
-105
-101
-57
-37
-33
5
63
113
170
228
264
290
319
325
292
234
154
66
18
29
59
60
34
16
10
-4
-21
-23
-17
-16
-17
-13
-15
-24
-36
-51
-65
-64
-55
-63
-80
-56
17
63
35
-9
-22
-29
-43
-37
-26
-28
-27
-23
-13
-6
-36
-37
67
179
355
712
828
327
-224
-263
-125
-174
-242
-198
-147
-148
-170
-172
-153
-142
-137
-120
-111
-121
-128
-108
-68
-40
-26
17
90
143
171
197
211
197
169
131
76
8
-55
-100
-121
-133
-143
-144
-128
-105
-90
-89
-83
-60
-49
-66
-68
-38
-30
-60
-71
-61
-76
-82
-58
-67
-79
-10
63
48
9
-3
-17
-13
12
10
-8
-4
-1
3
32
22
-16
49
159
214
379
572
359
-106
-244
-123
-103
-89
4
32
37
100
124
95
92
92
66
50
57
63
62
60
69
91
121
150
181
215
242
255
262
260
233
183
126
64
-1
-48
-75
-103
-124
-123
-116
-115
-125
-140
-138
-127
-147
-164
-131
-97
-113
-143
-152
-148
-138
-131
-142
-162
-171
-153
-126
-113
-104
-76
-51
-56
-75
-93
-104
-88
-56
-53
-72
-88
-117
-135
-122
-140
-165
-95
-3
91
320
458
171
-207
-223
-88
-83
-95
-64
-68
-79
-74
-76
-61
-40
-62
-87
-57
-10
9
7
19
63
110
129
151
195
230
255
285
301
297
288
257
186
110
70
46
12
-18
-24
-20
-11
6
15
21
50
93
110
98
79
59
40
25
12
-3
-17
-13
13
29
26
45
87
93
52
12
-10
-29
-44
-53
-62
-66
-77
-96
-88
-70
-106
-121
-35
73
229
471
459
27
-325
-279
-157
-177
-205
-187
-174
-174
-187
-192
-178
-180
-196
-181
-153
-145
-145
-133
-101
-64
-45
-28
4
35
69
124
183
211
202
161
101
33
-35
-97
-136
-155
-167
-174
-176
-177
-171
-159
-148
-129
-100
-83
-72
-39
-3
30
101
186
272
461
698
831
1052
1459
1534
982
314
-40
-201
-294
-308
-316
-354
-366
-356
-354
-352
-349
-354
-354
-350
-350
-353
-356
-359
-354
-343
-325
-291
-222
-117
11
136
231
286
311
309
277
218
160
121
95
74
64
60
49
30
14
3
-5
-13
-19
-20
-19
-15
-13
-19
-24
-23
-29
-41
-38
-29
-33
-36
-31
-31
-35
-40
-45
-28
-2
-13
-37
-20
-1
-25
-48
-38
-26
-23
-23
-42
-57
-35
-10
-17
-19
12
45
68
88
63
-6
-30
-2
-7
-30
-21
-13
-2
31
19
-13
52
162
274
454
467
80
-308
-292
-139
-131
-146
-109
-98
-104
-97
-97
-101
-100
-101
-99
-89
-73
-58
-45
-29
-1
33
62
85
113
149
187
229
264
272
254
215
159
109
68
17
-32
-52
-66
-92
-101
-87
-80
-86
-83
-70
-69
-78
-66
-32
-7
10
42
70
77
67
41
30
66
97
74
31
3
-22
-40
-45
-59
-77
-75
-86
-103
-81
-79
-120
-82
39
184
430
577
259
-235
-340
-189
-160
-190
-159
-143
-151
-138
-128
-134
-133
-123
-121
-120
-100
-77
-77
-73
-34
7
22
51
115
175
209
240
259
247
223
181
92
-9
-65
-86
-100
-112
-119
-116
-103
-95
-97
-109
-133
-153
-152
-146
-144
-124
-95
-67
-5
103
244
459
715
899
1116
1506
1728
1334
544
-44
-262
-327
-358
-358
-350
-349
-351
-368
-394
-397
-382
-411
-483
-510
-487
-513
-576
-579
-561
-586
-565
-448
-329
-237
-113
26
131
204
238
223
198
180
154
140
154
162
152
155
166
159
144
136
126
118
116
103
78
64
53
28
10
9
6
0
-1
0
5
19
18
-1
-10
-7
-12
-24
-35
-53
-76
-83
-70
-66
-94
-110
-58
18
33
-5
-37
-45
-42
-43
-60
-71
-63
-69
-64
-19
-29
-80
1
170
349
651
805
371
-238
-350
-188
-195
-252
-211
-186
-193
-175
-162
-168
-169
-174
-181
-182
-188
-186
-157
-123
-106
-77
-16
50
101
161
235
287
304
308
301
274
239
194
130
70
28
-14
-54
-71
-71
-72
-63
-42
-27
17
116
206
302
532
816
999
1199
1392
1189
586
87
-125
-237
-290
-277
-300
-353
-347
-317
-325
-340
-326
-305
-297
-293
-288
-298
-330
-367
-383
-371
-330
-258
-169
-81
5
82
133
152
150
129
92
56
36
33
26
2
-21
-25
-17
-23
-47
-59
-47
-48
-71
-77
-68
-71
-67
-40
-30
-56
-77
-68
-57
-70
-86
-75
-64
-86
-109
-99
-84
-92
-98
-79
-58
-55
-55
-42
-44
-85
-121
-104
-79
-105
-133
-91
-17
12
-4
-32
-59
-81
-101
-123
-138
-148
-163
-150
-124
-135
-108
8
119
280
529
499
62
-252
-186
-91
-117
-113
-100
-125
-122
-103
-104
-94
-82
-88
-65
-16
-10
-34
-27
15
66
113
142
165
202
248
311
393
433
407
380
363
311
240
174
97
45
50
54
35
64
140
186
187
184
205
245
279
376
589
802
999
1281
1375
942
289
-92
-225
-308
-345
-345
-360
-370
-365
-370
-388
-406
-418
-428
-444
-460
-471
-497
-526
-522
-500
-491
-462
-374
-260
-153
-55
3
13
17
13
-31
-76
-84
-89
-114
-121
-98
-75
-65
-61
-57
-52
-55
-70
-69
-54
-44
-11
57
104
160
325
544
697
845
1010
990
741
517
401
239
22
-141
-236
-279
-278
-269
-277
-288
-301
-326
-349
-351
-349
-383
-422
-404
-365
-395
-484
-553
-573
-562
-524
-449
-362
-283
-194
-95
-21
42
113
157
164
170
189
212
221
226
240
239
202
177
187
190
182
188
198
200
202
214
229
224
200
181
168
149
134
130
113
79
56
46
31
15
17
29
26
10
7
25
28
11
7
15
12
3
0
-1
-10
