# session 151
29
39
54
76
91
91
94
115
144
175
215
261
296
316
328
331
316
277
227
178
131
89
65
52
33
6
-15
-29
-31
-18
-10
-9
11
48
58
21
-20
-43
-65
-74
-57
-65
-92
-77
-82
-139
-122
-38
80
373
607
298
-256
-393
-245
-227
-266
-240
-239
-262
-260
-258
-255
-236
-216
-203
-191
-173
-136
-84
-27
29
76
122
169
193
198
198
170
108
55
23
-21
-67
-84
-80
-95
-121
-115
-78
-67
-96
-102
-39
29
33
4
-11
-44
-92
-79
-35
-42
-45
-3
-29
-87
16
197
268
318
310
28
-289
-250
-57
-35
-82
-65
-48
-47
-32
-34
-51
-41
-6
22
47
77
108
143
185
228
281
347
392
387
355
317
256
166
72
5
-32
-47
-51
-52
-55
-64
-60
-24
1
-21
-27
35
103
104
55
11
-3
-9
-25
-36
-34
-31
-38
-77
-95
-23
61
184
476
605
196
-290
-313
-156
-169
-214
-196
-186
-181
-177
-194
-194
-169
-151
-140
-123
-105
-83
-53
-14
29
76
120
149
163
160
131
78
20
-29
-66
-101
-133
-142
-131
-133
-141
-117
-77
-66
-70
-39
15
43
35
2
-41
-70
-83
-92
-105
-120
-116
-106
-145
-158
-57
31
111
315
355
-21
-355
-289
-155
-179
-186
-138
-134
-143
-126
-114
-109
-99
-89
-60
-7
17
20
76
163
200
219
285
346
335
302
293
255
155
69
51
51
20
0
23
42
28
31
75
101
80
73
110
140
122
78
46
22
-7
-20
-21
-41
-46
-10
-21
-68
-11
108
204
374
471
192
-189
-225
-76
-45
-59
-44
-54
-69
-58
-56
-61
-59
-59
-52
-32
-16
-5
18
53
89
126
167
202
217
216
205
176
128
75
36
9
-13
-32
-53
-77
-94
-89
-64
-38
-34
-44
-21
25
14
-48
-78
-84
-121
-142
-124
-141
-173
-152
-156
-208
-166
-51
54
238
338
40
-369
-408
-245
-210
-224
-191
-177
-179
-167
-166
-170
-166
-172
-174
-150
-129
-125
-99
-35
21
52
91
147
187
210
218
184
114
55
-4
-78
-105
-74
-80
-127
-131
-112
-130
-136
-102
-67
-29
13
4
-35
-47
-55
-67
-41
-24
-64
-49
31
-1
-63
67
242
326
492
547
168
-221
-169
-10
-40
-66
-19
-6
-14
-20
-44
-47
-16
6
6
1
8
39
85
139
199
266
326
367
381
373
341
280
201
125
62
9
-26
-33
-34
-47
-53
-45
-37
-29
5
103
246
362
478
665
842
997
1333
1761
1764
1145
335
-213
-441
-497
-507
-530
-554
-552
-538
-543
-561
-584
-611
-630
-644
-687
-755
-787
-762
-727
-684
-593
-464
-334
-214
-110
-39
-22
-53
-86
-93
-88
-82
-72
-62
-45
-21
-10
-11
0
24
35
25
10
-1
-8
-4
-5
-27
-26
29
77
61
24
15
15
-4
-19
-18
-15
0
15
-15
-9
93
172
278
531
560
93
-324
-257
-85
-107
-124
-67
-74
-131
-130
-81
-65
-100
-117
-77
-37
-41
-41
12
89
145
200
274
323
328
332
346
324
260
197
148
99
61
45
24
-7
-8
25
51
53
50
70
114
143
122
78
54
39
23
29
38
30
33
28
-11
1
85
155
293
475
342
-91
-275
-100
3
-69
-88
-39
-32
-48
-46
-47
-58
-49
-26
-21
-30
-19
20
57
79
113
170
210
212
202
191
161
100
26
-39
-86
-119
-136
-148
-169
-192
-199
-181
-147
-123
-113
-80
-25
-6
-35
-63
-74
-85
-92
-88
-108
-140
-131
-133
-187
-165
-48
40
213
434
250
-276
-480
-313
-245
-293
-270
-254
-287
-276
-242
-246
-257
-238
-217
-211
-185
-139
-112
-73
14
92
126
186
286
336
310
261
203
127
51
-7
-37
-45
-57
-71
-61
-43
-36
-34
-35
-11
68
128
101
51
41
34
30
48
32
-8
26
65
17
41
194
300
451
698
577
26
-269
-122
-13
-61
-62
-33
-41
-51
-57
-60
-52
-48
-43
-23
-7
1
26
74
121
167
232
293
312
311
313
272
173
75
4
-59
-103
-112
-124
-155
-162
-135
-135
-169
-171
-118
-44
9
-4
-52
-59
-57
-100
-110
-72
-85
-98
-39
-35
-76
23
193
319
450
395
-9
-340
-273
-126
-134
-138
-100
-117
-145
-130
-108
-115
-131
-131
-118
-110
-103
-79
-39
10
73
146
204
229
236
234
199
121
35
-33
-84
-120
-134
-145
-166
-179
-166
-131
-81
-43
-8
97
270
425
574
751
917
1130
1446
1609
1306
646
30
-301
-405
-448
-490
-496
-488
-498
-505
-518
-569
-619
-640
-668
-722
-767
-778
-780
-797
-774
-636
-443
-296
-170
-25
86
124
95
34
16
49
49
15
19
45
46
51
79
94
99
116
124
98
64
51
51
55
48
39
66
113
124
104
94
92
82
74
84
104
92
74
87
70
47
125
211
298
585
786
418
-133
-226
-65
-51
-80
-52
-61
-82
-58
-46
-71
-75
-41
-23
-36
-31
3
32
54
82
113
152
198
229
238
232
194
133
92
63
12
-45
-84
-117
-154
-186
-177
-122
-66
-16
54
139
292
531
705
800
986
1098
813
302
-50
-214
-304
-333
-338
-362
-386
-403
-408
-402
-418
-461
-489
-504
-532
-560
-567
-551
-509
-428
-316
-194
-70
38
105
148
184
179
147
163
218
279
410
576
674
837
1123
1166
748
201
-159
-339
-404
-408
-432
-468
-478
-469
-444
-423
-443
-463
-438
-429
-486
-544
-552
-524
-458
-339
-202
-88
-5
49
79
103
117
111
94
87
106
133
131
118
132
148
134
121
124
123
123
123
116
112
114
120
128
117
103
142
212
262
304
319
345
563
926
1224
1477
1501
841
-159
-616
-524
-436
-404
-326
-324
-363
-333
-317
-361
-367
-325
-315
-356
-417
-471
-499
-503
-487
-439
-365
-291
-217
-139
-67
-7
33
42
46
65
70
50
41
43
36
41
58
47
34
73
126
158
220
312
413
571
744
842
1038
1437
1604
1157
432
-58
-263
-348
-379
-376
-373
-390
-432
-472
-488
-506
-550
-618
-687
-729
-752
-792
-820
-742
-550
-341
-178
-50
66
179
254
241
196
193
185
132
104
119
119
100
99
120
138
138
141
155
141
100
91
112
108
83
73
79
92
94
68
36
29
35
35
24
12
11
22
23
11
8
14
12
6
9
3
-19
-28
-12
-8
-34
-58
-57
-46
-49
-58
-41
7
42
33
9
-2
-15
-21
-11
-15
-20
-1
-3
-2
79
185
311
503
492
98
-248
-211
-80
-95
-119
-89
-99
-144
-140
-91
-87
-135
-128
-56
-37
-65
-33
24
34
47
110
190
255
279
249
213
202
186
145
98
53
14
-15
-25
-22
-26
-31
-1
47
59
54
85
125
114
63
11
-31
-67
-93
-107
-127
-147
-135
-127
-159
-145
-48
61
200
273
29
-360
-444
-284
-220
-248
-242
-232
-231
-215
-211
-221
-217
-200
-187
-172
-146
-117
-85
-41
24
111
197
249
283
328
343
282
195
121
25
-72
-94
-84
-123
-160
-139
-111
-110
-102
-74
-25
31
50
24
-1
-13
-28
-20
23
38
17
27
33
7
83
239
345
545
757
489
-103
-308
-141
-77
-117
-103
-97
-119
-121
-108
-90
-77
-76
-71
-54
-30
9
48
78
119
182
258
332
366
355
344
331
261
149
53
-12
-52
-61
-66
-97
-116
-89
-71
-97
-109
-56
14
19
-36
-72
-78
-103
-128
-121
-124
-121
-87
-108
-142
-39
92
162
314
367
13
-387
-388
-245
-247
-254
-201
-190
-197
-172
-148
-142
-146
-151
-143
-110
-60
-11
27
67
128
198
256
289
296
290
275
227
138
39
-34
-72
-92
-118
-143
-143
-118
-96
-86
-76
-54
-13
36
40
-7
-18
47
132
217
302
334
362
538
848
1126
1255
1128
669
75
-322
-451
-484
-509
-484
-437
-470
-553
-555
-493
-518
-615
-637
-591
-593
-621
-610
-602
-591
-506
-396
-316
-204
-54
49
109
172
202
187
182
190
179
169
181
183
155
145
172
193
190
200
231
253
249
214
172
163
171
158
143
137
127
119
114
124
166
205
296
529
639
327
-92
-167
-34
10
-4
-5
-29
-40
-8
3
-20
-21
-10
-25
-39
-19
20
51
65
83
131
189
229
253
265
249
203
143
66
-23
-95
-141
-178
-208
-215
-189
-155
-152
-167
-152
-107
-85
-110
-143
-147
-145
-161
-165
-150
-145
-134
-130
-165
-141
-23
54
141
289
179
-225
-414
-274
-189
-231
-236
-229
-233
-207
-197
-221
-218
-191
-173
-157
-136
-105
-60
-19
23
89
163
214
246
264
248
201
150
96
18
-58
-91
-85
-85
-102
-101
-66
-49
-77
-82
-11
62
54
-2
-41
-58
-53
-10
11
-15
12
101
165
291
505
652
811
966
669
2
-294
-148
-101
-189
-174
-130
-147
-149
-126
-128
-152
-165
-150
-129
-139
-172
-183
-150
-97
-58
-28
14
75
148
195
192
164
129
85
57
52
21
-12
38
163
300
416
511
721
1169
1588
1644
1426
1061
502
-42
-290
-351
-412
-441
-431
-455
-496
-511
-520
-554
-611
-672
-717
-754
-796
-831
-841
-809
-700
-520
-331
-176
-61
22
90
126
115
100
93
51
2
-10
-21
-35
-29
-33
-55
-54
-47
-57
-52
-35
-37
-47
-59
-77
-73
-40
-24
-31
-15
30
80
111
95
46
23
34
37
21
7
22
45
11
1
112
207
279
508
592
169
-273
-227
-56
-90
-122
-85
-105
-118
-84
-78
-87
-77
-60
-17
34
43
59
117
148
148
198
279
310
307
316
315
280
224
146
58
11
0
-38
-84
-68
-9
12
-10
3
77
143
162
177
230
326
446
562
712
928
1040
837
398
-16
-264
-354
-354
-350
-377
-384
-356
-356
-390
-397
-389
-419
-464
-485
-497
-503
-482
-440
-388
-299
-166
-41
36
100
162
173
130
91
70
38
8
-1
-8
-23
-30
-33
-40
-39
-47
-72
-75
-40
-25
-35
-17
16
16
-1
-10
-30
-55
-55
-45
-70
-96
-61
-45
-95
-65
47
122
307
559
380
-171
-402
-239
-158
-205
-193
-171
-176
-157
-137
-134
-114
-88
-63
-28
4
23
58
104
139
187
261
317
341
357
363
331
262
184
119
64
4
-43
-59
-59
-58
-53
-41
-16
52
155
228
271
396
607
766
914
1216
1494
1348
752
98
-298
-431
-459
-478
-488
-489
-504
-525
-540
-558
-594
-638
-674
-706
-743
-778
-799
-787
-719
-596
-446
-280
-114
18
108
165
177
149
126
108
67
36
47
56
42
45
60
58
46
31
23
43
61
46
53
120
178
177
148
134
126
113
109
108
91
101
128
85
60
176
303
447
747
835
363
-141
-171
-47
-71
-94
-66
-71
-77
-67
-81
-99
-85
-55
-35
-34
-40
-36
-5
54
127
175
190
205
224
219
183
134
69
-5
-61
-98
-138
-184
-199
-161
-118
-122
-123
-63
9
29
-5
-63
-102
-97
-72
-69
-109
-136
-102
-106
-160
-102
14
62
214
392
185
-238
-353
-239
-196
-177
-149
-169
-181
-157
-144
-130
-111
-104
-82
-55
-59
-50
17
96
136
164
211
247
251
233
204
169
116
27
-47
-56
-59
-90
-93
-62
-45
-43
-39
-26
9
44
39
6
-23
-54
-78
-57
-23
-36
-51
-34
-30
15
149
269
399
584
505
54
-261
-195
-96
-113
-94
-65
-95
-97
-60
-66
-92
-73
-36
-41
-63
-41
3
7
-10
28
100
118
105
143
180
153
135
141
93
37
42
45
13
8
31
40
47
71
102
123
121
94
68
54
39
33
34
20
15
30
2
-35
-1
40
118
304
300
-90
-419
-367
-243
-260
-270
-236
-232
-232
-217
-214
-215
-200
-179
-162
-149
-132
-104
-65
-23
19
63
107
143
161
160
137
89
30
-22
-59
-85
-108
-122
-116
-102
-103
-115
-103
-45
20
20
-34
-60
-51
-60
-69
-53
-55
-60
-37
-54
-66
45
156
233
449
534
137
-280
-235
-71
-96
-118
-70
-73
-85
-52
-35
-48
-36
0
8
10
57
109
127
170
245
289
318
362
372
331
290
251
172
81
33
9
-34
-63
-52
-45
-57
-59
-43
-3
55
79
45
11
-7
-33
-41
-30
-48
-53
-9
-28
-73
27
174
271
452
504
122
-285
-272
-127
-140
-168
-144
-143
-149
-141
-143
-142
-128
-114
-104
-97
-77
-37
1
35
80
118
142
172
182
135
71
18
-50
-127
-171
-190
-210
-232
-242
-224
-195
-190
-192
-152
-85
-43
-35
-41
-57
-82
-93
-88
-103
-115
-82
-75
-115
-65
37
81
286
630
532
-21
-301
-170
-106
-167
-146
-103
-122
-128
-97
-80
-74
-56
-38
-17
19
41
50
109
208
257
262
296
321
296
283
275
187
87
70
64
17
-12
-26
-47
-32
-2
-16
-16
50
113
112
79
48
16
-3
2
3
-7
8
9
-41
-38
47
152
387
678
561
41
-261
-189
-131
-173
-164
-146
-164
-163
-145
-144
-155
-170
-165
-121
-79
-72
-68
-35
0
23
55
90
101
100
100
85
51
17
-16
-39
-46
-64
-98
-105
-74
-40
-33
-50
-41
2
12
-17
-32
-58
-114
-131
-110
-113
-112
-88
-109
-147
-99
-3
152
468
650
301
-215
-311
-163
-166
-233
-221
-205
-217
-217
-214
-211
-203
-193
-170
-138
-110
-79
-33
19
65
107
153
199
228
233
217
176
117
71
43
21
3
-10
-16
-1
34
58
63
85
142
192
181
136
124
135
137
138
132
126
147
148
112
153
276
400
605
841
687
-13
