# session 258
102
198
167
124
294
356
276
754
1108
360
55
224
-2259
-5697
-4498
-373
385
-1921
-3039
-2233
-858
208
413
185
282
434
302
222
322
404
446
497
551
633
707
685
609
588
588
482
355
368
331
197
328
344
-79
236
657
-1766
-5085
-3787
266
545
-2098
-2386
-409
712
632
395
249
227
344
470
570
607
585
633
737
900
1301
1652
1354
659
323
345
396
505
457
219
379
496
15
376
1014
-1341
-4475
-2997
340
-297
-2788
-2708
-851
555
1049
909
777
928
933
743
651
598
510
490
482
430
447
505
481
464
522
499
436
483
441
311
446
529
292
536
533
-2205
-5912
-5153
-920
70
-2223
-2048
507
1254
465
376
642
798
1270
1493
969
470
518
682
610
482
503
514
436
511
520
274
519
892
-251
-1788
-1032
834
984
287
769
928
-1820
-5574
-5493
-1645
643
-563
-2083
-1931
-747
552
1108
872
750
864
749
600
655
722
751
916
1239
1502
1629
1888
2237
2095
1360
682
400
286
210
225
229
102
6
68
25
-151
-66
-40
-592
-881
-395
-573
-1940
-2623
-1627
-249
338
289
59
-146
-164
60
310
383
381
461
505
389
296
370
422
356
311
292
338
484
382
197
473
428
-58
638
818
-2387
-4893
-2584
-347
-1919
-3365
-2645
-1623
-440
802
955
646
769
781
575
586
645
598
591
596
591
615
588
568
687
816
944
1271
1487
1067
379
239
491
405
249
509
404
31
667
250
-3508
-5852
-2920
-304
-1564
-1770
558
1432
685
407
159
-282
-153
185
291
480
741
833
809
730
629
613
639
603
521
431
394
458
512
523
568
510
407
595
727
571
1002
1133
-1821
-5961
-5401
-765
1327
-289
-1420
-872
-79
480
635
418
359
402
269
172
188
167
126
95
65
54
28
-15
-26
-14
23
143
361
544
597
707
840
730
741
908
488
367
1109
16
-2460
-1760
92
-1772
-3605
-1857
-594
-778
521
1854
1633
1635
1928
1394
723
418
203
313
650
680
530
498
475
419
373
276
205
216
178
106
59
-49
-86
-55
-309
-349
194
-721
-3915
-5229
-2138
843
-2
-1778
-1641
-796
-199
456
700
435
374
488
426
397
499
543
521
527
555
560
536
544
606
648
610
523
491
525
509
477
474
364
342
514
296
94
667
-240
-3950
-5760
-3024
-742
-1249
-799
907
1112
556
564
272
-281
-295
-110
-26
239
543
602
583
673
794
1030
1443
1499
874
269
209
321
371
369
230
312
644
437
81
462
155
-1558
-1810
120
598
-1071
-1815
-1329
-1101
-536
484
707
426
534
621
426
402
495
341
183
296
212
-58
263
421
-791
-1692
-626
557
386
114
351
433
388
461
435
288
261
308
192
175
393
153
-110
637
199
-3246
-5705
-4056
-1517
-569
44
527
392
394
607
488
293
242
172
183
347
479
506
497
489
504
558
616
609
558
579
678
773
864
929
906
866
834
700
535
449
353
275
284
165
-248
-932
-1584
-1295
-15
442
-247
70
701
-1148
-3212
-1671
976
1246
802
1243
1525
1596
1896
1747
1063
533
288
178
129
31
-4
51
-66
-144
97
-296
-2482
-5367
-6023
-3724
-1458
-1220
-1431
-949
-487
-133
148
-89
-316
10
324
422
669
863
780
731
769
671
660
822
728
573
772
676
397
915
667
-1491
-2059
133
547
-1391
-1360
387
719
271
480
629
466
506
595
546
493
423
340
338
385
430
438
399
436
583
712
915
1197
1156
695
177
-31
269
376
-208
40
783
-1377
-4684
-3581
-262
-488
-2543
-2571
-1359
-231
628
668
294
325
425
354
448
602
636
711
792
706
552
485
491
468
341
240
323
320
144
243
296
-213
-249
288
-564
-2081
-1438
301
482
-65
41
160
5
-17
16
29
23
-80
-33
230
373
551
987
1058
492
63
97
120
47
86
107
33
20
42
-13
-41
-13
-44
31
182
-422
-1865
-2386
-1069
361
529
281
367
413
359
455
509
405
335
313
261
237
232
179
133
156
199
205
200
182
143
203
314
264
246
336
-20
-677
-897
-1181
-2097
-2482
-1451
-93
382
184
61
182
266
303
491
567
209
-137
-15
190
148
145
277
329
301
294
331
381
318
272
429
393
230
525
503
32
807
981
-2437
-4964
-2394
-75
-1311
-1361
709
1172
367
199
73
-207
-88
72
61
118
190
276
425
490
533
610
584
627
711
522
597
973
144
-1280
-630
987
723
318
1214
232
-2203
-1495
694
-337
-2631
-2777
-1788
-705
426
653
218
262
491
439
450
537
494
459
501
516
490
501
562
577
590
731
837
829
900
856
705
929
887
293
729
944
-2245
-5431
-3560
-461
-961
-2277
-1840
-1008
-141
646
383
-197
-89
129
170
361
543
589
627
599
550
614
661
645
689
728
780
990
1190
1350
1699
1790
1128
390
203
195
177
178
7
44
334
-394
-2258
-3330
-2598
-1014
133
319
30
-49
17
-3
-4
1
-45
-12
98
169
242
343
378
356
352
360
344
279
248
327
232
52
317
361
-212
232
832
-1318
-3371
-1613
-234
-2082
-2706
-1123
-663
-626
327
488
-149
-111
121
-16
59
318
493
988
1642
1512
657
188
338
400
244
225
308
316
306
328
325
307
350
360
242
283
412
-108
-718
82
923
-775
-3003
-2097
367
939
264
145
149
-137
-176
-29
-47
-117
-149
-197
-178
-73
11
81
174
241
262
251
234
290
362
295
228
273
197
124
245
91
-76
391
82
-1720
-2244
-487
670
392
299
222
-322
-438
-116
-67
-86
73
177
242
312
269
236
297
300
285
329
311
308
377
323
325
448
255
250
758
-75
-2371
-2696
-531
650
173
30
192
-76
-241
-126
-120
-155
-125
-155
-211
-210
-147
-28
95
183
268
325
314
277
255
255
254
259
322
284
153
331
415
-123
-104
579
-381
-2325
-1916
25
446
-140
-227
-257
-410
-281
-141
-162
-96
37
121
221
337
390
384
379
398
431
473
547
642
688
678
703
736
684
608
512
333
294
358
-49
-863
-1419
-1854
-2635
-3133
-2302
-601
338
179
55
290
347
267
293
291
247
276
327
376
459
535
617
724
779
871
1142
1449
1678
1768
1386
612
161
132
98
94
32
-139
252
657
-652
-2713
-2786
-1154
-83
-1
-201
-507
-772
-779
-634
-472
-294
-131
3
123
240
355
437
466
445
363
323
390
377
309
404
392
259
464
408
-50
573
801
-2322
-5134
-2899
96
-1045
-3128
-3040
-2130
-957
440
765
283
347
688
634
502
548
632
841
1202
1263
806
399
441
572
529
498
523
489
434
451
513
501
432
425
397
348
466
461
220
470
811
-303
-2132
-2320
-887
350
711
629
505
475
460
382
301
280
312
340
319
275
243
218
227
271
274
277
365
405
331
303
277
218
300
312
157
223
-127
-1728
-3084
-2323
-354
748
577
155
121
130
-59
-151
-113
-99
0
36
-207
-371
-204
-21
-42
-190
-259
-181
-316
-616
-608
-718
-1144
-946
-304
2
342
95
-1385
-1810
-150
908
471
340
634
498
313
355
309
249
331
368
267
181
217
325
414
424
381
414
478
420
405
433
176
60
405
-12
-1565
-2359
-1585
-538
48
327
340
281
373
547
618
397
37
-45
120
219
240
263
267
255
246
282
299
183
174
330
198
122
548
177
-1330
-1541
60
962
621
508
723
737
622
491
496
413
85
349
586
-1327
-3697
-2753
7
782
256
393
538
350
456
339
77
603
377
-1842
-2789
-824
181
-952
-822
534
605
155
377
465
500
829
601
227
820
1335
713
76
187
324
150
82
212
136
-25
306
258
-1332
-2776
-2318
-1682
-2009
-1545
-169
267
19
229
342
209
496
567
361
980
852
-1538
-2727
-564
1258
821
513
929
893
853
1321
1557
1543
2153
2576
776
-2244
-3163
-2214
-2016
-1940
-591
390
61
-151
97
94
8
43
5
-13
69
125
164
192
193
270
391
458
555
621
538
558
632
404
377
708
-16
-1750
-2099
-696
287
250
237
407
416
387
407
411
425
440
447
450
391
355
424
392
308
452
524
467
776
804
368
1089
1352
-2160
-5283
-2565
1008
-216
-2254
-1605
-651
-302
295
425
64
73
188
68
-42
-116
-151
-138
-205
-166
-72
-429
-865
-562
17
91
15
196
328
306
398
513
453
509
648
426
423
893
155
-1671
-1618
298
1060
556
565
860
801
812
985
1089
1198
1337
1542
1886
2017
1588
900
417
201
88
7
32
123
57
-62
38
52
-174
-38
99
-1411
-4536
-6388
-4796
-1808
-838
-1447
-1157
-101
466
657
708
631
632
564
471
572
424
313
870
77
-3415
-5540
-3016
509
1201
664
827
899
674
809
804
521
730
759
217
716
1098
-1387
-3341
-1010
903
-955
-1808
178
1126
515
469
700
608
578
576
669
713
103
-426
130
817
720
493
558
624
549
443
505
510
299
542
718
-722
-2272
-1353
413
512
19
203
295
77
156
404
537
817
1165
955
267
-75
74
181
113
74
103
79
-34
-3
94
-116
-91
409
-186
-1959
-2289
-772
227
204
254
382
347
407
505
516
583
636
538
485
500
336
226
321
133
21
459
82
-1210
-1168
-416
-1224
-2075
-1265
-371
-137
219
396
195
161
242
204
160
127
108
136
172
232
252
193
256
420
513
634
623
238
-152
-275
-121
297
-86
-1840
-2784
-1712
-972
-1503
-1214
109
643
359
308
429
442
511
630
721
804
849
899
929
854
853
860
563
433
640
-48
-1761
-2839
-2885
-2665
-1937
-561
388
266
-59
360
621
-470
-1399
-456
772
671
313
437
464
421
524
506
437
494
456
325
403
579
569
570
640
393
26
-2
-159
-800
-1400
-1787
-1864
-1024
223
510
67
22
276
310
313
439
522
551
572
589
651
715
723
751
774
732
704
640
502
458
337
74
208
224
-1036
-2566
-2848
-2451
-1738
-391
477
251
110
390
468
504
759
1006
1168
1349
1635
1973
1974
1404
642
145
-69
-190
-231
-184
-236
-292
-153
-279
-589
-227
-139
-1449
-2208
-1354
-1055
-1724
-1796
-1457
-1095
-326
207
126
200
444
383
290
363
343
264
302
338
304
329
375
319
276
317
285
253
359
330
181
296
296
31
328
415
-1076
-2136
-997
-426
-1971
-2608
-1020
393
490
307
325
329
340
343
262
242
303
283
296
468
641
882
1281
1287
654
148
196
318
269
247
233
156
154
238
207
133
259
157
-903
-2268
-2532
-1956
-1523
-739
580
1191
948
875
994
919
859
888
833
719
650
631
540
420
482
483
302
487
602
73
406
1037
-1526
-4902
-3258
489
472
-1063
-1145
-1269
-933
808
1632
960
621
653
519
570
564
260
142
260
257
192
220
230
204
279
324
194
180
260
85
121
386
-8
-11
963
-496
-4318
-4475
-1125
-566
-2320
-2100
-948
-540
253
1014
728
447
719
801
704
768
794
838
912
682
608
1002
548
-825
-781
648
966
549
938
897
426
1228
586
-3662
-5600
-1979
319
-1894
-3129
-1840
-1116
-481
977
1450
1002
1176
1420
964
561
625
752
772
740
687
705
757
731
740
786
667
602
737
595
433
838
822
-13
-255
-102
-420
-232
-167
-1844
-3102
-1704
329
948
758
585
519
519
522
527
550
556
540
508
484
490
479
488
557
552
511
571
548
448
484
388
268
523
348
-90
706
508
-3033
-4865
-1653
227
-2455
-4114
-2803
-1739
-979
351
794
361
385
589
472
433
540
568
563
557
507
479
520
552
560
626
668
615
651
667
520
622
735
328
422
845
-596
-2323
-1256
-262
-1848
-2120
122
981
220
253
572
375
430
686
645
544
494
445
477
398
343
562
377
51
767
318
-3542
-5945
-2524
1119
-602
-3490
-2645
-194
660
360
332
572
370
107
541
385
-1275
-1921
-264
951
583
448
758
674
616
702
643
767
821
635
974
1022
-462
-1747
-1510
-1174
-851
208
767
390
323
562
511
479
563
547
581
669
644
621
675
667
624
659
613
481
566
541
3
-21
732
122
-1875
-2420
-1821
-2116
-1701
449
1562
763
172
322
404
434
515
507
522
571
537
536
607
569
490
537
529
450
518
470
342
750
771
-972
-2802
-2637
-1886
-1810
-968
640
1091
562
495
717
643
563
639
699
718
690
638
635
603
555
660
711
470
398
735
788
508
757
1130
316
-1445
-2570
-1868
293
1818
1422
387
3
-41
-101
-115
-80
9
-39
-290
-296
3
38
-215
-257
-220
-432
-490
-402
-740
-745
-51
-630
-2360
-2326
-1122
-1496
-2425
-1904
-595
452
825
436
208
483
234
24
899
216
-3527
-5340
-2259
890
887
329
637
700
443
428
631
622
317
460
632
-644
-2218
-2310
-2183
-2234
-882
711
622
130
499
793
562
693
1194
822
35
543
626
-1906
-3555
-1365
940
700
210
429
423
412
392
306
665
434
-1149
-2118
-1527
-964
-847
-278
555
965
977
922
899
859
831
830
804
778
748
704
736
750
663
739
884
788
882
1132
935
1314
2346
1168
-1592
-1683
-133
-403
-733
393
694
52
123
359
181
204
351
321
359
437
396
368
354
304
331
370
391
553
653
637
878
948
665
1057
1291
-261
-1567
-1048
-1004
-1391
-30
1303
760
355
861
781
439
727
761
510
1085
1071
-1035
-2272
-421
1316
787
320
822
618
181
814
449
-2274
-3398
-608
1268
-963
-2995
-1616
269
326
-112
-158
-254
-311
-242
-282
-258
-109
19
330
589
130
-639
-822
-645
-688
-794
-767
-803
-939
-943
-730
