# session 167
-16
-67
-162
-298
-445
-584
-710
-819
-916
-1002
-1041
-997
-941
-915
-846
-724
-637
-590
-572
-633
-718
-745
-799
-956
-1151
-1327
-1440
-1437
-1374
-1322
-1245
-1130
-1030
-974
-990
-1075
-1137
-1118
-1062
-1020
-1024
-1069
-1098
-1068
-1012
-973
-945
-927
-910
-877
-831
-781
-740
-734
-751
-747
-735
-724
-629
-419
-203
-53
76
213
330
413
494
590
672
727
783
844
909
983
1012
948
843
769
746
781
854
922
922
803
648
619
678
703
763
887
984
1153
1350
1156
607
314
407
503
510
545
574
581
614
622
544
412
268
112
-4
10
128
229
279
330
381
405
417
438
462
484
503
518
520
512
518
548
558
506
421
369
365
378
393
415
437
453
446
368
220
119
128
181
304
575
916
1299
1736
1826
1174
198
-421
-656
-777
-793
-687
-614
-652
-720
-768
-812
-855
-885
-904
-926
-968
-1032
-1087
-1092
-1020
-891
-739
-577
-400
-225
-72
78
188
151
-38
-237
-347
-396
-431
-458
-475
-486
-503
-535
-567
-575
-569
-582
-609
-626
-640
-660
-674
-678
-685
-684
-681
-701
-724
-708
-682
-696
-724
-698
-608
-514
-445
-357
-260
-226
-211
-144
-90
-75
-11
80
102
98
131
164
172
182
206
241
273
271
258
293
335
286
170
94
74
73
70
43
-15
-79
-135
-184
-235
-281
-304
-330
-373
-348
-236
-165
-103
77
336
731
1247
1333
768
307
390
535
485
457
465
433
431
448
445
456
461
432
421
449
483
500
542
635
664
648
775
828
716
927
1054
617
925
1544
-228
-2541
-1310
1204
1187
350
543
541
182
211
222
37
14
46
18
85
203
294
510
950
1470
1928
2308
2397
1838
821
50
-191
-207
-208
-164
-123
-154
-218
-273
-322
-375
-460
-593
-743
-891
-1039
-1165
-1253
-1326
-1370
-1348
-1249
-1094
-916
-745
-587
-450
-377
-372
-385
-386
-378
-371
-361
-334
-312
-337
-410
-492
-534
-500
-412
-333
-276
-210
-147
-114
-107
-141
-231
-322
-336
-300
-295
-326
-357
-384
-409
-435
-478
-523
-560
-640
-773
-888
-969
-1059
-1101
-1026
-907
-835
-786
-695
-516
-271
-63
47
91
94
68
71
120
159
180
246
344
361
298
305
417
525
601
692
784
854
905
953
1002
988
926
982
1146
1318
1581
1738
1369
803
697
885
914
886
909
790
523
290
144
74
82
115
104
58
35
50
69
83
105
117
116
130
159
177
178
166
140
97
29
-66
-163
-253
-352
-442
-503
-553
-599
-621
-641
-689
-722
-707
-698
-713
-676
-563
-402
-155
150
400
637
833
668
105
-386
-540
-496
-378
-245
-179
-165
-154
-153
-132
-71
-20
23
95
157
160
131
71
-58
-176
-165
-65
34
170
332
385
338
364
443
387
209
89
60
31
-30
-115
-213
-287
-312
-330
-379
-429
-434
-359
-189
11
112
98
71
68
39
-10
-37
-63
-108
-131
-125
-129
-139
-140
-135
-111
-74
-71
-100
-121
-135
-153
-157
-141
-130
-140
-147
-136
-123
-119
-114
-110
-118
-124
-118
-100
-57
3
28
8
5
69
179
263
267
207
136
88
82
109
112
91
118
186
289
475
547
252
-133
-181
-38
-14
-36
5
31
27
42
53
39
25
13
-5
-16
-31
-70
-98
-79
-49
-39
-7
54
85
91
121
161
165
147
140
130
88
22
-42
-98
-132
-132
-141
-175
-173
-141
-131
-117
-77
-50
-27
6
25
103
303
524
783
1162
1356
1010
377
-47
-169
-193
-279
-439
-586
-682
-757
-809
-837
-874
-912
-918
-892
-837
-787
-796
-838
-840
-801
-731
-602
-424
-206
62
306
456
566
666
704
710
759
815
826
832
863
904
947
957
893
779
669
575
495
428
361
291
236
194
153
116
82
56
49
44
26
2
-2
26
56
45
8
-19
-44
-67
-86
-106
-113
-98
-101
-137
-173
-200
-232
-254
-244
-226
-240
-277
-281
-243
-222
-252
-301
-339
-358
-357
-357
-363
-350
-333
-327
-296
-272
-277
-203
-52
84
307
508
238
-355
-585
-433
-376
-431
-401
-334
-288
-237
-199
-172
-132
-90
-49
-9
23
57
93
108
123
178
255
325
382
430
475
520
557
572
552
492
409
323
243
188
170
149
65
-68
-152
-137
-89
-61
-36
-23
-21
39
129
181
301
516
691
934
1330
1392
796
58
-293
-386
-467
-517
-510
-493
-476
-453
-448
-480
-519
-543
-582
-642
-680
-687
-683
-671
-643
-602
-554
-484
-338
-116
77
172
221
248
214
151
121
93
36
4
18
37
56
79
82
81
94
128
256
490
687
781
826
783
576
261
-17
-134
-120
-134
-210
-242
-235
-266
-304
-293
-259
-244
-252
-269
-284
-309
-349
-385
-414
-448
-486
-516
-524
-490
-431
-368
-281
-162
-38
72
164
226
269
318
378
429
450
442
438
466
508
528
532
549
570
582
601
616
601
587
589
568
528
518
543
576
601
588
526
451
389
340
321
329
276
108
-86
-219
-322
-424
-494
-561
-669
-745
-710
-620
-557
-525
-517
-549
-599
-634
-638
-587
-477
-349
-229
-138
-102
-95
-81
-67
-68
-63
-54
-60
-91
-137
-162
-135
-96
-107
-128
-68
27
50
19
14
30
42
55
57
36
6
-1
33
49
27
78
210
370
654
897
634
42
-198
-76
-45
-106
-91
-93
-141
-127
-69
-43
-28
-1
16
18
32
64
93
106
110
110
98
68
42
39
42
38
39
38
9
-50
-127
-203
-259
-313
-371
-396
-372
-340
-323
-295
-257
-245
-238
-197
-159
-169
-170
-118
-70
-51
-14
25
19
-4
9
49
62
21
-26
-18
1
-15
-16
5
-3
-26
-27
-5
27
21
-19
19
153
332
549
593
265
-94
-92
62
90
81
100
79
51
73
117
153
185
207
203
178
157
143
134
143
164
173
168
173
191
216
239
242
224
196
153
92
35
-6
-34
-43
-27
4
26
23
18
37
42
-4
-56
-70
-64
-55
-49
-61
-58
-16
1
-32
-22
50
95
109
143
171
167
164
154
109
77
115
194
273
339
335
295
386
552
592
594
601
322
-168
-388
-335
-353
-439
-448
-438
-448
-434
-415
-414
-407
-398
-405
-417
-431
-458
-482
-481
-469
-460
-442
-409
-371
-335
-297
-263
-243
-226
-207
-213
-248
-266
-272
-310
-355
-360
-341
-325
-310
-289
-264
-243
-239
-239
-242
-268
-263
-147
35
201
368
569
745
846
932
1036
1045
898
729
643
567
439
314
210
100
13
-45
-113
-169
-205
-285
-341
-272
-180
-64
155
137
-339
-744
-693
-539
-532
-492
-350
-189
-20
152
296
418
514
539
487
432
436
461
461
468
498
519
545
596
627
635
677
728
730
706
672
582
434
285
155
32
-72
-150
-210
-216
-138
-52
-51
-109
-163
-219
-282
-316
-328
-351
-374
-377
-374
-389
-426
-454
-451
-448
-462
-455
-413
-376
-377
-392
-387
-351
-312
-306
-335
-349
-324
-312
-329
-315
-315
-362
-301
-126
12
242
536
385
-176
-426
-259
-165
-200
-162
-104
-91
-67
-39
-37
-36
-28
-20
-15
-18
-29
-41
-42
-20
19
61
107
173
249
311
354
374
362
322
261
174
78
-1
-63
-109
-126
-139
-167
-178
-156
-139
-143
-147
-146
-147
-140
-125
-121
-106
-43
61
205
402
591
704
743
652
472
481
614
383
-165
-434
-340
-236
-175
-76
-13
-7
2
28
66
103
126
157
202
235
263
305
353
399
441
476
500
512
508
491
450
383
321
277
233
185
147
118
98
84
70
56
49
45
37
34
46
68
76
58
29
-3
-36
-48
-38
-35
-46
-49
-45
-49
-60
-78
-95
-98
-89
-84
-81
-71
-54
-43
-41
-41
-44
-59
-79
-98
-130
-178
-217
-241
-277
-315
-329
-340
-375
-412
-425
-431
-445
-456
-461
-465
-466
-468
-482
-493
-481
-479
-506
-525
-525
-537
-560
-562
-541
-506
-476
-476
-502
-528
-542
-554
-569
-583
-584
-592
-626
-640
-646
-692
-623
-329
-25
233
566
623
143
-302
-258
-91
-92
-106
-71
-50
-26
-13
-35
-59
-65
-62
-47
-17
16
40
68
110
134
139
216
408
615
760
880
1010
1137
1226
1259
1263
1268
1247
1180
1113
1073
1028
966
923
919
924
924
939
964
980
996
1014
1016
979
886
742
587
457
361
295
240
182
137
124
119
69
-28
-97
-84
-14
94
221
287
226
112
39
-20
-108
-177
-202
-230
-277
-314
-341
-367
-372
-372
-394
-397
-367
-365
-350
-253
-142
-11
183
169
-206
-508
-450
-336
-360
-382
-371
-394
-413
-413
-459
-558
-645
-700
-744
-783
-808
-820
-829
-835
-837
-820
-792
-773
-749
-693
-633
-608
-608
-614
-642
-711
-795
-862
-919
-969
-991
-1006
-1046
-1059
-1027
-1004
-967
-883
-807
-686
-396
-41
304
776
1166
1016
484
109
-11
-82
-156
-227
-310
-371
-394
-415
-444
-464
-466
-450
-418
-382
-341
-287
-207
-112
-56
-60
-77
-56
15
131
278
431
581
710
804
876
946
1018
1099
1188
1273
1350
1425
1495
1545
1555
1555
1582
1639
1771
2003
2207
2349
2561
2698
2511
2251
2153
1888
1326
893
729
565
346
179
29
-128
-244
-328
-416
-507
-592
-645
-631
-563
-495
-471
-472
-448
-401
-382
-394
-415
-450
-475
-462
-436
-409
-373
-344
-340
-347
-356
-369
-381
-393
-406
-411
-414
-431
-453
-463
-465
-471
-479
-486
-488
-488
-494
-504
-503
-497
-502
-519
-529
-528
-536
-557
-558
-517
-461
-418
-388
-379
-394
-411
-422
-437
-451
-447
-431
-422
-430
-424
-400
-403
-420
-391
-375
-402
-345
-216
-103
100
263
-10
-505
-627
-457
-402
-422
-378
-354
-368
-359
-348
-357
-355
-342
-343
-350
-346
-340
-331
-307
-281
-259
-217
-156
-101
-52
-3
27
35
32
10
-48
-136
-226
-296
-350
-395
-416
-429
-469
-522
-534
-505
-476
-427
-338
-261
-165
83
469
931
1466
1803
1567
974
575
490
514
556
624
733
864
953
1000
1063
1145
1208
1248
1292
1357
1413
1417
1387
1381
1414
1473
1542
1608
1676
1735
1738
1684
1601
1472
1291
1113
973
844
725
642
589
538
489
463
455
406
288
146
28
-75
-164
-233
-307
-394
-467
-521
-581
-641
-685
-725
-771
-805
-829
-861
-890
-901
-913
-936
-951
-955
-962
-955
-929
-924
-943
-940
-920
-921
-938
-948
-950
-944
-941
-953
-953
-929
-906
-894
-883
-871
-856
-839
-831
-823
-810
-808
-821
-826
-821
-820
-808
-782
-771
-777
-776
-777
-794
-794
-742
-664
-607
-548
-448
-331
-246
-207
-192
-166
-116
-65
-32
-10
5
45
121
144
119
202
358
476
692
910
700
213
51
207
288
282
306
330
365
406
394
372
392
421
447
475
495
522
531
473
421
444
468
441
422
437
465
503
532
528
516
515
492
456
442
404
303
221
219
235
219
191
177
195
268
427
657
847
947
1080
1276
1363
1290
1194
1157
1228
1418
1570
1635
1816
1981
1645
873
313
201
199
84
-74
-183
-209
-193
-230
-306
-344
-373
-439
-516
-596
-676
-712
-709
-710
-711
-698
-670
-607
-511
-414
-320
-227
-167
-154
-178
-227
-282
-330
-387
-447
-505
-553
-553
-549
-603
-571
-374
-251
-208
83
487
501
56
-532
-980
-1114
-1004
-898
-872
-859
-858
-858
-831
-812
-817
-801
-766
-749
-748
-750
-750
-731
-689
-636
-562
-460
-348
-220
-76
40
110
154
149
85
19
-9
-19
-32
-52
-63
-36
36
98
97
55
34
48
64
62
57
74
109
125
117
124
136
141
176
189
139
193
380
505
655
873
716
170
-80
84
160
97
129
184
163
149
170
176
164
165
189
208
208
219
252
280
307
358
413
440
462
509
554
554
524
496
456
387
317
259
202
151
115
90
74
69
78
83
69
51
45
44
43
46
49
48
40
45
116
228
307
453
755
1010
1139
1386
1673
1510
845
169
-212
-366
-422
-444
-456
-467
-485
-497
-493
-492
-512
-541
-565
-587
-619
-656
-683
-700
-727
-741
-695
-599
-509
-419
-284
-135
-39
12
52
60
32
7
-10
-36
-51
-47
-53
-66
-62
-56
-69
-86
-95
-99
-92
-76
-75
-84
-83
-84
-92
-93
-90
-96
-102
-97
-85
-85
-100
-109
-105
-99
-90
-74
-75
-98
-108
-100
-115
-135
-112
-87
-97
-83
-16
21
-6
-34
-38
-49
-65
-70
-73
-62
-51
-78
-93
-48
-44
-82
-15
100
219
499
693
357
-163
-270
-144
-145
-174
-142
-140
-154
-152
-155
-143
-114
-111
-116
-98
-81
-75
-51
-12
18
50
93
126
151
190
240
277
296
300
285
259
224
170
119
89
60
28
19
25
13
-5
-10
-7
8
28
54
116
192
248
399
679
883
1012
1249
1338
922
288
-101
-237
-248
-180
-146
-191
-222
-225
-244
-258
-255
-263
-269
-264
-275
-304
-327
-326
-301
-274
-254
-211
-127
-36
37
106
166
196
186
149
113
95
83
59
36
33
49
63
71
70
68
75
76
49
35
70
90
54
30
45
45
29
34
48
42
28
23
21
12
2
2
5
10
16
7
-18
-27
-18
-19
-22
-18
-31
-49
-46
-45
-56
-64
-79
-98
-103
-108
-110
-97
-94
-90
-46
-7
-33
-81
-108
-123
-123
-122
-150
-172
-154
-150
-175
-173
-175
-198
-154
-60
39
205
264
-38
-404
-426
-298
-297
-311
-281
-301
-319
-286
-285
-308
-283
-255
-264
-251
-221
-215
-202
-165
-138
-109
-62
-26
6
56
93
106
133
159
153
133
104
63
35
14
-18
-36
-37
-41
-29
17
80
149
244
422
678
908
1064
1119
917
435
-7
-170
-169
-159
-146
-110
-60
-11
18
40
77
112
116
88
56
47
59
80
109
