# session 224
54
64
-2
48
55
-61
67
103
-215
118
547
-960
-2856
-2170
-728
-1453
-2650
-1862
-235
301
35
-38
100
204
311
430
602
708
447
62
44
204
192
147
187
197
171
189
257
298
267
265
324
322
332
408
369
426
679
496
315
962
604
-1690
-2358
-93
1074
-325
-1448
-1193
-509
186
508
340
266
373
380
387
371
317
411
354
196
598
466
-1607
-3245
-1782
580
987
460
568
811
637
598
901
784
596
1458
1533
-1468
-5065
-6176
-5326
-2990
239
1581
832
888
1343
-293
-2517
-2307
-1014
-1778
-3078
-1288
1408
427
-1800
-608
1767
1863
1321
1635
1731
1527
1544
1443
1245
1234
1199
1083
1049
1020
964
966
969
928
880
881
943
883
768
922
955
631
835
1029
-948
-4573
-6678
-5390
-1508
1397
124
-2670
-2166
509
1527
1126
1153
1534
1518
898
471
872
653
-557
-259
826
-828
-3108
-1709
1040
1370
725
912
1052
862
898
977
939
955
982
1000
1070
1085
1036
1010
881
585
395
454
502
385
359
456
-38
-1475
-2732
-2905
-2875
-3196
-2633
-414
1627
476
-3166
-4075
-679
2086
1912
1675
2228
2028
1309
868
519
256
232
230
146
91
73
45
37
57
10
-72
-114
-227
-319
-271
-411
-505
-177
-362
-636
576
201
-4270
-6519
-3016
-596
-1203
57
793
-2318
-3759
-983
896
447
452
931
888
869
1000
954
956
1045
996
917
924
901
829
802
815
819
812
824
852
860
831
773
709
685
652
561
554
605
553
606
675
392
426
661
-968
-3816
-4564
-3619
-3099
-1871
236
891
361
414
666
540
532
653
642
640
692
705
701
709
745
811
855
881
942
1008
1032
1012
994
976
800
609
816
874
354
625
1222
-820
-3315
-1256
1112
-2868
-6969
-3554
646
-922
-2565
-1286
-1365
-1885
7
1294
499
280
769
667
623
945
1037
1020
1135
1180
1251
1685
2157
1911
1109
626
621
728
785
659
560
748
657
342
706
739
-1400
-4969
-7079
-5051
-531
349
-2428
-1796
1318
94
-2958
-2720
-2139
-2761
-1185
1533
1920
1167
1253
1411
1220
1219
1287
1206
1141
1141
1170
1211
1213
1187
1183
1199
1188
1142
1112
1074
1035
1063
987
853
1067
1120
655
943
1313
-930
-4373
-5989
-6559
-5824
-2760
-970
-1574
-810
296
-595
-392
1521
1822
1039
1323
1794
1381
1119
1820
1555
-1012
-2420
-202
2037
1809
1397
1773
1762
1576
1640
1515
1292
1194
1016
911
1038
998
812
1028
823
-1767
-5771
-6648
-3199
-417
-1348
-2813
-2502
-2416
-3288
-2788
-301
1652
1443
503
565
1133
1287
1393
1357
990
1467
1848
-306
-2257
-287
2267
1874
907
901
663
591
1134
1325
1090
1033
1147
1088
774
950
1280
-1112
-5995
-7308
-3126
224
-231
-980
-1629
-3436
-3255
-106
1835
1433
1256
1615
1536
1431
1535
1445
1357
1468
1392
1229
1351
1224
949
1431
1497
810
2036
2935
-864
-3425
58
317
-5750
-6618
-677
1821
503
1008
808
-2490
-3849
-1194
972
743
387
565
483
371
400
286
194
266
353
473
635
774
902
977
1014
1075
1025
906
888
822
823
1004
745
426
1002
777
-2091
-5834
-7820
-6452
-2238
-114
-2537
-3794
-805
1523
1059
755
1134
1008
916
1155
1177
1101
1181
1231
1232
1274
1256
1154
1055
981
971
965
828
780
920
781
643
1121
569
-2857
-6611
-6245
-1847
1734
1205
-892
-1136
-1284
-2916
-2638
290
1686
922
770
1184
1062
960
1108
1132
1166
1266
1245
1192
1271
1367
1329
1339
1459
1369
1267
1387
1071
718
1296
902
-2150
-5655
-7498
-6700
-2803
128
-1217
-2056
592
2105
1116
936
1497
1313
1154
1307
1217
1163
1259
1186
1121
1120
971
1004
1160
861
895
1508
51
-3850
-5479
-2648
738
1406
649
905
1593
505
-1046
-774
-1058
-2904
-2216
882
1801
888
958
1324
1111
1123
1325
1295
1334
1447
1346
1329
1535
1383
1105
1470
1159
-1621
-5083
-5802
-3343
-29
1863
1139
-2320
-6428
-6695
-2009
1337
-773
-2711
-289
1863
1307
1368
1808
291
-761
781
2193
1682
1279
2033
1941
378
13
1558
2376
2242
2690
2547
1568
1496
485
-3234
-5775
-5083
-4978
-6455
-5621
-1732
1368
1712
1055
256
-1659
-3353
-2223
419
1376
901
880
1183
1153
1114
1261
1386
1445
1461
1440
1408
1355
1299
1247
1194
1224
1231
1093
1136
1229
867
878
1392
424
-886
440
643
-4096
-7074
-3174
1151
1317
111
-1730
-3718
-2352
1058
1836
954
1268
1563
1176
1622
2043
1293
1107
1112
-1162
-3158
-1266
1407
1318
582
1022
1127
511
675
1291
-29
-3804
-7216
-7094
-3298
736
1933
1385
1333
1535
1450
1385
1233
1278
1427
-101
-3339
-4995
-3276
-352
1112
967
717
988
1053
926
1303
1448
1200
2207
2750
-509
-3686
-1474
2102
1903
583
819
998
651
716
800
583
495
450
307
319
239
-78
98
341
-1422
-5184
-7618
-6486
-3623
-1792
-1195
-1058
-1163
-669
647
1323
1072
1082
1354
1319
1263
1375
1420
1390
1403
1461
1493
1446
1405
1429
1402
1303
1256
1290
1318
1265
1193
1248
1272
1134
1177
1270
1022
1092
1360
825
993
1989
-693
-5826
-5484
-821
-72
-2849
-3917
-2931
-1004
1180
1703
904
1125
1175
-1152
-2601
-150
1537
-797
-1951
626
2259
1397
1108
1708
1421
1002
1793
1715
-1474
-5303
-6586
-5732
-3367
306
2720
2303
1644
2572
2567
-259
-3970
-6462
-6256
-2890
-439
-1487
-1719
-251
-1058
-1807
785
2785
2112
1747
2122
1953
1849
2021
1903
1852
2084
2027
1683
1645
1834
1785
1691
1757
1637
1521
1688
1441
1142
1866
1466
-2230
-5918
-6399
-5753
-5550
-4392
-2315
-274
1801
2606
400
-2662
-2813
-1077
-1663
-3736
-2203
1596
724
-3653
-3634
598
2663
2128
2127
2484
2328
2290
2395
2266
2118
2023
1831
1661
1596
1555
1524
1457
1337
1343
1381
1183
1081
1214
1058
997
1311
878
581
1686
549
-3822
-4452
-459
-180
-3893
-4200
-1897
-2188
-3000
-950
1191
889
385
1191
1383
538
751
952
-1469
-3415
-1184
1645
1480
771
1188
1236
915
1074
1120
880
1012
1076
690
1024
1478
-1100
-5940
-7309
-3406
705
1223
553
1607
1938
-999
-3494
-2484
-1530
-3048
-4302
-3386
-1141
873
1401
1041
1134
1389
1291
1295
1455
1437
1348
1315
1277
1234
1191
1184
1214
1169
1113
1160
1135
1070
1202
1300
1345
1680
1677
944
613
704
383
711
1181
-1121
-5073
-7223
-7303
-4978
-749
438
-1919
-1122
2647
1412
-4200
-5141
-580
2293
1952
1590
1423
1200
1103
-851
-3950
-3722
-184
2097
1991
1718
1856
1781
1670
1702
1672
1631
1701
1764
1702
1746
2234
2741
2781
3062
3415
2433
1472
1908
438
-3076
-3088
-722
-1442
-2701
-1841
-2779
-4500
-2495
181
125
-3
22
-2468
-6047
-6814
-3347
791
431
-2827
-3767
-3187
-2963
-790
2445
3092
2243
2304
2449
2169
2172
2198
2044
1997
1867
1830
2061
1796
1466
2092
1771
-1412
-5530
-7637
-5783
-905
1183
-1643
-2989
-890
-1099
-3275
-2053
978
1598
1102
1367
1500
1530
1749
1526
1853
2605
491
-3335
-2969
1065
2957
2328
2274
2755
2772
2527
2059
1601
1578
1697
1641
1534
1536
1602
1450
1329
1590
1380
977
1900
1615
-2659
-5621
-2622
348
-1737
-4210
-4195
-4400
-3265
845
1576
-2989
-4231
257
2939
1504
914
2576
1781
-3204
-5479
-859
2678
-958
-4791
-2533
1473
2474
1972
2003
2137
1991
1902
2017
2077
1919
2017
2310
2024
2120
3126
1806
-3057
-7038
-7350
-6139
-6109
-7202
-5978
-1597
271
-2159
-3444
-2843
-3069
-1777
1482
2327
878
515
879
746
792
1066
1096
1142
1336
1543
1792
1985
2017
2025
2041
1983
1913
1885
1843
1784
1698
1609
1651
1673
1519
1545
1621
1324
1422
1780
1039
971
2419
314
-4893
-4486
296
-155
-4314
-5050
-3439
-1876
692
2628
1441
-893
-996
894
2063
1853
1832
2193
1907
1283
1153
1307
1345
1327
1294
1258
1262
1224
1212
1306
1222
1077
1284
1240
848
1406
1398
-2340
-6892
-7277
-6269
-7203
-5692
-945
-213
-3769
-3950
-214
2248
2617
1285
-2350
-4829
-2717
939
2247
2054
2059
2088
2017
1988
1859
1937
2083
1582
1456
2168
348
-4565
-6367
-2628
1244
2354
2161
413
-2600
-4385
-4218
-2378
1077
3872
3285
-431
-4909
-7234
-5669
-2332
-1286
-2846
-3746
-2274
813
3416
2059
-3164
-5528
-1589
2785
3128
2314
2586
2725
2518
2592
2633
2514
2460
2379
2260
2172
2052
1946
1877
1810
1839
1835
1684
1691
1683
1401
1544
1779
1128
1322
2373
-480
-6014
-5707
-15
1667
-1991
-3961
-1966
-440
-1547
-1641
986
2539
1693
1277
1729
1931
2284
2457
1773
1209
1327
1411
1298
1263
1220
1172
1174
1131
1084
1055
1039
1109
1072
964
1128
1037
722
1427
1398
-2061
-5388
-4678
-4032
-6041
-4865
821
2340
-3157
-6812
-4205
-1619
-3089
-4996
-3341
880
2181
-1985
-5964
-5440
-4719
-6216
-4925
466
4311
4505
4279
4600
4074
3023
2384
2113
1912
1719
1843
2027
1349
569
996
1528
1446
1641
1165
-458
-837
425
1425
1316
-951
-4548
-5328
-3206
-2691
-4844
-7093
-6520
-2211
751
-1915
-4183
-438
4000
4154
2786
2152
1422
850
909
1000
1031
1223
1342
1339
1387
1423
1375
1328
1323
1308
1244
1200
1255
1362
1452
1525
1593
1631
1577
1468
1427
1372
1254
1284
1242
986
1145
1261
608
939
1683
-1655
-6708
-5878
-1671
-1150
-1849
-300
960
1533
1203
-2567
-5586
-2454
1735
1576
193
49
7
328
1060
1086
795
887
913
780
809
847
788
777
758
698
762
837
739
741
836
626
596
1012
379
-1656
-2667
-1418
252
557
277
1014
788
-3707
-8459
-6538
-1739
-2251
-4945
-2887
1050
1749
892
996
1168
867
984
1467
1492
1563
2080
1240
-1061
-2367
-3615
-5906
-4956
-163
2241
1190
927
1523
1283
1087
1250
1157
1144
1214
1081
1161
1166
765
1057
1586
913
1123
2242
-1074
-6839
-6651
-3058
-2842
-2758
-1251
-2437
-3168
127
2268
1199
925
1603
1408
1221
1394
1267
1205
1392
1396
1265
1225
1215
1174
1137
1123
1095
1056
1080
1081
1000
1065
1268
1349
1471
1629
1269
634
565
796
746
750
818
627
710
903
422
483
1284
-213
-3595
-4872
-4593
-4575
-2582
840
1720
728
772
1281
1222
1201
1405
1443
1188
1045
1195
874
569
1423
971
-2368
-3709
-631
1746
1159
755
1176
1081
906
1098
1342
1327
1035
1429
1983
-470
-5506
-7840
-6498
-6197
-7296
-5282
-1131
-436
-2968
-4134
-3341
-2088
425
3089
1530
-3222
-4119
-671
877
196
1022
2240
1716
697
501
1045
1711
1848
1690
1767
1860
1811
1851
1905
1792
1647
1634
1660
1534
1360
1387
1377
1224
1373
1365
850
1363
1736
-2233
-7451
-6258
-1961
-2411
-3809
-781
2130
1965
1538
1181
893
1165
-1387
-5987
-5260
154
2283
1197
1513
1904
1272
2147
2587
-378
-2182
455
2338
1134
1083
2080
652
-1072
-1
1566
1516
1112
1168
1448
1392
725
1098
1955
-898
-5564
-4809
388
2828
928
-2226
-4051
-3170
-937
-306
-1063
-528
1272
1983
1445
1214
1357
1263
1171
1211
1172
1129
1126
1062
1025
1085
1133
1109
1061
1036
1031
1004
1014
1050
922
814
1014
1034
767
1199
1613
-955
-6299
-8714
-5166
-1834
-4208
-6881
-4378
-1715
-3214
-4279
-1553
1520
2116
1693
1760
1837
1721
1868
1877
1660
1939
1921
1276
2001
2448
-1277
-4900
-2193
2326
2587
1411
1744
1845
1420
1542
1637
1438
1460
1426
1278
1421
1306
972
1588
1190
-3434
-8079
-5897
-779
-1002
-3874
-2570
52
-1348
-3431
-1521
1414
1832
1681
1525
-1000
-4414
-5881
-6069
-4859
-917
2872
2260
-1432
-3485
-3132
-3210
-3372
-971
2309
3073
2349
2365
2565
2351
2364
2503
2352
2325
2491
2317
2258
2606
2177
1717
2759
1563
-3828
-5559
-510
2260
-78
-1504
-2319
-4325
-4300
-3170
-3188
-1261
2212
2921
2090
2575
3198
3160
3389
3859
4091
3864
3027
2032
1453
1210
1080
1032
988
898
827
795
730
614
569
563
422
309
323
179
142
405
210
80
942
466
-2257
-2800
-75
1185
295
94
42
-49
1004
284
-3921
-7073
-7165
-6619
-4341
343
2120
-1264
-4522
-4307
-3437
-4194
-4217
-1248
2140
2815
2123
2131
2266
2076
1976
1952
2054
1957
1468
1838
2186
-806
-5120
-4558
427
3158
1010
-2265
-3413
-3551
-3461
-1148
2329
3093
1737
1389
1766
1633
1519
1630
1622
1609
1566
1440
1445
1473
1423
1426
1304
1224
1450
1242
932
1734
1369
-2612
-6783
-7680
-6902
-5575
-3472
-2443
-2531
-874
1797
2183
1222
951
-332
-1840
-11
1469
-2300
-5184
-1668
2225
2074
1300
1664
1989
1739
611
-158
858
1926
1599
1272
1511
1497
1334
1345
1394
1456
1536
1794
2128
1814
1040
767
715
699
1263
269
-4569
-8767
-6516
-1735
-1990
-5088
-4072
7
1746
1114
916
1248
1295
1336
1452
1439
1443
1499
1460
1373
1303
1203
1084
1000
949
909
880
852
811
772
731
669
659
721
684
578
671
781
639
670
814
463
447
1048
-13
-2592
-3235
-2033
-1873
-2908
-4053
-4211
-1925
1169
1838
773
325
417
412
477
528
477
490
498
437
440
501
526
532
537
539
567
617
663
726
804
829
857
1008
1036
806
828
958
523
394
1012
-97
-4058
-7698
-8090
-5780
-3095
-1960
-2638
-3560
-2800
-510
989
866
703
1060
1197
1210
1351
1343
1263
1311
1322
1263
1296
1346
1272
1214
1291
1366
1483
1708
1714
1415
996
545
746
1421
-64
-4423
-7298
-4773
594
2136
-1575
-3933
-1892
-881
-3050
-4281
-3097
-951
1169
2007
1601
1520
1820
1801
1779
1830
1648
1471
1472
1444
1375
1354
1320
1265
1221
1171
1146
1156
1146
1118
1071
1045
1128
1148
1006
1045
1105
866
996
1221
393
25
734
-1320
-5734
-5993
-1868
340
-878
-2099
-1304
592
1428
940
768
1057
975
844
920
869
798
790
667
608
619
436
391
544
314
302
880
225
-1405
-1010
665
1033
1275
1267
-1950
-6395
-7432
-5977
-5785
-6948
-5910
-1133
2326
-266
-4033
-2374
1743
2729
1714
1563
1763
1622
1652
1728
1592
1534
1557
1469
1377
1363
1358
1299
1180
1093
1081
1084
1132
1206
1236
1374
1520
1413
1509
1758
1377
1350
2082
723
-2459
-3277
-2598
-3787
-5676
-6847
-6339
-2810
-299
-1504
-1181
862
-450
-1797
911
3313
2336
232
-440
1221
2873
1928
627
1424
2436
2221
1999
2183
2138
2021
2096
2089
2028
2077
1968
1897
2313
2456
2137
2735
2984
-229
-5121
-7042
-5966
-5349
-6016
-4991
-1115
1128
-1123
-3451
-2799
-2421
-3241
-1463
2339
2337
-1854
-3561
-541
2269
2101
1160
1548
2269
775
-1891
-1505
1322
2217
1375
1340
1607
1358
1234
1252
1116
1031
995
869
718
572
