# session 144
385
258
138
-9
-192
-350
-442
-512
-630
-806
-986
-1098
-1126
-1142
-1187
-1216
-1196
-1170
-1168
-1157
-1097
-1022
-985
-954
-859
-713
-601
-566
-515
-331
-155
-267
-601
-822
-849
-843
-857
-862
-881
-921
-971
-1054
-1174
-1281
-1363
-1449
-1534
-1596
-1637
-1654
-1645
-1629
-1608
-1546
-1437
-1315
-1224
-1199
-1228
-1273
-1328
-1404
-1478
-1528
-1566
-1595
-1597
-1583
-1586
-1585
-1521
-1427
-1429
-1485
-1346
-939
-495
-166
107
332
438
478
548
626
674
738
832
899
955
1034
1060
1062
1188
1363
1468
1619
1688
1384
1016
1040
1228
1247
1209
1221
1210
1201
1218
1220
1222
1250
1263
1250
1244
1251
1269
1304
1334
1340
1339
1349
1358
1347
1314
1273
1206
1088
953
841
750
687
666
660
633
591
562
548
500
421
414
491
540
525
491
429
337
263
219
163
76
2
-19
-55
-132
-115
4
85
133
92
-214
-554
-555
-384
-352
-374
-338
-321
-337
-334
-315
-305
-314
-329
-323
-302
-276
-247
-223
-144
71
336
549
791
1101
1354
1500
1492
1168
587
70
-270
-560
-816
-991
-1147
-1310
-1409
-1454
-1531
-1638
-1703
-1708
-1690
-1698
-1763
-1848
-1886
-1886
-1881
-1861
-1830
-1791
-1699
-1600
-1555
-1426
-1149
-882
-637
-447
-563
-830
-769
-479
-351
-324
-232
-140
-60
49
136
192
271
348
359
317
289
302
331
365
413
468
518
580
643
652
605
561
520
440
349
307
317
338
334
311
289
281
287
287
270
296
411
560
723
911
1067
1233
1523
1761
1595
1012
347
-103
-281
-318
-342
-356
-340
-331
-342
-349
-365
-398
-417
-424
-453
-489
-493
-466
-414
-332
-214
-44
152
301
380
421
439
435
420
394
370
358
338
321
339
348
288
223
241
299
296
234
194
207
230
236
249
294
360
412
434
460
512
536
494
426
387
384
393
396
394
408
427
411
401
468
557
650
826
894
600
230
182
295
286
221
195
153
93
46
12
0
0
-46
-122
-148
-148
-198
-212
-112
-31
-39
2
88
62
-37
-96
-168
-288
-381
-448
-533
-607
-650
-695
-738
-776
-820
-840
-821
-835
-896
-920
-888
-873
-904
-930
-910
-866
-847
-844
-829
-810
-802
-840
-928
-965
-895
-753
-514
-295
-405
-741
-828
-661
-592
-622
-574
-499
-501
-556
-586
-546
-460
-389
-356
-337
-297
-229
-149
-21
194
428
603
761
960
1106
1024
635
75
-348
-408
-198
32
198
344
465
544
613
697
777
849
966
1158
1333
1385
1338
1231
977
571
249
199
314
454
629
784
842
926
1082
1163
1246
1399
1250
731
402
418
398
289
244
185
83
13
-58
-130
-151
-179
-237
-237
-185
-157
-139
-123
-145
-184
-233
-331
-449
-529
-597
-662
-699
-730
-762
-745
-690
-669
-688
-693
-666
-608
-532
-490
-487
-445
-335
-227
-174
-141
-88
-18
88
232
348
532
922
1236
1066
565
155
-74
-196
-219
-195
-186
-155
-89
-42
-21
13
45
49
39
16
-34
-98
-157
-198
-205
-161
-60
61
162
247
317
335
310
293
299
319
337
326
294
287
302
297
275
267
270
252
216
200
207
196
141
76
73
148
210
193
152
142
132
109
102
95
56
25
9
-56
-124
-119
-119
-47
225
288
-194
-654
-578
-346
-335
-361
-283
-205
-164
-124
-120
-174
-243
-313
-396
-468
-529
-600
-644
-653
-690
-752
-781
-805
-853
-868
-836
-814
-789
-734
-687
-661
-626
-572
-503
-434
-390
-356
-299
-233
-176
-115
-66
-59
-68
-54
-8
75
195
311
382
410
448
518
535
493
527
603
579
564
596
385
-87
-444
-606
-770
-924
-1006
-1129
-1323
-1407
-1279
-1105
-1046
-1052
-1062
-1097
-1086
-946
-760
-596
-367
-36
275
488
643
808
982
1107
1174
1252
1327
1325
1300
1315
1316
1302
1325
1328
1301
1337
1398
1392
1393
1454
1492
1485
1482
1465
1427
1414
1432
1442
1427
1417
1415
1378
1350
1410
1477
1528
1652
1628
1237
877
934
1112
1124
1127
1186
1164
1089
1083
1147
1209
1207
1097
852
465
6
-414
-751
-1018
-1236
-1427
-1615
-1786
-1934
-2086
-2248
-2410
-2575
-2738
-2871
-2956
-3011
-3069
-3126
-3103
-2927
-2672
-2447
-2246
-2079
-1963
-1724
-1300
-973
-779
-445
-156
-336
-791
-1048
-1063
-994
-860
-660
-451
-288
-165
-41
85
172
196
163
96
21
-47
-96
-110
-70
39
199
347
458
550
614
636
633
621
609
620
648
666
687
735
796
870
945
979
999
1071
1163
1205
1218
1258
1276
1071
514
-116
-409
-383
-311
-254
-157
-34
98
219
277
258
198
117
37
22
75
106
113
160
152
89
195
409
510
625
709
376
-130
-210
-33
-45
-132
-131
-153
-203
-203
-199
-223
-227
-213
-229
-269
-291
-279
-246
-208
-171
-136
-103
-76
-72
-95
-134
-198
-294
-392
-463
-519
-564
-589
-602
-621
-648
-652
-603
-529
-465
-398
-277
-48
279
565
738
977
1339
1453
1006
246
-317
-497
-476
-445
-417
-375
-345
-310
-262
-249
-258
-223
-163
-114
-36
67
137
209
348
538
755
974
1148
1279
1389
1450
1477
1536
1588
1573
1538
1525
1540
1615
1715
1778
1826
1858
1839
1823
1831
1821
1845
1919
1935
1887
1870
1854
1741
1518
1247
964
675
410
164
-127
-455
-742
-990
-1223
-1402
-1563
-1757
-1889
-1948
-2041
-2080
-1995
-1948
-1884
-1727
-1891
-2476
-2826
-2699
-2577
-2654
-2716
-2720
-2732
-2720
-2660
-2589
-2540
-2488
-2388
-2252
-2116
-1964
-1774
-1574
-1383
-1183
-961
-721
-499
-353
-309
-319
-316
-304
-330
-366
-340
-276
-224
-178
-154
-163
-148
-76
31
143
215
243
300
415
504
519
525
588
687
808
960
1076
1112
1167
1252
1215
1145
1268
1367
1097
703
590
654
664
674
736
772
766
769
787
788
768
757
758
746
731
734
741
737
750
803
875
944
1004
1059
1093
1120
1163
1213
1248
1273
1298
1305
1300
1311
1340
1379
1411
1405
1372
1357
1330
1240
1127
1030
902
716
516
355
240
138
35
-62
-177
-288
-316
-295
-288
-225
-112
-28
113
204
-103
-612
-765
-626
-609
-709
-757
-787
-846
-899
-923
-933
-967
-1040
-1118
-1160
-1171
-1169
-1149
-1085
-976
-845
-708
-592
-549
-597
-693
-786
-860
-933
-1012
-1072
-1094
-1117
-1155
-1165
-1132
-1069
-984
-926
-932
-903
-746
-570
-470
-368
-260
-233
-239
-202
-162
-159
-196
-253
-275
-299
-350
-272
-79
21
103
198
37
-237
-187
16
30
-4
36
30
-6
-13
-31
-31
1
-6
-17
43
112
160
258
379
437
473
559
638
630
554
467
382
290
200
132
98
97
120
148
148
129
155
215
232
214
232
300
394
498
584
666
817
1002
1138
1334
1677
1850
1510
856
362
198
205
220
216
229
244
241
232
212
168
118
73
16
-54
-122
-162
-153
-109
-48
26
97
160
227
293
326
301
243
197
151
87
38
5
-42
-84
-96
-98
-104
-130
-171
-168
-130
-161
-261
-320
-317
-318
-346
-347
-280
-195
-191
-244
-245
-215
-244
-282
-254
-244
-310
-359
-374
-409
-367
-234
-164
-22
295
292
-236
-623
-541
-434
-492
-520
-502
-505
-503
-508
-514
-481
-444
-431
-405
-367
-336
-281
-201
-131
-62
21
83
123
173
195
159
122
106
64
13
5
15
9
14
45
65
58
68
125
172
185
247
371
506
676
859
989
1189
1439
1361
867
371
99
-52
-117
-111
-120
-142
-128
-123
-158
-183
-187
-214
-254
-265
-270
-294
-290
-236
-154
-19
139
235
384
729
1107
1314
1359
1337
1419
1555
1288
572
24
-114
-166
-245
-277
-314
-368
-396
-445
-521
-570
-612
-686
-761
-799
-794
-754
-697
-650
-606
-545
-486
-474
-521
-589
-636
-653
-647
-626
-620
-653
-705
-725
-681
-610
-581
-569
-508
-459
-477
-427
-295
-347
-679
-1031
-1207
-1275
-1316
-1316
-1258
-1148
-1002
-857
-725
-578
-411
-257
-131
-25
75
190
319
458
615
792
968
1131
1274
1381
1448
1479
1476
1437
1364
1268
1173
1106
1064
1018
967
934
932
958
994
1010
994
959
929
901
868
861
924
1022
1071
1089
1134
1157
1189
1351
1537
1605
1665
1542
832
-114
-585
-691
-901
-1169
-1324
-1440
-1571
-1690
-1791
-1867
-1929
-1984
-2017
-2051
-2070
-1998
-1879
-1816
-1728
-1513
-1265
-1069
-892
-683
-423
-189
-59
66
275
474
599
720
865
994
1112
1223
1286
1342
1426
1407
1300
1390
1691
1882
1913
1990
2147
2259
2069
1358
442
-100
-240
-300
-352
-374
-381
-308
-238
-352
-511
-497
-434
-460
-483
-473
-516
-599
-665
-697
-686
-632
-573
-524
-479
-462
-494
-549
-608
-666
-682
-646
-641
-670
-626
-520
-481
-519
-545
-541
-536
-530
-521
-512
-500
-490
-490
-483
-458
-442
-447
-419
-331
-247
-232
-259
-267
-256
-258
-240
-189
-174
-185
-154
-144
-142
-21
125
258
575
774
348
-250
-306
-80
-46
-86
-60
-55
-56
-19
10
30
62
83
94
120
161
203
251
310
376
438
483
506
515
519
507
459
385
320
273
235
219
227
230
212
193
204
241
261
247
235
247
269
284
269
209
146
134
132
103
93
104
92
86
95
102
156
242
344
529
602
285
-125
-181
-45
-29
-60
-44
-43
-57
-52
-50
-55
-57
-52
-29
0
15
39
90
130
154
195
235
247
247
232
181
115
53
-8
-53
-77
-101
-124
-130
-132
-146
-159
-154
-130
-100
-85
-58
31
130
189
311
508
636
767
1037
1155
818
271
-113
-305
-403
-436
-447
-469
-475
-467
-485
-514
-527
-553
-594
-609
-615
-640
-645
-608
-550
-476
-370
-244
-129
-38
45
107
107
60
26
11
-13
-42
-58
-58
-50
-44
-43
-33
-19
-22
-29
-22
-17
-23
-32
-46
-60
-49
-25
-25
-34
-10
27
31
2
-25
-33
-40
-58
-64
-60
-72
-65
-42
-71
-83
15
133
273
466
393
-65
-383
-294
-169
-184
-173
-136
-143
-148
-141
-142
-122
-86
-71
-62
-40
-12
23
69
123
195
271
310
333
372
379
317
241
178
93
7
-25
-18
-25
-52
-66
-56
-39
-24
0
21
17
22
74
139
148
93
32
12
10
-3
-8
-22
-36
5
24
-51
-29
144
260
389
570
376
-156
-352
-165
-95
-143
-105
-82
-111
-99
-83
-88
-67
-41
-42
-30
4
30
62
124
199
254
294
336
358
341
302
233
118
18
-16
-46
-101
-114
-97
-115
-142
-129
-92
-42
-7
1
90
342
621
790
950
1260
1572
1460
792
40
-336
-421
-466
-495
-498
-516
-530
-529
-541
-569
-609
-661
-696
-705
-719
-733
-725
-682
-586
-436
-256
-76
71
157
184
180
164
138
104
73
54
39
31
34
26
6
13
40
28
-17
-29
-12
-19
-37
-31
-25
-54
-90
-83
-45
-36
-51
-39
-9
12
35
39
0
-37
-35
-28
-41
-52
-39
-7
-14
-63
-26
109
238
457
709
532
-48
-347
-211
-108
-146
-136
-105
-119
-125
-109
-96
-81
-68
-55
-29
-3
17
54
112
155
175
215
279
317
312
297
271
221
153
83
26
-4
-17
-38
-65
-77
-72
-65
-49
-20
-14
-35
-27
21
52
47
21
-21
-49
-41
-33
-52
-64
-47
-41
-72
-59
28
100
220
440
419
7
-309
-248
-130
-141
-143
-116
-117
-123
-114
-100
-85
-75
-60
-39
-16
14
42
71
126
184
209
236
274
267
222
192
156
90
36
19
2
-23
-18
19
32
-6
-42
-15
45
54
15
13
64
90
62
18
-11
-23
-32
-44
-55
-62
-53
-40
-62
-82
-38
16
110
337
422
85
-301
-322
-206
-219
-245
-215
-215
-231
-215
-198
-194
-176
-142
-113
-87
-48
-5
28
65
122
177
209
219
218
206
167
101
33
-20
-68
-121
-158
-163
-162
-187
-219
-225
-210
-188
-169
-158
-138
-97
-68
-76
-103
-120
-123
-127
-132
-131
-137
-135
-103
-112
-154
-72
90
188
311
368
59
-339
-327
-114
-90
-137
-100
-70
-75
-75
-79
-76
-57
-41
-24
8
41
79
141
217
291
365
433
482
509
499
430
336
267
207
132
72
54
44
25
10
-9
-34
-34
-1
28
32
54
158
313
428
531
692
836
943
1188
1473
1332
689
59
-243
-357
-401
-394
-415
-463
-451
-417
-444
-499
-532
-559
-594
-637
-685
-715
-720
-710
-666
-569
-442
-299
-139
-14
33
59
95
88
51
45
44
17
5
14
13
18
45
55
22
-14
-8
23
22
-19
-52
-46
-30
-45
-69
-49
6
50
58
26
-16
-36
-45
-51
-47
-49
-40
-19
-46
-45
83
213
359
651
698
186
-299
-271
-124
-162
-190
-154
-161
-176
-159
-148
-145
-132
-114
-92
-72
-59
-30
30
97
153
201
254
299
302
278
273
249
155
64
34
-7
-66
-63
-29
-37
-58
-48
-28
-25
-35
-25
13
35
12
-19
-36
-65
-100
-101
-69
-48
-51
-37
-15
-25
-8
74
168
323
503
378
-59
-298
-186
-93
-136
-146
-112
-110
-122
-118
-104
-81
-65
-59
-37
-5
12
37
92
143
181
224
253
260
265
245
183
124
80
17
-31
-21
-5
-29
-48
-33
-26
-40
-36
-15
-11
-13
12
49
60
39
-4
-37
-33
-33
-60
-55
-19
-33
-77
-88
-27
201
494
406
-115
-444
-299
-113
-121
-132
-101
-116
-136
-126
-125
-132
-124
-112
-100
-85
-61
-23
17
46
85
161
252
315
344
351
332
282
207
122
57
17
-19
-50
-68
-79
-86
-95
-116
-134
-125
-111
-104
-86
-55
-29
-34
-91
-145
-127
-109
-156
-173
-145
-160
-172
-147
-149
-105
33
170
321
380
71
-369
-416
-209
-166
-224
-201
-156
-145
-137
-126
-123
-123
-110
-78
-49
-28
12
73
145
219
271
308
356
383
353
286
202
114
43
-24
-93
-125
-131
-155
-172
-165
-167
-152
-105
-101
-124
-32
163
301
405
590
757
862
1127
1445
1307
684
-14
