# session 93
8
104
347
352
-109
-656
-924
-965
-946
-940
-956
-955
-931
-931
-952
-949
-940
-959
-988
-1010
-1030
-1031
-977
-865
-723
-549
-350
-198
-141
-130
-121
-137
-174
-185
-172
-163
-155
-142
-120
-97
-98
-120
-115
-78
-54
-56
-53
-38
-28
-24
-17
-6
4
14
15
10
3
-3
1
9
10
16
22
14
25
60
72
58
57
70
81
92
98
103
113
112
95
81
72
63
65
77
92
104
106
102
94
82
80
97
105
91
94
141
187
184
154
133
120
117
120
100
81
97
87
47
106
241
362
526
567
202
-247
-285
-109
-87
-116
-77
-75
-114
-109
-89
-98
-99
-73
-54
-53
-44
-19
5
32
80
144
198
237
276
306
304
276
239
192
134
82
36
-25
-93
-133
-133
-121
-126
-130
-96
-48
-21
23
110
255
518
812
979
1177
1517
1532
903
138
-246
-368
-438
-446
-423
-442
-476
-490
-497
-521
-562
-597
-631
-687
-740
-759
-770
-783
-751
-644
-486
-312
-140
14
125
174
169
138
94
39
8
4
-9
15
99
132
140
286
473
581
840
1296
1532
1295
721
71
-342
-390
-308
-298
-305
-289
-297
-322
-338
-344
-326
-284
-273
-326
-405
-454
-460
-431
-367
-269
-145
-11
103
177
211
199
149
104
77
40
-8
-35
-34
-41
-80
-99
-49
5
12
21
46
44
34
51
61
43
33
38
39
33
31
26
15
6
-1
-7
-8
-7
-16
-25
-17
-12
-31
-50
-52
-48
-37
-20
-29
-62
-65
-42
-53
-84
-63
16
76
75
50
26
-4
-14
8
10
0
18
-2
-38
66
234
346
559
715
353
-226
-334
-132
-103
-158
-119
-90
-105
-100
-88
-77
-47
-24
-33
-31
2
37
74
140
205
247
290
332
353
371
366
306
234
192
140
59
-4
-39
-81
-120
-125
-120
-139
-165
-159
-124
-103
-109
-99
-50
-11
-23
-54
-74
-94
-111
-110
-100
-109
-115
-87
-82
-121
-81
48
165
345
498
250
-246
-389
-203
-135
-173
-137
-114
-147
-139
-102
-90
-84
-68
-53
-30
-12
-5
34
105
153
192
261
321
352
365
338
269
196
110
6
-56
-71
-100
-134
-129
-118
-128
-134
-134
-135
-125
-119
-123
-101
-63
-61
-90
-109
-119
-126
-123
-119
-127
-123
-96
-103
-128
-64
50
119
212
246
-8
-334
-339
-175
-139
-152
-119
-112
-126
-119
-109
-100
-85
-72
-51
-26
-9
16
57
101
152
217
275
327
378
400
377
328
250
134
21
-46
-86
-124
-147
-146
-145
-157
-161
-141
-118
-98
-57
23
133
249
351
473
647
824
990
1235
1501
1455
909
177
-282
-398
-409
-436
-443
-431
-433
-432
-428
-455
-496
-518
-551
-608
-651
-684
-729
-747
-710
-632
-509
-349
-185
-35
79
130
133
125
115
89
47
25
41
48
38
48
69
66
62
80
100
108
100
74
53
66
85
72
54
80
140
187
186
142
96
82
87
88
65
38
64
79
17
39
208
350
529
757
556
-76
-368
-161
-29
-101
-119
-98
-119
-121
-104
-112
-122
-115
-104
-91
-64
-35
-11
28
95
167
232
300
348
353
331
297
233
139
43
-38
-103
-144
-158
-168
-189
-206
-202
-181
-151
-131
-124
-102
-52
-11
-7
-36
-81
-118
-132
-123
-117
-143
-155
-123
-134
-146
-33
93
177
360
388
-28
-416
-352
-199
-234
-245
-175
-154
-164
-145
-117
-93
-76
-72
-65
-43
-9
33
74
114
176
265
335
363
386
400
347
235
134
57
-21
-84
-113
-124
-127
-120
-125
-149
-149
-114
-93
-104
-89
-30
13
-4
-46
-71
-82
-91
-76
-57
-77
-74
-17
-21
-50
50
188
293
485
540
162
-255
-256
-96
-87
-118
-97
-91
-87
-63
-66
-85
-63
-23
-17
-17
16
60
97
138
180
226
278
321
350
353
305
231
170
93
13
-11
-12
-46
-75
-73
-71
-74
-76
-68
-27
14
37
104
209
293
424
594
693
848
1138
1180
737
173
-162
-313
-379
-389
-395
-410
-417
-425
-437
-449
-471
-501
-533
-572
-607
-627
-642
-642
-598
-504
-386
-267
-146
-29
56
93
97
79
37
-7
-32
-52
-75
-87
-80
-72
-80
-96
-95
-83
-91
-106
-91
-78
-101
-124
-115
-103
-113
-117
-82
-23
32
64
53
11
-17
-14
6
17
8
20
37
-1
22
177
293
440
723
653
54
-309
-131
13
-46
-36
2
-17
3
36
29
25
29
38
76
106
114
144
183
215
286
378
434
471
501
491
452
391
289
185
112
36
-27
-35
-34
-68
-96
-85
-59
-44
-41
-26
28
108
178
233
287
382
563
763
901
1101
1419
1506
1059
339
-183
-396
-469
-504
-507
-505
-522
-543
-560
-578
-589
-613
-667
-722
-763
-805
-838
-852
-856
-822
-720
-572
-415
-255
-107
-13
12
-3
-27
-56
-86
-100
-101
-99
-89
-74
-63
-50
-32
-17
-9
-14
-29
-32
-17
-19
-38
-22
50
113
117
86
57
41
40
49
38
14
33
69
42
45
168
284
433
704
673
120
-308
-218
-65
-112
-142
-103
-93
-95
-80
-64
-53
-37
-1
35
40
47
91
149
205
260
316
378
434
458
452
420
349
254
167
92
24
-31
-65
-79
-95
-119
-113
-68
-38
-44
-44
-14
26
49
30
-22
-60
-70
-70
-70
-82
-83
-40
-25
-57
1
122
206
392
584
337
-179
-330
-155
-100
-146
-120
-98
-121
-122
-102
-96
-94
-83
-64
-48
-29
0
38
92
151
189
227
285
314
293
266
226
135
26
-49
-101
-142
-151
-144
-162
-189
-184
-158
-142
-133
-128
-129
-103
-49
-39
-88
-122
-124
-142
-162
-144
-118
-106
-82
-77
-95
-33
77
133
229
310
94
-260
-314
-155
-108
-133
-114
-99
-102
-96
-95
-94
-83
-75
-69
-55
-35
-15
15
61
110
153
200
254
299
316
295
240
161
74
-2
-59
-101
-125
-135
-154
-186
-202
-194
-182
-177
-182
-176
-130
-72
-64
-98
-118
-119
-126
-117
-96
-100
-82
-42
-78
-93
60
206
298
509
536
76
-331
-260
-107
-126
-120
-77
-96
-98
-46
-11
-7
4
26
41
55
89
129
156
198
273
347
401
443
460
433
375
290
161
40
-11
-30
-71
-94
-83
-83
-99
-105
-96
-76
-61
-62
-21
76
154
201
269
349
458
646
827
966
1239
1556
1455
829
140
-257
-404
-434
-431
-445
-461
-455
-470
-522
-555
-569
-615
-662
-677
-719
-798
-836
-816
-784
-720
-595
-438
-289
-152
-31
56
79
45
7
-9
-37
-73
-79
-74
-82
-73
-50
-49
-45
-15
1
-15
-21
-3
4
-7
3
55
117
139
108
64
40
31
31
39
31
30
52
22
2
134
265
337
636
888
478
-171
-268
-70
-63
-94
-53
-69
-83
-47
-53
-79
-58
-35
-41
-32
2
31
46
78
140
208
265
321
365
371
337
282
224
150
48
-33
-61
-74
-92
-101
-116
-136
-128
-98
-80
-75
-41
62
180
245
332
520
697
816
1056
1350
1288
779
212
-151
-344
-420
-430
-446
-464
-459
-458
-477
-502
-523
-539
-565
-605
-638
-654
-655
-625
-565
-479
-346
-185
-51
56
139
161
141
126
93
37
16
17
-2
-15
-17
-35
-31
6
9
-17
-9
15
10
-10
-30
-27
0
5
-13
10
64
88
73
42
19
11
-2
-8
0
-8
-7
17
-9
-26
72
166
243
458
530
143
-276
-274
-132
-134
-148
-120
-118
-99
-63
-75
-100
-86
-59
-39
-8
28
65
108
159
214
271
325
369
390
384
359
325
269
187
109
53
13
-20
-38
-52
-73
-89
-89
-68
-34
-19
-1
90
205
263
358
534
656
772
990
1042
690
192
-142
-311
-385
-403
-420
-446
-462
-476
-493
-504
-510
-523
-554
-594
-628
-667
-710
-736
-722
-650
-514
-354
-200
-45
88
159
182
178
146
115
113
117
103
87
85
92
100
97
90
95
101
82
59
70
77
49
30
42
39
25
59
128
185
207
173
122
119
130
116
116
122
116
123
102
73
173
334
492
816
1008
529
-182
-307
-75
-53
-131
-106
-95
-119
-106
-97
-110
-97
-89
-109
-103
-68
-62
-48
28
102
134
182
265
324
310
248
189
121
-3
-135
-206
-246
-302
-348
-360
-357
-352
-336
-313
-307
-311
-283
-225
-169
-135
-142
-195
-239
-249
-247
-234
-217
-228
-225
-202
-232
-213
-44
95
190
384
336
-181
-552
-405
-223
-262
-272
-219
-219
-228
-222
-218
-182
-170
-184
-125
-112
-182
129
903
1367
1195
956
951
945
856
752
625
479
334
188
78
25
-13
-63
-105
-129
-148
-161
-149
-119
-106
-111
-100
-63
-14
36
70
94
145
249
407
566
693
914
1352
1741
1605
891
92
-361
-497
-529
-538
-536
-553
-580
-589
-587
-597
-620
-643
-675
-725
-763
-762
-771
-809
-801
-708
-580
-445
-296
-158
-49
33
63
38
19
30
27
-5
-24
-17
-10
-6
2
2
2
19
20
-19
-33
17
55
37
34
87
124
109
83
66
49
61
89
63
24
64
96
44
61
171
240
459
875
866
228
-265
-223
-109
-161
-190
-163
-162
-160
-143
-138
-134
-113
-87
-65
-41
-17
9
49
105
164
219
273
324
356
356
330
279
197
113
55
6
-34
-41
-41
-64
-74
-61
-41
38
147
216
377
692
936
1101
1315
1265
706
59
-265
-374
-439
-458
-443
-446
-483
-518
-521
-534
-574
-593
-600
-629
-649
-645
-635
-595
-494
-351
-202
-72
33
106
138
125
90
61
45
27
8
6
12
11
14
25
28
26
33
35
27
22
19
10
-1
-5
-11
-19
-16
-15
-36
-58
-49
-31
-39
-40
11
70
72
38
27
33
21
9
21
33
35
37
9
-1
96
225
386
700
811
309
-287
-330
-124
-108
-152
-131
-131
-139
-119
-112
-109
-86
-62
-56
-51
-24
20
49
69
117
189
256
309
345
354
334
294
234
154
64
-12
-67
-108
-126
-131
-147
-141
-96
-66
-45
26
132
301
615
968
1200
1393
1548
1333
659
-23
-368
-489
-548
-553
-539
-550
-561
-561
-569
-588
-625
-675
-716
-754
-790
-813
-834
-832
-732
-541
-345
-157
54
288
576
885
1046
1134
1493
1968
1920
1239
437
-122
-394
-446
-443
-492
-538
-534
-539
-590
-652
-701
-764
-850
-922
-951
-933
-853
-705
-518
-332
-164
-3
141
225
235
198
158
152
164
144
109
109
127
126
123
128
126
118
119
126
124
117
120
133
141
138
130
123
123
126
119
101
98
117
115
85
87
116
101
65
70
78
52
44
71
84
74
60
46
52
73
67
42
47
64
59
49
44
23
0
-1
8
6
-12
-21
22
95
122
89
53
38
42
49
23
6
47
59
28
99
235
368
646
835
437
-194
-324
-122
-88
-143
-121
-117
-136
-116
-92
-93
-100
-92
-64
-41
-40
-34
-22
-11
11
47
92
143
163
146
135
130
103
59
12
-39
-85
-125
-156
-166
-160
-159
-163
-160
-148
-126
-107
-105
-98
-62
-23
-24
-62
-94
-108
-128
-146
-133
-122
-142
-138
-114
-128
-116
-21
99
244
312
46
-373
-460
-274
-202
-232
-212
-198
-209
-185
-157
-156
-140
-105
-81
-62
-34
-5
24
68
134
212
280
332
378
401
375
312
232
138
56
8
-21
-43
-40
-32
-42
-51
-43
-19
17
40
31
25
49
75
71
38
3
-19
-28
-23
-16
-26
-20
5
-16
-17
88
207
349
560
498
4
-362
-269
-108
-119
-133
-105
-102
-111
-122
-124
-94
-70
-74
-68
-45
-21
11
57
109
163
215
275
340
373
368
342
279
177
81
-4
-96
-154
-160
-162
-179
-188
-197
-201
-181
-163
-173
-165
-121
-75
-51
-70
-115
-134
-137
-156
-150
-126
-127
-126
-138
-170
-75
114
206
324
482
257
-255
-393
-167
-71
-105
-80
-65
-78
-51
-36
-59
-56
-26
-15
-16
4
39
70
116
193
264
331
418
468
433
381
338
246
105
-16
-86
-122
-148
-172
-192
-208
-222
-217
-184
-159
-171
-169
-72
92
202
243
351
551
711
856
1146
1438
1347
789
124
-278
-413
-472
-502
-463
-427
-451
-470
-460
-467
-495
-522
-554
-582
-601
-639
-689
-709
-684
-611
-486
-343
-208
-72
48
118
143
136
108
82
60
36
27
41
59
61
55
65
91
109
109
106
105
91
67
61
69
60
50
88
161
199
167
113
96
106
105
82
50
56
108
99
38
99
223
306
587
950
724
6
-331
-183
-114
-179
-154
-115
-134
-122
-75
-50
-45
-48
-59
-60
-34
-6
-3
3
37
80
124
177
223
240
239
229
185
99
15
-39
-86
-132
-145
-134
-143
-159
-149
-122
-105
-103
-98
-61
-14
-14
-56
-88
-99
-115
-129
-126
-124
-133
-111
-92
-134
-121
11
128
271
456
308
-188
-424
-274
-192
-248
-229
-178
-189
-210
-204
-185
-167
-162
-152
-121
-83
-41
0
41
107
206
285
329
367
396
388
342
252
132
35
-9
-34
-70
-98
-95
-68
-62
-90
-95
-39
16
40
103
211
313
459
638
730
827
1049
1107
745
238
-82
-230
-304
-329
-344
-360
-368
-387
-416
-434
-448
-469
-492
-515
-539
-556
-562
-555
-507
-410
-300
-181
-39
88
162
202
214
183
135
104
88
76
65
54
49
53
53
50
56
70
77
73
72
80
81
68
47
35
45
65
64
63
98
133
114
67
39
25
16
25
30
9
5
28
10
-15
51
133
213
413
508
178
-249
-305
-172
-159
-190
-161
-138
-145
-147
-132
-115
-105
-90
-59
-22
