# session 212
-16
1
25
70
149
231
253
234
235
223
200
253
347
472
732
866
498
-8
-97
47
59
20
17
-36
-112
-137
-149
-183
-212
-205
-175
-158
-157
-131
-89
-71
-54
-7
39
70
104
141
161
155
134
114
86
45
15
8
10
-2
-27
-7
9
-52
-31
39
-88
-51
164
-689
-2327
-2299
-509
489
232
168
372
297
189
185
175
215
177
89
236
240
-228
-353
172
343
-15
-79
111
83
30
113
111
37
45
74
51
40
68
90
98
119
155
195
232
269
306
329
348
396
436
398
330
285
227
185
176
112
91
168
87
18
201
47
-194
371
171
-1930
-2758
-743
728
281
86
438
308
113
205
225
212
253
239
258
291
241
277
386
432
629
890
799
447
-23
-235
452
404
-2257
-4327
-2333
599
821
61
369
696
209
149
968
276
-3324
-7236
-8505
-6361
-1909
1534
1874
1206
1377
1489
1217
1168
1149
997
957
952
883
868
885
851
816
797
764
751
777
782
748
763
882
1052
1213
1371
1527
1712
2025
2364
2300
1636
798
293
145
104
60
27
-7
-61
-102
-104
-121
-180
-212
-228
-294
-309
-265
-341
-381
-233
-257
-257
167
167
-99
758
611
-3134
-7024
-7897
-7693
-5887
-952
1906
-1124
-4417
-2872
517
1754
1405
1258
1368
1308
1213
1201
1183
1142
1082
1012
997
1012
979
911
865
860
893
927
904
843
805
773
728
711
715
692
661
636
605
574
583
757
969
939
1061
1142
-934
-5057
-6476
-3151
420
1067
581
536
767
816
314
467
1282
-842
-5114
-5151
-1130
1283
1465
536
-1675
-2121
440
1854
1040
846
1244
985
744
801
686
583
626
593
526
520
517
502
472
428
423
444
413
353
356
405
410
369
333
306
264
223
216
227
208
190
191
149
119
179
234
286
375
237
-113
-200
-75
-71
-24
-31
-207
13
142
-424
-31
700
-2028
-6163
-6190
-4174
-3780
-2311
670
1389
619
885
995
704
1129
491
-1818
-2456
-641
576
466
544
755
605
540
618
554
490
504
478
454
477
482
466
477
504
512
489
452
429
415
403
402
398
383
392
392
325
294
370
453
607
880
869
416
84
156
246
183
170
218
219
206
202
174
147
136
104
98
154
182
207
290
279
279
466
389
177
598
480
-1424
-2628
-1113
564
452
108
316
296
171
245
225
189
224
130
147
265
38
70
577
-321
-2813
-4105
-3673
-3440
-3414
-3254
-3617
-3114
-541
1621
1625
1172
1322
1401
1344
1447
1537
1415
1098
820
782
910
1000
858
750
978
832
443
1142
1064
-2517
-6423
-7078
-6697
-5914
-2293
1672
2254
1492
1765
1959
1681
1712
1764
1566
1463
1419
1268
1148
1097
1029
973
941
896
869
869
826
761
749
750
716
683
670
675
713
731
670
588
553
537
510
492
465
425
424
425
383
393
470
568
732
762
451
112
-44
-47
196
169
-220
272
529
-1934
-3915
-1321
1174
-1685
-6277
-8195
-7331
-3617
735
1038
-2234
-4362
-3436
-731
1535
1906
1386
1360
1421
1189
1091
1099
1004
942
934
896
862
848
820
791
757
701
647
609
571
550
569
596
579
522
465
433
422
416
387
338
314
316
288
267
312
368
440
530
401
35
-155
-47
42
-9
-70
-58
-21
-55
-53
9
-96
-90
171
-34
-191
564
22
-2709
-3401
-691
1006
366
122
533
353
89
254
247
-61
85
345
-1181
-4109
-4707
-1948
490
597
189
340
388
288
336
338
280
328
383
359
323
294
278
276
240
209
238
243
219
230
181
153
303
410
616
1095
809
-125
250
525
-2196
-4554
-2390
678
726
39
392
470
202
288
348
256
291
328
310
369
444
474
505
522
519
513
469
426
409
315
238
272
160
65
304
214
-95
513
385
-2349
-4097
-1812
795
741
233
518
530
378
485
452
342
431
442
339
425
443
240
437
581
-423
-913
641
982
-1736
-3085
-897
1020
730
160
616
1220
-46
-2571
-2560
50
1299
785
722
894
663
654
801
738
758
861
818
824
916
907
959
1016
854
911
1076
634
616
1332
61
-2724
-2565
228
1553
948
358
952
1581
-1128
-5833
-7152
-6328
-6438
-3845
862
486
-3332
-2814
909
2171
1434
1531
1799
1273
1452
2058
397
-1481
717
2793
-819
-4184
-1311
2131
1563
749
1431
1498
1112
1252
1383
1266
1221
1248
1185
1117
1287
1292
907
1295
1563
-1926
-7260
-6913
-1476
175
-2816
-3682
-2480
-2813
-2181
933
2544
1780
1522
1840
1603
1422
1512
1410
1328
1398
1325
1161
1141
1169
1096
1041
1078
1099
1129
1097
843
838
1188
465
-1949
-4086
-3967
-1685
1010
1770
738
1093
2222
-741
-6145
-7493
-6397
-6817
-4520
1012
1715
-1874
-1429
1903
2287
1277
1575
1756
1408
1471
1543
1363
1361
1419
1350
1326
1342
1331
1351
1361
1347
1337
1248
1184
1217
1047
857
1018
809
246
637
886
-463
-512
1264
-1047
-7092
-7821
-2993
-1476
-2704
-91
2598
-394
-3351
-693
2746
2860
2425
3007
3001
2273
1681
1228
939
929
924
813
755
740
673
602
569
512
454
420
327
298
343
146
51
351
201
145
1226
535
-3672
-6922
-7171
-7069
-5627
-2033
-410
-1035
30
1964
1888
1172
1907
2313
218
-1689
-186
2045
1936
1373
1601
1521
1579
1391
-1079
-3900
-2972
450
2069
1655
1500
1808
1778
1620
1612
1498
1283
1339
1142
-1034
-4934
-6976
-6256
-6465
-7185
-4290
-782
-1455
-1965
1229
3202
2093
1701
2323
2136
1866
2012
1923
1774
1801
1742
1680
1689
1592
1512
1538
1453
1398
1520
1393
1270
1716
1136
-1881
-4389
-3059
391
2374
2025
1177
1831
2249
-768
-5166
-7545
-7870
-4635
834
732
-4178
-4804
-2577
-2749
-1304
2171
1895
290
1391
1123
-1091
-274
2148
2137
1423
1809
1870
1516
1637
1730
1490
1470
1662
1691
1760
2020
1927
1306
836
877
1080
1040
848
990
1104
596
753
1518
-833
-6059
-8286
-6948
-6099
-3977
839
1887
-2347
-3581
233
2475
1699
1473
1912
1724
1528
1574
1440
1309
1288
1195
1112
1098
1027
964
1026
1000
833
876
972
770
797
993
634
772
1507
-75
-3105
-2690
507
1883
532
-3263
-8106
-8288
-2956
28
-1433
-1110
1484
2017
1222
1207
1032
608
773
941
785
793
889
897
964
1010
1000
1080
1089
984
1082
1126
723
529
985
1330
1276
1292
1345
1364
1418
1274
1280
1479
908
718
1645
-870
-6977
-7516
-2321
-2233
-5979
-4281
-1156
-2963
-3889
-484
1558
778
971
1668
528
-585
405
1706
1687
1347
1300
1090
822
683
560
484
367
308
558
748
895
1399
1333
628
893
406
-3366
-6674
-6440
-6379
-6487
-2382
1708
-463
-3789
-2994
-2158
-2722
-1008
1731
2529
2340
1569
348
814
2439
2664
2155
2335
2430
2113
1990
1958
1820
1736
1665
1561
1519
1503
1494
1536
1491
1344
1371
1392
1130
1290
1496
-1061
-6053
-7574
-3448
621
1002
295
586
1250
706
-1931
-3634
-1262
1917
2143
1456
1793
2011
2039
2354
2107
1370
1135
1159
1029
1116
1159
908
1050
1163
619
970
1532
-1433
-6079
-7292
-6914
-7211
-4182
1064
1867
-388
-1339
-2956
-3908
-31
2475
-2061
-5069
-1499
89
-3184
-3920
-459
2227
2562
2285
2196
2168
2137
2115
2089
2032
1988
2017
2118
2321
2616
2741
2682
2948
3328
2861
2005
1734
751
-1610
-2362
-693
-1004
-3911
-4121
-1921
-2420
-3506
-910
1828
1497
930
1266
1012
782
1200
1352
1222
1285
1358
1436
1496
1405
1508
1524
1037
1249
1832
-296
-4751
-7509
-7633
-6157
-2910
-372
-2141
-5279
-4524
-2188
-2606
-3114
-656
2247
2893
1043
-1445
-1079
1720
2767
1968
1937
2256
2027
1904
1937
1963
2067
1925
1844
2007
1478
752
1068
1518
1721
1822
-347
-2918
-586
1915
-2438
-5790
-1930
-848
-5586
-5706
-1764
-2348
-3998
-910
2355
2200
1668
2053
2101
2009
2107
2048
1964
1994
1995
1910
1741
1791
2130
1499
-1376
-4762
-4377
233
2755
-939
-5860
-5341
233
3877
581
-3465
-742
1597
-3513
-7008
-3834
-2448
-3655
-722
3156
2261
408
1610
2865
2165
2234
3166
882
-3543
-3505
1099
3762
3131
2649
2822
2686
2672
2583
2021
1740
1890
1800
1608
1609
1516
1455
1539
1279
1046
1205
787
632
1830
400
-5182
-7672
-4666
-3268
-4255
-2027
1679
2280
1497
1773
2064
1768
1721
2001
1753
1341
2029
1813
-1814
-4365
-1214
2376
1677
1308
2593
663
-1723
304
829
-3894
-6766
-5781
-5951
-6614
-6170
-6783
-6112
-1492
1921
636
-1063
-180
250
-2505
-4181
-69
3159
-1172
-4186
511
3552
1389
1610
3875
3238
2124
2771
2956
2471
2513
2575
2402
2393
2385
2257
2179
2132
2085
2074
2021
1944
1966
1948
1820
1969
2108
1649
1748
2589
571
-5001
-8307
-7195
-6780
-7903
-5909
-2409
-2170
-2161
327
-315
-4299
-2961
2294
861
-4995
-3875
2592
4014
464
-448
2029
3253
2579
2343
2576
2398
2285
2349
2161
2118
2218
1918
1900
2272
1888
1992
3318
1802
-3489
-7212
-7609
-6616
-4667
-4287
-6528
-6086
-1699
1326
1819
1120
-1809
-4697
-3290
693
2747
2621
2394
2483
2474
2448
2470
2464
2478
2481
2404
2295
2171
2001
1847
1787
1777
1702
1584
1534
1479
1366
1339
1326
1228
1306
1366
1140
1403
1956
1547
1735
3248
1117
-5392
-7684
-3317
-1111
-4295
-5561
-1691
1284
-285
-1939
-300
1586
1393
979
1279
1254
981
1059
1064
805
804
861
643
832
1123
619
931
2100
-101
-5337
-8122
-8132
-6951
-2422
2479
611
-5869
-8406
-5165
-1314
-648
-2142
-3541
-4016
-2584
590
2609
2431
2219
2564
2478
2289
2406
2391
2264
2274
2242
2120
2076
2096
2123
2141
2052
1885
1850
1928
1853
1708
1825
1969
1751
1538
1532
1378
1514
1948
1616
1694
2617
-334
-6712
-7292
-2242
-1795
-4956
-3426
388
893
217
663
939
747
629
956
1544
65
-3815
-5113
-1583
1961
2455
1991
1887
2203
2525
-95
-4915
-4616
814
1393
-4414
-7818
-6598
-5744
-6635
-6536
-3240
1618
3464
2426
2931
3441
-166
-3949
-3405
-2563
-3973
-3049
1109
3394
2682
2319
2915
2946
2667
2743
2748
2611
2693
2771
2691
2757
2787
2387
1943
1917
2057
2051
1916
1821
1831
1663
1409
1573
1653
1358
1610
1617
780
1623
2206
-2641
-7225
-3917
33
-1365
-953
1910
-510
-5404
-4959
-976
1291
1522
1371
1437
1575
1513
1497
1672
1585
1477
1653
1329
1140
2058
1033
-3179
-4504
-454
2459
1470
1129
2292
493
-5260
-8923
-5403
-687
-3253
-7039
-2483
3429
1410
-2419
-2383
-3376
-4910
-1299
2288
-1529
-6831
-6192
-2661
77
2530
2851
-709
-4289
-3497
398
3120
3237
2752
2973
3028
2703
2908
3097
2591
2829
3401
1376
-1343
-66
2784
2511
1706
2799
1271
-4334
-7958
-6801
-4351
-2084
241
-233
-3529
-3879
-56
2448
2032
1851
2411
2457
2427
2616
2480
2255
2329
2283
2073
2195
2233
1843
1947
2154
1540
2108
3229
-511
-6814
-6339
-122
2961
1724
518
1274
2490
102
-5402
-6831
-3530
-3131
-5513
-3532
1097
1903
1589
3188
705
-4754
-2909
2671
890
-2827
121
3643
2769
1969
2554
2291
1885
2005
1933
1774
1647
1630
1795
1426
1241
2127
722
-4552
-7946
-7096
-7065
-7196
-2171
3344
1240
-4067
-3835
40
1446
758
698
941
845
945
1195
1260
1358
1550
1616
1571
1490
1389
1366
1372
1375
1534
1655
1607
1773
1844
1535
1952
2215
-1139
-6566
-6675
-129
3817
-716
-5778
-3186
817
-1843
-5737
-3506
873
2165
2671
2592
-2101
-7370
-5137
1149
3324
2465
2305
2398
2704
2530
61
-1694
508
2966
2395
1472
1962
2107
1713
2115
2163
-381
-4927
-8021
-6763
-3184
-1879
-1609
1092
2541
-838
-4586
-4371
-1104
2411
3388
2303
2358
2885
2070
2488
3617
586
-3514
-1683
2650
3086
1907
2344
2693
2140
2028
2341
2130
1862
2307
2159
1410
2579
2794
-2534
-6706
-2763
1018
-2636
-6107
-2883
1837
1400
-3818
-7819
-5621
274
2756
-338
-4251
-4298
-839
2455
3257
2674
2660
2969
2458
2079
2894
2141
-2562
-7105
-7070
-5577
-6518
-6669
-2970
-317
-2819
-4638
-721
2551
244
-1191
1897
3952
3138
2951
3411
3084
2890
3081
2920
2676
2661
2637
2577
2561
2515
2423
2408
2423
2220
2133
2433
2162
1634
2491
2265
-2595
-7726
-6625
-2634
-3218
-6100
-3737
777
-881
-4911
-4546
-3677
-3691
-450
1578
-2219
-5556
-3879
-168
2875
3732
2162
1171
2230
3002
2604
2458
2513
2138
2078
2337
2037
1934
2399
1954
1702
3113
1425
-5335
-8350
-4294
-2512
-4953
-3577
635
1657
1683
1881
-1172
-3631
-503
3055
2617
1774
2306
2298
1990
2163
2157
2012
2114
2115
2004
2009
1825
1558
1701
1702
1271
1400
1469
578
1051
2164
-1211
-6235
-5652
-3301
-4790
-4596
58
2259
724
1235
2423
-1536
-7291
-6938
-1385
2761
2500
-780
-2678
-372
2385
2101
1359
1874
2113
2119
2376
2220
1732
1061
783
1752
646
-5141
-8831
-5742
-3775
-6874
-7216
-3596
-3366
-5308
-3021
1357
2707
2124
2169
2390
2313
2399
2470
2328
2308
2378
2240
2041
1974
1868
1725
1710
1647
1494
1484
1421
1296
1443
1301
908
1527
1763
-950
-3827
-1936
2753
2950
-2609
-6165
-3907
-2164
-4430
-6099
-4271
-217
2695
-85
-6093
-6400
-903
2243
1666
1452
1826
1591
1414
1432
1325
1233
1078
1010
1026
715
832
1396
518
-742
164
1184
543
415
1035
1712
2373
-421
-6018
-6642
-2428
-628
-652
800
1496
837
1002
1456
1288
1271
1448
1413
1383
1387
1324
1337
1395
1340
1240
1226
1299
1348
1281
1208
1218
1180
1132
1160
1054
993
1176
985
728
1224
1085
-69
-525
-2424
-6946
-7487
-2412
-638
-4428
-6108
-3187
40
1219
1146
1031
1243
1357
1276
1311
1371
1305
1288
1355
1366
1371
1452
1516
1531
1557
1553
1550
1618
1558
1383
1351
1197
920
1082
1064
515
923
1336
-973
-4014
-4823
-5241
-6811
-8099
-7506
-4412
-1922
-3321
-4342
-1020
1945
1468
954
1500
1402
1146
1405
1469
1344
1477
1578
1550
1872
2263
1799
762
346
675
1033
1150
1093
1010
1032
952
783
877
888
601
853
1147
-380
-2488
-1460
1811
1152
-4834
-8419
-5253
-2315
-4335
-5305
-1745
1197
942
419
696
721
665
811
816
762
807
801
766
787
787
778
819
844
909
1135
1311
1279
1401
1783
2045
2095
1618
471
153
803
-570
-3680
-4111
-1575
534
961
-476
-2564
-2109
171
609
-208
-89
97
-295
-351
-116
-48
68
273
381
461
577
669
699
656
591
577
581
544
520
541
545
502
454
423
