# session 4
25
-33
114
249
325
609
827
435
-179
-295
-120
-123
-170
-103
-74
-98
-71
-40
-42
-21
11
6
-1
18
35
39
39
38
50
57
39
29
58
87
88
93
103
89
87
117
120
74
21
-27
-72
-94
-96
-106
-113
-100
-78
-58
-39
-32
-40
-41
-19
13
45
64
78
106
140
146
117
82
62
50
33
20
14
-14
-35
-16
-31
-73
-8
115
193
335
427
147
-268
-331
-170
-132
-164
-160
-170
-184
-166
-150
-138
-123
-127
-135
-121
-121
-145
-148
-125
-112
-106
-92
-73
-50
-21
3
22
54
93
104
87
96
119
92
28
-22
-66
-104
-106
-77
-48
-19
5
2
-21
-33
-40
-59
-71
-52
-26
-20
-19
3
46
93
114
90
52
39
35
19
13
14
11
25
25
-21
-2
109
186
284
444
340
-76
-300
-182
-92
-127
-125
-106
-119
-119
-113
-108
-65
-23
-34
-51
-41
-30
-27
-7
28
57
76
103
147
195
227
234
239
255
255
248
273
285
234
170
120
51
2
11
8
-32
-37
-14
-18
-22
-7
-17
-39
-29
-13
-21
-25
6
48
68
67
62
49
36
42
62
84
94
71
60
86
54
1
94
236
336
578
737
325
-294
-426
-253
-234
-287
-263
-259
-293
-302
-287
-268
-246
-232
-227
-224
-227
-240
-243
-238
-250
-264
-231
-157
-96
-64
-36
-2
35
82
135
166
164
151
132
78
-5
-60
-73
-75
-80
-89
-97
-92
-79
-80
-94
-111
-119
-98
-78
-97
-101
-37
35
55
43
23
0
-25
-72
-117
-124
-141
-170
-168
-207
-253
-135
36
144
405
596
186
-422
-482
-257
-255
-315
-258
-223
-230
-212
-199
-190
-152
-106
-82
-77
-62
-23
12
22
30
59
141
299
461
522
506
503
529
550
546
521
495
463
396
298
210
142
83
31
-8
-32
-47
-61
-85
-114
-111
-104
-150
-139
81
400
584
584
488
368
250
140
53
5
-24
-44
-41
-42
-43
-17
-15
-12
105
230
319
609
858
496
-129
-255
-56
-33
-96
-82
-82
-98
-79
-67
-70
-55
-35
-21
-13
-13
-10
2
3
-17
-41
-60
-77
-104
-148
-183
-182
-164
-171
-207
-244
-256
-259
-296
-376
-451
-501
-546
-567
-529
-473
-441
-407
-374
-378
-399
-402
-390
-360
-313
-282
-265
-209
-124
-67
-47
-42
-32
7
45
45
38
42
39
49
55
36
90
230
340
471
588
380
-56
-194
-25
50
14
39
74
69
76
78
56
52
71
91
110
127
136
149
164
171
185
210
232
258
298
332
353
383
412
416
409
395
352
284
215
143
68
13
-33
-94
-144
-173
-213
-246
-253
-285
-344
-364
-352
-359
-382
-391
-369
-308
-248
-223
-212
-183
-148
-117
-82
-44
-28
-26
3
32
11
31
153
265
367
515
471
140
-68
43
164
132
88
81
68
50
44
59
92
123
142
151
166
210
259
277
303
351
345
259
176
139
116
85
54
31
20
27
38
31
9
-21
-72
-126
-142
-132
-129
-124
-99
-67
-38
-20
-6
34
94
101
39
-14
-28
-38
-44
-36
-37
-61
-93
-125
-152
-169
-173
-177
-206
-224
-195
-207
-259
-176
-13
93
309
512
199
-397
-535
-308
-250
-317
-294
-266
-277
-261
-243
-243
-224
-201
-202
-193
-166
-151
-144
-124
-98
-73
-51
-41
-20
32
76
102
149
217
264
284
286
261
203
127
60
18
-15
-49
-64
-65
-74
-71
-51
-56
-71
-38
12
19
16
35
57
91
148
183
173
132
87
75
82
65
52
56
33
30
53
23
46
220
359
494
767
737
155
-284
-177
-23
-74
-87
-42
-61
-88
-81
-72
-69
-76
-83
-71
-62
-71
-72
-56
-51
-55
-36
1
27
50
78
95
110
148
183
179
154
124
74
-4
-86
-143
-178
-208
-235
-250
-254
-254
-255
-249
-236
-227
-221
-202
-180
-183
-187
-154
-101
-62
-45
-57
-95
-119
-115
-114
-107
-85
-86
-82
-39
-56
-74
138
429
546
735
956
619
-72
-275
-47
13
-78
-58
20
58
68
85
146
231
292
311
269
185
137
136
120
88
82
100
111
114
119
133
161
201
236
245
233
221
200
142
60
-7
-52
-89
-129
-159
-169
-172
-174
-158
-144
-158
-166
-156
-157
-149
-119
-123
-146
-108
-40
-33
-83
-129
-124
-91
-99
-128
-111
-88
-104
-103
-96
-96
-16
89
164
393
611
320
-233
-364
-192
-169
-214
-181
-177
-192
-169
-169
-191
-180
-165
-167
-157
-139
-125
-118
-123
-114
-75
-50
-47
-20
18
35
60
100
116
116
129
139
113
60
6
-50
-108
-141
-160
-190
-205
-181
-167
-195
-205
-166
-159
-207
-209
-157
-148
-169
-150
-100
-37
25
11
-71
-101
-58
-32
-33
-8
30
61
92
75
18
47
148
229
365
449
182
-223
-290
-133
-92
-111
-83
-80
-97
-81
-68
-73
-65
-49
-31
-5
29
66
97
111
126
156
181
196
226
265
285
305
359
402
398
403
439
428
352
295
280
254
209
180
185
204
204
192
204
224
215
202
214
237
268
304
318
323
358
394
384
355
348
365
398
420
415
407
406
414
435
428
413
495
634
731
794
703
366
93
135
248
213
141
100
16
-133
-306
-462
-573
-654
-738
-824
-897
-969
-1056
-1144
-1219
-1291
-1329
-1301
-1280
-1329
-1398
-1437
-1454
-1462
-1486
-1468
-1247
-840
-528
-451
-454
-416
-372
-330
-271
-220
-179
-122
-55
4
49
74
83
101
141
188
218
241
282
331
358
354
325
304
326
342
305
282
309
316
315
345
338
330
430
551
677
906
938
513
103
138
303
294
255
275
276
260
255
258
269
273
253
242
258
263
242
230
246
260
260
254
243
238
264
308
330
326
324
331
332
312
272
214
136
45
-25
-56
-74
-99
-114
-106
-101
-115
-128
-138
-162
-175
-154
-138
-147
-137
-79
-13
3
-27
-70
-104
-114
-112
-125
-130
-112
-113
-120
-124
-159
-119
47
191
374
656
551
-91
-514
-386
-248
-309
-312
-269
-296
-309
-270
-248
-260
-266
-238
-206
-214
-233
-212
-171
-148
-129
-101
-80
-57
0
81
148
181
191
202
214
198
155
105
42
-34
-89
-118
-150
-170
-163
-159
-163
-145
-106
-81
-76
-63
-28
-4
-9
-9
22
64
99
125
125
95
62
45
35
41
66
63
38
53
48
1
82
265
385
597
851
601
-49
-305
-117
-41
-115
-112
-87
-104
-103
-91
-88
-78
-67
-60
-49
-36
-24
-20
-33
-50
-52
-36
-15
-2
14
47
80
99
116
127
114
84
52
14
-37
-84
-118
-140
-154
-167
-182
-180
-159
-153
-165
-145
-75
-10
22
49
71
72
106
198
272
272
226
165
107
78
68
59
54
35
5
-3
-42
-107
-58
59
131
314
508
225
-372
-573
-383
-319
-404
-426
-414
-419
-421
-437
-440
-399
-365
-361
-337
-287
-244
-221
-221
-226
-202
-164
-153
-157
-124
-47
33
94
139
176
201
200
169
132
114
109
103
101
118
137
142
159
200
242
283
310
270
168
80
31
-20
-80
-104
-76
-40
-33
-46
-56
-40
6
71
138
187
211
256
337
373
375
475
628
735
913
1073
830
339
177
310
332
267
277
283
261
284
325
338
346
378
410
362
228
103
21
-41
-70
-90
-135
-154
-133
-129
-135
-123
-112
-89
-50
-53
-103
-152
-208
-288
-367
-433
-486
-514
-527
-543
-548
-534
-522
-512
-496
-480
-468
-450
-415
-369
-341
-328
-289
-238
-229
-253
-266
-265
-259
-252
-244
-231
-216
-196
-160
-141
-139
-68
62
200
376
417
95
-273
-254
-45
7
-21
5
25
18
17
4
-24
-34
-29
-43
-73
-88
-76
-50
-27
-12
9
43
75
100
141
197
237
254
285
328
340
318
295
259
192
124
78
50
49
65
69
76
95
97
88
90
82
51
35
52
58
38
38
83
117
105
76
50
34
27
24
28
30
20
32
55
29
31
131
234
415
735
734
199
-217
-128
22
-15
-35
-1
-2
-13
-36
-73
-69
-40
-46
-69
-76
-80
-83
-80
-85
-90
-75
-54
-31
1
34
68
111
151
175
187
182
149
99
35
-42
-102
-126
-134
-136
-121
-112
-127
-138
-144
-173
-196
-174
-142
-137
-137
-119
-88
-54
-26
-10
-19
-52
-81
-93
-98
-77
-55
-82
-93
-67
-101
-100
67
221
340
608
658
129
-379
-335
-149
-169
-205
-179
-177
-166
-144
-152
-161
-144
-109
-69
-57
-86
-107
-95
-78
-71
-64
-46
-3
45
56
61
101
135
136
139
129
65
-6
-49
-111
-189
-224
-228
-258
-289
-263
-214
-202
-205
-179
-138
-101
-48
26
128
317
595
861
1059
1271
1509
1508
1024
314
-128
-231
-252
-283
-281
-282
-298
-295
-278
-273
-279
-288
-294
-303
-328
-352
-349
-346
-367
-380
-367
-342
-293
-209
-125
-64
12
117
208
263
293
300
288
268
233
185
158
147
127
107
99
83
50
8
-24
-21
3
3
-21
-38
-45
-51
-46
-31
-27
-37
-39
-44
-67
-79
-65
-60
-79
-101
-90
-36
23
48
34
-5
-25
-11
-7
-14
-14
-31
-48
-41
-60
-48
76
193
339
641
701
204
-277
-253
-92
-112
-143
-111
-104
-105
-96
-107
-114
-84
-45
-36
-48
-48
-37
-24
-10
1
15
53
95
110
112
134
161
164
154
152
150
133
114
104
78
14
-49
-67
-76
-101
-97
-53
-14
13
42
40
-2
-38
-43
-34
-38
-49
-42
-22
-18
-41
-79
-113
-129
-128
-117
-105
-112
-115
-78
-58
-77
-30
86
198
323
324
9
-338
-330
-161
-139
-167
-132
-125
-156
-158
-140
-127
-109
-93
-85
-73
-54
-42
-33
-9
15
23
36
78
119
143
172
204
218
234
258
259
234
201
156
100
49
17
-1
-19
-28
-27
-57
-101
-100
-80
-75
-54
-44
-80
-61
39
25
-235
-591
-809
-804
-673
-523
-358
-181
-59
-4
40
91
126
155
204
251
248
211
200
215
217
217
242
287
337
391
441
478
503
516
522
522
499
441
363
286
213
148
88
32
-16
-56
-88
-105
-109
-114
-118
-117
-115
-106
-95
-109
-135
-131
-108
-99
-101
-98
-96
-99
-102
-94
-83
-94
-130
-162
-168
-157
-156
-173
-171
-127
-83
-82
-112
-140
-154
-151
-142
-133
-125
-115
-86
-62
-95
-90
42
188
350
581
518
-10
-395
-275
-98
-131
-160
-127
-131
-141
-123
-110
-108
-108
-111
-106
-97
-94
-93
-87
-69
-43
-32
-32
-16
18
47
68
102
143
167
175
183
190
184
164
128
79
41
22
4
-18
-33
-40
-33
-20
-34
-62
-52
-24
-43
-85
-72
-13
21
25
20
-5
-34
-31
-21
-17
7
12
-10
18
44
5
68
249
368
538
746
509
-99
-338
-145
-58
-125
-119
-99
-126
-126
-103
-106
-114
-104
-90
-87
-87
-74
-52
-38
-27
1
29
43
71
124
167
187
210
241
263
258
216
148
81
27
-12
-39
-61
-82
-100
-119
-128
-114
-97
-102
-111
-91
-42
-18
-45
-62
-14
45
55
33
-2
-50
-81
-74
-56
-50
-68
-84
-72
-93
-125
-18
145
223
443
719
455
-198
-418
-198
-122
-203
-194
-156
-164
-153
-121
-111
-113
-113
-108
-95
-78
-68
-61
-46
-37
-42
-38
-14
21
66
105
121
135
158
165
151
127
84
26
-36
-96
-142
-166
-175
-175
-177
-181
-163
-141
-137
-97
-26
-20
-6
167
360
284
-81
-485
-697
-663
-489
-292
-125
-11
50
82
95
90
87
101
116
114
110
129
156
161
160
193
250
300
353
418
484
535
562
559
531
479
405
323
240
161
109
92
81
62
64
126
283
479
608
735
937
916
423
-161
-376
-358
-383
-415
-403
-415
-436
-423
-410
-416
-417
-416
-438
-473
-494
-504
-512
-506
-495
-495
-470
-396
-319
-273
-237
-189
-128
-63
-10
29
66
86
77
69
81
86
77
74
81
89
96
98
89
73
67
66
43
19
37
54
29
-1
-14
-32
-36
-15
-12
-33
-38
-31
-29
-28
-27
-25
-11
-4
-24
-39
-36
-48
-74
-77
-63
-65
-79
-83
-80
-81
-78
-68
-61
-54
-43
-39
-43
-45
-52
-65
-69
-56
-47
-62
-82
-62
-6
13
-26
-50
-31
-1
48
117
155
177
201
178
170
263
382
528
700
588
132
-133
11
170
169
168
187
182
207
261
268
228
193
176
153
114
85
83
90
98
110
113
100
73
22
-32
-58
-69
-80
-78
-73
-82
-79
-54
-45
-70
-94
-112
-145
-185
-213
-237
-260
-263
-253
-250
-253
-248
-217
-146
-74
-49
-37
10
52
50
37
36
36
36
46
63
67
68
103
116
61
76
208
292
402
602
472
-82
-401
-248
-111
-148
-142
-98
-99
-93
-78
-99
-130
-140
-137
-138
-140
-132
-118
-111
-102
-82
-57
-33
-14
2
25
52
83
114
123
108
80
8
-90
-119
-83
-81
-112
-117
-125
-168
-195
-181
-178
-197
-191
-176
-197
-222
-213
-182
-141
-111
-134
-187
-207
-194
-179
-158
-135
-127
-82
13
49
67
229
421
563
828
939
465
-82
-51
179
145
78
124
128
111
131
120
87
79
61
24
11
25
38
29
-5
-20
10
41
63
102
127
134
167
209
225
233
220
154
61
-16
-81
-143
-186
-199
-203
-211
-212
-208
-201
-183
-163
-141
-102
-75
-74
-43
19
41
-2
-60
-75
-54
-47
-65
-82
-82
-49
-31
-81
-60
111
256
358
495
369
-113
-407
-268
-111
-140
-163
-124
-119
-124
-72
-7
16
