# session 80
21
15
16
10
-7
-10
9
28
41
53
69
95
136
180
215
255
310
362
402
431
446
441
409
350
275
193
111
60
42
22
2
18
32
-2
-34
-15
6
-7
-15
-16
-48
-82
-86
-83
-82
-81
-89
-87
-53
-26
-37
-63
-86
-107
-112
-99
-102
-125
-142
-148
-143
-143
-182
-188
-85
42
206
434
373
-125
-488
-386
-221
-230
-228
-186
-191
-194
-164
-144
-140
-128
-108
-92
-89
-87
-63
-19
29
82
146
212
267
323
392
440
439
400
329
225
114
24
-37
-68
-80
-100
-131
-146
-150
-162
-166
-146
-137
-149
-149
-137
-138
-138
-123
-110
-81
-20
29
29
-8
-51
-60
-29
-27
-68
-67
-32
-34
-26
4
-17
7
157
304
471
657
470
-94
-365
-181
-53
-99
-92
-62
-91
-103
-82
-70
-68
-62
-54
-47
-31
8
47
60
81
147
225
279
322
370
415
424
383
324
274
196
74
-35
-82
-88
-94
-114
-130
-109
-67
-53
-70
-68
-49
-48
-48
-31
-41
-80
-93
-85
-93
-93
-58
-17
-2
-11
-30
-51
-69
-79
-90
-96
-75
-64
-92
-88
-35
-41
-69
1
101
251
548
638
191
-306
-344
-198
-202
-232
-195
-169
-170
-178
-187
-178
-155
-146
-145
-129
-108
-97
-83
-48
-5
37
87
148
210
253
273
278
269
228
151
64
-7
-60
-94
-103
-106
-121
-129
-117
-112
-123
-129
-122
-114
-113
-119
-122
-110
-84
-64
-65
-54
-3
41
30
-6
-22
-15
-8
-16
-26
-11
2
-15
-11
13
0
22
146
291
461
594
380
-101
-287
-111
-3
-44
-48
-29
-40
-46
-55
-73
-71
-54
-45
-36
-17
4
19
39
79
134
189
246
317
387
427
432
421
383
298
194
110
41
-22
-59
-70
-73
-74
-77
-84
-86
-85
-94
-102
-96
-96
-121
-154
-156
-131
-132
-163
-147
-75
-42
-60
-67
-82
-126
-130
-99
-113
-139
-124
-119
-128
-110
-134
-161
-28
170
316
509
503
5
-452
-368
-162
-186
-208
-159
-163
-152
-101
-107
-137
-124
-106
-102
-80
-60
-56
-25
32
78
140
244
331
378
425
468
458
396
304
191
78
-12
-88
-135
-131
-125
-159
-179
-152
-138
-155
-162
-140
-99
-78
-105
-130
-113
-106
-124
-135
-126
-84
-12
25
2
-32
-44
-46
-56
-56
-31
-22
-52
-40
25
15
-35
76
275
417
655
837
472
-154
-307
-115
-84
-143
-127
-132
-156
-143
-141
-134
-95
-76
-66
-19
12
6
26
76
119
178
256
318
368
424
458
448
408
352
270
167
74
16
-17
-49
-88
-118
-117
-108
-127
-149
-136
-118
-118
-118
-113
-120
-153
-195
-208
-193
-184
-167
-128
-102
-86
-47
-37
-94
-140
-114
-80
-86
-96
-100
-125
-132
-100
-112
-148
-73
39
114
358
621
373
-184
-341
-164
-129
-184
-148
-121
-134
-122
-116
-136
-142
-129
-107
-82
-68
-56
-28
4
36
81
128
170
227
284
307
307
300
263
186
87
-10
-73
-92
-99
-114
-124
-126
-118
-102
-98
-102
-91
-68
-44
-27
-27
-29
-17
-19
-36
-17
14
-1
-11
46
100
82
54
69
74
47
32
36
34
37
42
39
43
31
5
40
125
217
364
401
91
-286
-302
-121
-60
-63
-34
-23
-24
-7
7
12
22
31
40
47
50
63
89
114
142
188
236
275
320
368
389
378
349
307
231
129
40
-17
-63
-104
-128
-146
-163
-163
-155
-154
-155
-155
-152
-139
-146
-197
-232
-214
-203
-222
-216
-184
-157
-133
-123
-140
-166
-189
-199
-184
-171
-170
-152
-136
-142
-125
-110
-128
-74
52
154
307
426
175
-278
-390
-211
-129
-133
-99
-92
-103
-74
-62
-83
-73
-39
-30
-37
-22
17
45
49
69
135
215
271
330
405
451
450
433
385
279
156
65
3
-40
-69
-90
-103
-102
-93
-82
-79
-77
-63
-45
-42
-49
-55
-61
-72
-80
-64
-44
-65
-82
-17
71
78
38
22
11
-11
-20
-19
-15
-19
-54
-65
-20
-41
-87
38
221
332
566
702
267
-310
-342
-125
-125
-157
-87
-70
-85
-70
-75
-78
-48
-34
-37
-27
-19
-7
29
75
126
178
210
254
359
458
466
430
400
325
196
80
0
-65
-118
-154
-162
-157
-173
-184
-152
-129
-160
-188
-173
-153
-155
-172
-201
-215
-193
-189
-228
-230
-159
-101
-98
-103
-112
-151
-176
-157
-147
-153
-129
-107
-115
-85
-57
-94
-47
115
232
448
771
631
-17
-375
-230
-109
-147
-147
-131
-135
-113
-96
-103
-89
-72
-78
-75
-57
-61
-64
-19
39
66
113
204
274
314
361
377
336
295
263
188
76
-14
-51
-64
-87
-102
-84
-76
-100
-106
-73
-59
-75
-75
-58
-58
-72
-81
-80
-64
-51
-53
-30
23
48
29
-1
-33
-54
-45
-44
-73
-77
-57
-58
-51
-30
-37
-7
99
224
424
612
411
-88
-304
-163
-63
-87
-88
-65
-55
-50
-59
-61
-38
-17
-15
-7
19
44
57
72
108
161
215
262
304
338
364
370
338
279
218
143
49
-27
-66
-79
-79
-78
-88
-111
-128
-124
-119
-138
-156
-142
-120
-123
-129
-118
-103
-97
-103
-110
-96
-62
-39
-37
-21
16
38
25
-2
-23
-37
-44
-49
-50
-46
-52
-63
-53
-60
-90
-37
83
161
279
391
175
-255
-388
-232
-155
-173
-161
-159
-162
-141
-136
-139
-126
-117
-105
-78
-64
-63
-45
-14
27
84
145
203
270
343
396
417
406
358
280
189
100
32
-9
-39
-60
-69
-76
-87
-93
-97
-93
-79
-68
-65
-60
-60
-79
-101
-105
-91
-85
-92
-80
-48
-38
-61
-89
-112
-127
-129
-124
-118
-105
-104
-119
-100
-72
-100
-74
65
179
332
587
513
-34
-406
-303
-171
-205
-209
-175
-178
-187
-178
-159
-132
-121
-128
-133
-137
-131
-97
-55
-22
21
89
159
217
289
364
394
383
361
295
177
65
-16
-74
-101
-116
-136
-149
-153
-151
-128
-101
-105
-114
-100
-86
-91
-102
-101
-89
-79
-76
-82
-77
-19
69
108
94
75
60
50
63
67
63
87
106
98
112
101
59
153
351
486
695
902
605
-24
-230
-33
53
21
37
59
98
148
123
67
64
79
90
108
107
84
84
112
160
232
303
368
454
534
570
582
561
460
324
230
159
75
21
7
-16
-39
-27
-19
-52
-63
-29
-30
-68
-57
-25
-59
-123
-141
-135
-143
-160
-169
-145
-75
-14
-17
-59
-91
-113
-128
-140
-146
-139
-143
-171
-168
-172
-244
-233
-77
40
218
560
523
-111
-583
-518
-411
-468
-482
-467
-494
-492
-468
-472
-493
-508
-499
-482
-498
-510
-473
-432
-411
-363
-307
-270
-209
-138
-115
-122
-139
-194
-282
-379
-484
-564
-591
-612
-637
-627
-604
-603
-598
-576
-549
-520
-497
-487
-472
-455
-449
-434
-401
-379
-367
-330
-266
-223
-225
-244
-250
-240
-217
-186
-157
-138
-140
-144
-100
-55
-77
-52
92
241
443
728
699
226
-106
-7
151
188
239
301
338
387
430
466
531
582
605
672
770
846
913
984
1057
1154
1252
1320
1406
1501
1525
1504
1519
1546
1512
1388
1217
1096
1060
1051
1032
1028
1064
1140
1215
1245
1258
1289
1287
1215
1143
1097
1027
988
1069
1219
1357
1486
1604
1705
1812
1901
1920
1881
1804
1669
1444
1109
689
261
-146
-536
-860
-1119
-1382
-1591
-1685
-1735
-1690
-1572
-1770
-2288
-2496
-2260
-2091
-2110
-2093
-2066
-2090
-2095
-2083
-2072
-2028
-1985
-1971
-1944
-1895
-1830
-1709
-1543
-1404
-1288
-1153
-987
-750
-418
-110
60
160
257
214
-76
-451
-711
-857
-969
-1079
-1195
-1297
-1364
-1432
-1514
-1563
-1580
-1611
-1652
-1677
-1697
-1730
-1784
-1844
-1887
-1910
-1909
-1871
-1799
-1670
-1489
-1336
-1186
-876
-438
-86
167
447
716
914
1134
1381
1507
1556
1709
1884
2020
2241
2274
1776
1245
1250
1452
1453
1415
1440
1428
1416
1433
1419
1403
1423
1432
1427
1437
1455
1469
1484
1500
1522
1571
1638
1664
1598
1476
1381
1292
1115
850
589
360
146
-8
-91
-187
-321
-414
-446
-477
-534
-603
-668
-722
-760
-778
-781
-770
-750
-737
-699
-564
-354
-143
95
348
513
613
745
870
948
1024
1105
1177
1251
1314
1377
1465
1483
1444
1542
1729
1842
2033
2204
1876
1257
1057
1206
1220
1151
1175
1191
1174
1188
1187
1149
1129
1132
1116
1012
689
152
-301
-383
-224
-145
-169
-116
-39
-97
-221
-295
-428
-724
-1124
-1517
-1775
-1863
-1967
-2198
-2400
-2480
-2534
-2605
-2654
-2690
-2732
-2759
-2761
-2758
-2766
-2790
-2807
-2800
-2800
-2844
-2871
-2785
-2608
-2443
-2315
-2218
-2177
-2158
-2099
-2047
-2071
-2072
-1922
-1692
-1518
-1440
-1445
-1385
-1059
-600
-244
118
419
277
-74
-28
285
425
477
618
749
823
895
963
1020
1087
1139
1161
1179
1224
1278
1322
1387
1494
1591
1654
1739
1854
1936
1955
1942
1910
1842
1736
1619
1515
1428
1349
1276
1227
1204
1176
1121
1083
1084
1081
1055
1046
1046
1010
948
906
888
876
853
810
775
776
772
724
662
607
541
488
464
427
372
331
289
265
273
222
142
187
289
379
575
639
232
-258
-319
-190
-207
-261
-269
-302
-338
-341
-344
-359
-376
-383
-378
-387
-408
-405
-383
-372
-367
-343
-299
-248
-207
-178
-158
-158
-189
-245
-317
-403
-481
-532
-561
-579
-586
-584
-580
-573
-566
-562
-556
-545
-541
-543
-541
-541
-550
-559
-571
-583
-575
-546
-524
-518
-499
-460
-431
-434
-459
-483
-484
-459
-440
-440
-442
-446
-448
-414
-373
-375
-334
-208
-92
73
296
200
-273
-526
-345
-174
-189
-195
-157
-138
-114
-83
-72
-61
-32
-4
17
34
55
101
163
207
248
319
399
472
545
597
613
604
554
460
360
273
189
116
65
39
30
24
32
59
71
63
60
70
85
98
94
74
67
91
122
116
90
117
192
221
194
179
168
136
140
177
166
116
95
117
160
157
96
147
322
441
603
821
623
19
-264
-96
6
-38
-12
26
5
-1
15
17
15
15
10
14
30
42
46
56
84
128
181
244
309
363
401
410
375
301
206
101
1
-75
-117
-135
-152
-175
-185
-179
-183
-192
-185
-180
-194
-196
-177
-171
-190
-208
-201
-184
-187
-216
-224
-166
-93
-85
-118
-134
-150
-178
-179
-164
-165
-170
-178
-182
-155
-152
-185
-117
31
138
306
447
180
-306
-419
-232
-170
-204
-179
-166
-183
-162
-133
-138
-140
-114
-95
-89
-63
-22
3
29
68
115
180
259
311
338
371
388
354
288
210
114
18
-47
-87
-114
-121
-123
-126
-107
-77
-73
-73
-51
-38
-34
-17
-19
-52
-65
-48
-33
-28
-23
-2
36
54
39
35
46
30
5
10
19
13
10
14
24
33
10
4
93
203
318
494
476
79
-261
-218
-111
-138
-122
-65
-81
-100
-80
-82
-90
-77
-77
-82
-64
-40
-20
13
53
90
130
176
221
267
309
332
330
301
245
170
96
31
-20
-53
-72
-84
-94
-107
-125
-134
-136
-142
-149
-152
-158
-157
-144
-138
-151
-165
-176
-191
-186
-157
-141
-159
-167
-129
-88
-102
-147
-170
-171
-173
-173
-158
-124
-101
-100
-76
-40
-55
-25
124
258
383
553
445
-25
-304
-169
-27
-39
-46
-29
-21
-6
-5
0
41
66
57
69
109
130
127
132
156
187
224
285
357
408
441
471
466
405
327
257
165
60
-12
-49
-77
-93
-100
-111
-114
-97
-86
-97
-100
-85
-77
-86
-109
-127
-116
-88
-84
-100
-105
-84
-37
7
1
-42
-65
-62
-74
-111
-121
-92
-96
-126
-97
-80
-127
-53
151
284
410
514
233
-277
-399
-200
-151
-206
-178
-168
-203
-190
-158
-158
-160
-148
-133
-118
-105
-92
-65
-22
26
82
151
231
317
397
445
454
424
349
239
130
37
-41
-96
-132
-161
-173
-163
-161
-171
-163
-147
-148
-148
-131
-122
-121
-126
-157
-175
-135
-113
-161
-179
-105
-29
-18
-45
-68
-71
-62
-61
-70
-63
-32
-11
-14
-4
-10
-37
38
187
291
483
668
391
-168
-324
-125
-53
-95
-76
-72
-97
-76
-39
-32
-33
-24
-12
-9
-21
-26
1
45
89
138
199
270
344
401
440
471
465
399
310
224
139
65
9
-27
-46
-66
-85
-78
-67
-82
-96
-85
-73
-72
-72
-78
-82
-73
-71
-89
-106
-116
-123
-113
-91
-75
-57
-32
-28
-56
-90
-103
-109
-123
-115
-72
-62
-95
-89
-75
-115
-91
19
71
245
656
723
164
-313
-286
-177
-213
-215
-181
-187
-183
-161
-150
-134
-113
-104
-93
-71
-46
-24
-3
24
58
103
154
198
233
269
293
286
255
210
141
58
-10
-64
-114
-139
-146
-159
-160
-148
-155
-159
-135
-136
-161
-145
-121
-135
-134
-101
-103
-130
-123
-92
-69
-56
-34
14
76
99
74
45
26
16
26
32
21
28
38
33
53
71
54
94
211
317
428
441
145
-224
-249
-71
-21
-44
-23
-15
-30
-25
-20
-27
-22
-14
-16
-14
3
25
42
61
95
146
202
263
328
385
419
428
416
381
311
219
134
68
14
-31
-64
-79
-80
-87
-104
-111
-98
-81
-74
-83
-96
-93
-84
-110
-160
-174
-141
-119
-133
-126
-66
-20
-35
-64
-75
-83
-85
-87
-104
-112
-98
-101
-106
-92
-135
-181
-67
94
178
349
440
56
-443
-467
-266
-244
-257
-201
-197
-210
-178
-160
-163
-143
-119
-117
-117
-95
-65
-41
-16
23
78
148
231
311
373
411
421
394
327
232
127
21
-70
-125
-159
-185
-192
-185
-189
-203
-201
-180
-158
-151
-155
-149
-127
-106
-103
-105
-93
-69
-57
-65
-63
-10
74
124
114
79
59
68
91
98
98
119
124
116
157
180
144
217
378
482
723
1022
783
142
-108
51
130
71
