# session 70
32
15
-12
-25
-11
1
-6
-19
-39
-56
-48
-47
-74
-63
-9
-4
-40
-10
73
99
62
34
27
9
-15
-17
1
18
24
8
-1
61
166
269
387
365
51
-261
-244
-89
-56
-69
-52
-57
-70
-54
-40
-44
-43
-35
-31
-25
-8
7
17
47
98
147
196
243
264
257
249
233
181
103
35
-26
-91
-141
-165
-176
-175
-164
-172
-190
-172
-117
-66
-13
71
192
386
640
800
883
1090
1259
988
408
-21
-229
-372
-431
-396
-383
-421
-443
-439
-448
-464
-484
-528
-574
-589
-603
-638
-648
-608
-550
-459
-308
-145
-20
80
161
186
146
86
49
29
5
1
20
15
-3
10
22
15
35
55
24
8
38
46
33
46
57
41
21
8
4
11
10
2
30
98
135
109
68
54
56
54
36
11
32
74
26
-18
126
315
450
692
760
262
-284
-283
-90
-103
-138
-94
-89
-109
-116
-120
-99
-69
-77
-98
-89
-54
-21
-3
33
110
198
266
306
328
334
308
243
165
81
-17
-97
-130
-150
-189
-223
-215
-183
-172
-178
-160
-127
-121
-123
-87
-27
17
27
-7
-61
-83
-90
-108
-106
-95
-98
-89
-103
-118
9
175
246
435
593
210
-363
-406
-176
-175
-230
-175
-149
-149
-132
-127
-103
-59
-42
-29
-9
-1
36
108
170
235
312
372
423
469
462
415
361
261
123
41
17
-25
-74
-83
-73
-64
-55
-66
-86
-71
-38
-31
-39
-29
12
69
87
43
7
6
-22
-67
-74
-75
-83
-65
-73
-106
-46
55
160
409
548
157
-374
-428
-231
-197
-223
-191
-180
-165
-122
-117
-131
-92
-36
-20
-17
12
37
35
47
104
172
226
272
302
307
284
220
130
56
1
-61
-108
-118
-120
-133
-150
-178
-204
-188
-163
-160
-116
-33
66
282
587
784
907
1026
900
464
46
-174
-275
-305
-311
-342
-359
-352
-372
-406
-422
-448
-516
-604
-661
-672
-673
-673
-642
-576
-479
-345
-204
-81
21
74
90
104
66
-35
-70
-15
-11
-69
-70
-25
-10
1
31
38
24
33
57
69
76
86
95
101
99
90
76
57
54
96
140
133
135
204
258
238
208
200
182
166
172
166
145
155
164
129
141
249
354
491
639
463
-24
-266
-124
-16
-57
-55
-19
-26
-32
-27
-36
-34
-10
-7
-16
6
31
29
49
106
156
207
274
307
309
324
328
283
205
127
71
25
-43
-105
-117
-115
-138
-155
-147
-129
-105
-78
-52
8
129
291
498
737
909
1034
1278
1510
1303
620
-60
-396
-490
-523
-542
-562
-598
-617
-611
-614
-644
-702
-759
-776
-787
-836
-885
-898
-883
-821
-709
-566
-388
-204
-79
-9
41
63
48
5
-45
-50
-20
-26
-51
-36
-10
0
18
22
12
36
63
48
33
40
42
35
29
24
16
-13
-37
14
115
157
121
69
40
28
28
48
61
47
57
78
45
77
249
406
588
810
632
27
-291
-138
-24
-69
-73
-55
-59
-52
-63
-70
-32
0
6
15
26
50
105
160
202
263
330
375
413
442
426
371
307
240
156
56
-29
-69
-84
-98
-106
-106
-104
-101
-104
-103
-74
-52
-58
-33
31
58
20
-33
-60
-67
-79
-95
-97
-73
-34
-57
-119
-46
117
191
367
679
545
-82
-413
-265
-182
-251
-237
-209
-223
-195
-192
-264
-265
-157
-81
-79
-74
-53
-35
-7
39
97
166
231
269
277
260
216
149
58
-42
-109
-131
-148
-171
-173
-158
-148
-146
-141
-125
-106
-101
-108
-89
-38
-10
-36
-76
-98
-110
-119
-122
-128
-133
-101
-78
-114
-91
37
143
291
512
402
-109
-404
-277
-163
-191
-179
-153
-163
-147
-120
-118
-104
-87
-93
-79
-19
27
38
76
157
223
263
312
363
386
379
339
270
192
121
58
10
-20
-38
-42
-27
-15
-17
-8
21
77
166
230
291
493
757
872
957
1095
937
400
-52
-202
-249
-289
-292
-299
-322
-337
-355
-379
-397
-419
-454
-494
-538
-576
-598
-611
-599
-536
-428
-295
-153
-22
91
170
181
151
137
125
89
63
57
36
6
-6
3
18
17
-5
-14
0
-5
-30
-36
-30
-36
-38
-24
-21
-43
-59
-56
-60
-79
-81
-43
11
35
15
-16
-44
-65
-58
-37
-54
-66
-34
-50
-87
26
195
312
565
766
395
-226
-343
-114
-69
-127
-91
-66
-84
-75
-63
-67
-48
-8
15
14
9
27
82
144
191
252
327
379
414
446
443
395
318
209
97
24
-25
-77
-118
-145
-169
-175
-163
-156
-140
-108
-84
-59
24
175
325
439
576
739
854
991
1224
1270
857
233
-195
-370
-432
-460
-474
-478
-478
-480
-482
-497
-529
-550
-566
-605
-655
-701
-756
-791
-778
-727
-635
-488
-325
-190
-67
40
80
63
45
27
-4
-11
14
12
-16
-11
24
34
25
38
68
86
85
80
81
68
41
42
66
55
23
57
153
201
166
118
91
67
67
101
95
66
84
73
21
104
268
398
693
975
651
-32
-263
-100
-57
-104
-80
-77
-92
-53
-29
-61
-81
-60
-38
-38
-40
-16
35
91
134
181
252
319
343
338
334
315
243
139
57
1
-51
-91
-111
-122
-130
-134
-140
-133
-99
-79
-98
-105
-61
-10
-6
-43
-83
-107
-127
-145
-138
-133
-158
-162
-152
-179
-134
14
121
258
440
262
-271
-504
-320
-218
-283
-267
-206
-216
-235
-210
-177
-154
-128
-94
-68
-46
-12
31
74
134
211
280
328
359
362
326
271
212
133
25
-68
-98
-90
-99
-116
-112
-110
-125
-129
-105
-75
-66
-69
-50
-8
12
-8
-34
-40
-49
-66
-58
-32
-22
-6
5
-14
24
139
215
321
492
374
-82
-327
-200
-105
-150
-156
-143
-167
-167
-134
-110
-89
-64
-46
-15
38
73
83
121
190
242
278
323
356
358
348
318
247
167
105
45
-11
-40
-47
-53
-56
-55
-72
-103
-101
-52
-16
-9
39
144
273
453
639
728
846
1117
1233
883
303
-106
-288
-367
-393
-391
-398
-413
-422
-431
-450
-477
-516
-562
-604
-646
-695
-730
-743
-745
-715
-612
-451
-287
-144
-10
96
125
98
75
58
23
-7
-14
-26
-48
-59
-58
-48
-36
-40
-54
-51
-40
-36
-29
-19
-32
-51
-27
16
10
-17
13
88
148
163
138
103
69
38
51
90
80
62
82
66
82
230
373
524
748
649
98
-243
-113
2
-41
-22
9
-18
-18
-7
-31
-46
-32
-10
11
17
6
21
90
176
230
284
373
434
429
408
388
334
239
127
31
-27
-66
-110
-142
-143
-134
-142
-159
-150
-109
-77
-48
47
188
285
374
555
756
891
1096
1432
1600
1286
606
-42
-395
-491
-505
-539
-569
-561
-551
-568
-579
-583
-618
-667
-702
-745
-790
-818
-857
-892
-852
-738
-603
-450
-275
-121
-14
41
43
14
-8
-10
-7
-13
-20
-11
4
6
18
43
42
20
24
53
62
38
3
-13
4
19
2
0
51
110
133
120
78
38
25
28
34
19
-5
13
27
5
60
200
346
554
640
262
-251
-316
-114
-77
-124
-88
-43
-43
-45
-30
-13
1
27
50
47
49
81
111
145
215
295
347
384
426
452
419
336
260
195
114
43
4
-29
-54
-59
-66
-73
-64
-56
-47
-22
-19
-42
-27
28
42
7
-21
-36
-55
-64
-53
-45
-48
-45
-59
-79
-21
89
189
364
486
213
-257
-373
-202
-154
-201
-172
-134
-141
-133
-104
-87
-76
-55
-31
-20
-15
7
46
84
125
181
235
265
273
272
258
209
125
41
-24
-78
-123
-156
-183
-190
-180
-187
-208
-198
-162
-141
-147
-157
-139
-96
-73
-95
-128
-137
-143
-155
-145
-127
-124
-103
-78
-88
-48
62
139
251
380
198
-241
-408
-248
-150
-171
-157
-130
-128
-123
-123
-127
-123
-112
-86
-69
-75
-50
4
22
59
175
263
271
297
351
351
285
194
105
26
-55
-119
-124
-113
-132
-145
-133
-127
-111
-73
-53
-62
-63
-25
49
90
59
25
21
9
17
64
61
32
74
94
55
146
316
409
621
844
509
-164
-349
-109
-35
-112
-100
-65
-67
-58
-54
-55
-43
-42
-38
2
31
13
27
114
188
222
288
372
391
366
343
274
145
29
-52
-123
-184
-239
-282
-292
-288
-298
-286
-249
-230
-240
-235
-166
-42
42
70
136
238
336
486
652
773
1014
1391
1464
977
276
-214
-401
-395
-367
-413
-464
-453
-428
-432
-458
-506
-562
-580
-573
-611
-689
-719
-686
-677
-686
-601
-419
-251
-144
-61
29
112
129
59
-18
-32
-22
-27
-34
-51
-83
-86
-48
-24
-38
-34
3
-2
-64
-66
0
-4
-67
-41
69
130
109
71
41
14
23
76
78
25
49
113
102
136
278
416
583
669
348
-142
-243
-72
-22
-44
-8
17
14
12
15
43
66
49
45
87
120
127
158
220
261
268
296
347
357
328
309
267
172
76
5
-55
-92
-100
-106
-116
-116
-112
-114
-100
-58
-18
-18
-3
102
244
354
499
693
843
1014
1352
1696
1673
1143
375
-200
-426
-488
-524
-508
-485
-520
-551
-539
-559
-617
-654
-680
-718
-749
-787
-831
-837
-799
-734
-616
-440
-265
-147
-78
-16
23
10
-22
-34
-37
-53
-73
-77
-53
-28
-28
-30
-23
-26
-21
4
5
-7
5
3
-26
-23
3
-2
-12
25
92
135
119
72
53
56
43
31
29
32
58
59
12
52
180
278
491
774
585
-57
-382
-237
-144
-200
-193
-165
-171
-156
-138
-132
-113
-112
-116
-71
-20
-10
14
75
133
201
286
352
392
422
436
408
330
238
180
123
34
-21
-7
-5
-45
-52
-24
-24
-39
-17
22
29
20
38
75
91
73
31
-14
-36
-37
-31
-32
-35
-17
2
-17
0
104
203
320
466
344
-90
-328
-196
-71
-96
-105
-83
-84
-84
-87
-106
-125
-148
-164
-144
-123
-123
-91
-25
18
71
170
243
266
285
288
247
193
130
35
-52
-86
-97
-120
-136
-138
-132
-124
-133
-151
-129
-87
-102
-138
-119
-73
-51
-50
-69
-108
-146
-163
-158
-158
-158
-124
-103
-141
-114
17
123
250
386
200
-247
-410
-240
-148
-175
-152
-123
-131
-121
-109
-114
-105
-83
-73
-64
-40
-4
34
61
96
167
253
316
367
408
401
346
282
185
47
-51
-85
-125
-159
-147
-147
-184
-194
-176
-163
-136
-117
-131
-122
-57
6
19
-7
-37
-52
-50
-39
-42
-72
-74
-18
-10
-43
57
234
339
495
586
221
-300
-351
-110
-50
-99
-84
-78
-92
-74
-48
-39
-39
-43
-44
-33
-7
20
44
90
165
247
331
407
439
429
396
323
205
90
20
-16
-51
-97
-126
-113
-84
-76
-92
-104
-89
-44
-15
-15
56
228
372
475
660
872
1020
1271
1647
1747
1267
469
-157
-422
-484
-512
-528
-525
-529
-555
-592
-607
-591
-591
-646
-717
-763
-805
-848
-863
-848
-811
-720
-553
-354
-192
-78
16
87
98
66
38
20
3
1
10
13
12
20
31
32
24
26
35
28
19
27
13
-34
-49
-19
-30
-85
-91
-25
46
61
15
-33
-39
-37
-51
-60
-74
-80
-43
-31
-50
25
150
269
498
597
196
-308
-325
-107
-85
-135
-90
-43
-33
-18
-10
-12
4
27
34
43
64
78
106
171
234
274
342
430
463
437
401
361
293
200
113
39
-23
-61
-77
-94
-96
-72
-61
-62
-36
6
54
121
196
339
599
811
906
1078
1244
1033
513
83
-150
-291
-352
-350
-358
-391
-415
-423
-432
-452
-486
-528
-563
-595
-627
-639
-615
-569
-490
-360
-222
-103
31
157
221
249
264
272
379
578
685
773
994
1004
522
-11
-169
-163
-222
-260
-250
-265
-290
-302
-319
-342
-370
-403
-441
-481
-496
-452
-369
-290
-213
-104
18
85
86
67
43
15
6
13
7
-2
6
22
33
35
36
39
37
27
22
22
16
8
10
21
24
12
3
5
6
1
-2
-2
-4
-8
-12
-10
-7
-18
-33
-28
-13
-24
-51
-57
-52
-54
-56
-58
-67
-72
-64
-47
-34
-31
-26
-13
-7
-26
-47
-28
-1
-27
-57
-5
78
99
83
69
40
22
53
63
29
49
93
78
132
304
443
643
878
643
-23
-341
-174
-59
-104
-125
-131
-128
-109
-123
-128
-91
-81
-85
-54
-28
-14
26
75
118
174
239
306
351
344
319
307
267
194
123
49
-33
-91
-124
-149
-154
-155
-184
-195
-138
-77
-63
-39
44
220
501
758
910
1134
1440
1405
818
98
-318
-457
-507
-522
-517
-530
-557
-579
-598
-615
-620
-635
-679
-734
-764
-769
-771
-772
-728
-612
-456
-299
-139
1
84
139
162
110
132
394
655
548
132
-260
-463
-521
-511
-457
-341
-195
-76
-7
12
3
12
43
68
106
177
253
331
455
613
731
779
790
783
723
583
406
262
167
90
16
-35
-49
-58
-87
-106
-101
-106
-119
-96
-61
-61
-73
-72
-76
-75
-52
-53
-80
-79
-70
-70
-32
-9
-67
-103
-55
-38
-73
-67
-41
-57
-69
-46
-36
-57
-72
-59
-44
-47
-56
-56
-56
-57
-48
-34
-27
-18
-12
-22
-34
-33
-17
2
-3
-14
25
80
73
35
22
0
-30
-30
-20
-5
8
-24
-27
83
205
354
581
547
81
-284
-213
-55
-56
-87
-85
-77
-61
-59
-71
-61
-49
-54
-46
-17
7
21
47
82
115
148
184
209
212
200
179
151
109
57
4
-45
-90
-125
-149
-164
-168
-157
-152
-163
-165
-134
-95
-85
-88
-63
-18
-2
-24
-54
-69
-70
-69
-66
-57
