# session 125
-55
-52
-63
-79
-90
-102
-114
-121
-123
-126
-131
-136
-133
-133
-148
-159
-137
-89
-44
-25
-30
-41
-64
-100
-114
-106
-118
-134
-120
-118
-137
-128
-124
-143
-87
40
139
250
310
82
-293
-401
-255
-162
-174
-182
-173
-165
-153
-139
-118
-92
-82
-82
-62
-25
6
41
89
143
208
290
365
418
458
486
480
436
390
358
313
255
209
179
161
159
153
133
128
140
133
118
131
147
149
186
245
299
427
618
762
941
1189
1151
660
120
-150
-260
-328
-347
-352
-377
-390
-389
-398
-412
-430
-459
-479
-478
-494
-540
-557
-512
-441
-356
-233
-80
63
167
212
200
158
108
54
3
-41
-68
-74
-78
-92
-111
-124
-137
-152
-157
-150
-152
-168
-178
-176
-177
-173
-155
-147
-163
-176
-167
-152
-144
-135
-129
-136
-141
-133
-127
-126
-118
-119
-140
-140
-110
-105
-122
-93
-17
47
68
50
18
1
2
3
-5
-12
15
44
11
29
188
313
410
662
703
164
-373
-345
-140
-151
-195
-170
-182
-186
-136
-110
-111
-88
-74
-79
-33
41
73
106
186
258
315
408
511
564
586
589
539
452
379
310
217
131
79
47
23
0
-24
-24
9
71
158
254
402
676
963
1163
1425
1680
1478
762
56
-315
-464
-536
-579
-614
-635
-640
-648
-667
-697
-730
-752
-778
-816
-842
-847
-833
-777
-662
-497
-314
-142
10
125
178
180
151
119
136
152
84
83
302
485
314
-118
-517
-739
-795
-739
-607
-406
-176
-6
48
31
15
20
30
40
58
102
168
235
312
420
532
610
647
644
613
565
500
414
313
219
154
109
50
-33
-111
-157
-178
-195
-211
-227
-235
-226
-220
-235
-232
-210
-229
-234
-132
-16
49
120
51
-253
-443
-315
-176
-192
-193
-144
-142
-151
-127
-116
-125
-117
-107
-92
-45
-5
2
41
115
153
167
195
209
193
166
120
60
20
-4
-28
-35
-13
20
50
62
60
69
79
74
79
106
123
123
133
162
180
164
132
104
92
110
145
178
223
272
319
396
474
521
690
1060
1288
984
332
-139
-248
-233
-259
-282
-276
-269
-277
-317
-366
-374
-366
-389
-423
-444
-465
-473
-461
-443
-408
-331
-235
-147
-55
43
113
143
156
160
141
114
101
88
58
32
27
20
-1
-15
-24
-54
-96
-111
-105
-110
-120
-98
-49
-26
-58
-107
-133
-132
-124
-116
-104
-103
-109
-95
-90
-83
-3
102
217
441
517
114
-358
-372
-190
-176
-193
-150
-153
-188
-191
-175
-148
-122
-119
-111
-78
-52
-27
32
103
159
232
325
393
435
453
413
332
254
167
66
-4
-41
-78
-109
-119
-116
-106
-96
-101
-117
-126
-120
-100
-88
-91
-70
-21
1
-18
-56
-97
-110
-94
-88
-100
-108
-92
-56
-64
-82
32
209
335
515
572
174
-308
-324
-123
-104
-135
-92
-88
-113
-99
-86
-93
-92
-79
-59
-27
9
36
67
126
208
284
356
414
421
393
372
326
222
114
46
6
-27
-53
-66
-63
-63
-55
-15
13
18
85
222
348
509
759
1016
1298
1651
1771
1329
557
-42
-328
-463
-527
-514
-498
-539
-584
-587
-590
-629
-672
-703
-752
-815
-850
-848
-825
-758
-629
-464
-288
-108
40
115
130
132
128
101
73
68
66
60
55
43
31
32
33
19
-1
-25
-50
-55
-54
-80
-101
-84
-91
-139
-139
-100
-106
-125
-120
-138
-159
-122
-89
-112
-120
-78
-28
11
26
-13
-69
-75
-42
-14
-14
-31
-13
29
12
3
118
264
388
501
354
-101
-375
-257
-119
-138
-155
-132
-122
-113
-106
-95
-65
-33
-9
26
59
81
123
175
208
255
329
379
401
428
439
409
366
319
265
221
179
127
90
87
88
71
57
67
85
91
118
189
279
423
645
859
1062
1298
1318
875
233
-191
-349
-393
-412
-428
-436
-434
-441
-461
-495
-522
-520
-537
-600
-639
-633
-633
-620
-548
-437
-308
-163
-37
41
84
97
79
50
43
51
68
107
171
287
464
599
689
888
1059
829
263
-185
-345
-376
-392
-393
-382
-371
-369
-367
-360
-358
-368
-381
-397
-424
-444
-428
-368
-297
-229
-128
17
138
181
166
130
85
46
22
5
-3
-8
-26
-39
-35
-38
-50
-55
-61
-69
-59
-42
-40
-42
-38
-28
-12
9
27
30
20
13
11
21
44
54
40
38
47
37
27
32
25
8
-5
-15
-2
29
36
22
16
14
26
58
76
75
85
101
102
96
89
78
65
65
73
63
43
62
111
123
88
54
35
30
52
67
50
53
77
61
63
159
301
477
608
406
-64
-285
-152
-41
-61
-65
-57
-75
-75
-69
-82
-82
-51
-18
0
22
54
80
98
131
183
233
267
291
311
326
320
289
253
218
167
112
74
38
-3
-30
-48
-76
-89
-80
-93
-120
-122
-133
-175
-194
-189
-196
-181
-131
-120
-168
-214
-231
-237
-236
-223
-215
-222
-206
-181
-202
-166
-6
139
266
373
144
-368
-557
-356
-254
-299
-267
-223
-234
-225
-202
-198
-187
-165
-142
-119
-101
-74
-22
38
96
169
260
357
444
478
434
354
270
165
51
-35
-92
-126
-139
-164
-194
-179
-145
-153
-173
-163
-146
-137
-143
-142
-78
13
22
-24
-37
-35
-45
-38
-9
3
-11
3
43
27
31
173
321
418
570
514
37
-352
-265
-80
-87
-123
-103
-86
-78
-80
-87
-76
-47
-20
-13
-12
20
65
97
157
241
295
345
421
468
459
421
344
237
165
133
70
-4
-10
10
-22
-52
-31
-17
-23
-3
7
-19
-29
-8
19
60
87
51
-4
-22
-12
35
131
235
335
429
443
347
215
156
289
569
611
191
-279
-387
-325
-356
-393
-370
-367
-383
-379
-381
-392
-398
-411
-431
-433
-415
-397
-383
-362
-325
-276
-227
-187
-156
-120
-69
-32
-28
-32
-32
-38
-45
-39
-21
33
176
402
668
969
1221
1223
978
715
514
275
17
-165
-279
-366
-412
-424
-437
-444
-441
-458
-484
-492
-503
-526
-535
-554
-593
-578
-486
-397
-325
-213
-86
-8
23
40
67
103
127
132
140
154
156
151
158
172
179
177
169
164
165
159
142
138
147
145
130
114
101
100
104
97
84
85
98
97
87
89
82
45
20
39
49
25
25
67
94
86
73
60
33
17
30
38
23
28
47
33
49
160
278
405
566
488
72
-217
-142
-31
-42
-41
-28
-50
-51
-40
-51
-55
-46
-37
-19
-2
0
13
44
78
124
179
218
242
261
258
224
180
135
74
1
-60
-102
-136
-161
-177
-182
-170
-150
-127
-68
34
164
367
620
802
987
1257
1271
748
47
-384
-563
-642
-654
-649
-669
-683
-686
-704
-731
-755
-782
-808
-835
-868
-888
-875
-832
-746
-601
-428
-252
-66
77
116
111
107
72
48
73
65
37
144
411
702
818
541
-37
-461
-538
-517
-518
-413
-215
-67
-1
25
29
29
53
97
146
199
260
343
480
658
822
939
1026
1086
1065
934
752
596
464
322
188
92
18
-39
-75
-110
-138
-134
-128
-147
-160
-144
-123
-112
-108
-106
-105
-102
-96
-85
-83
-96
-86
-58
-66
-93
-85
-68
-73
-59
-27
-34
-59
-49
-33
-42
-42
-32
-34
-31
-28
-35
-11
3
-65
-104
-23
29
-25
-68
-86
-132
-149
-113
-102
-134
-140
-87
-29
-35
-84
-110
-117
-126
-121
-107
-92
-79
-99
-96
6
133
283
527
549
87
-363
-337
-164
-173
-217
-203
-217
-237
-225
-223
-236
-229
-211
-199
-181
-155
-128
-89
-37
12
69
142
207
246
263
256
241
234
209
161
130
107
55
13
12
9
-7
8
48
82
133
215
319
492
721
929
1147
1309
1109
533
-5
-301
-474
-553
-537
-525
-543
-540
-525
-516
-507
-519
-549
-563
-560
-559
-552
-521
-453
-340
-197
-51
81
186
245
257
231
168
106
106
140
117
73
137
240
169
-77
-313
-446
-492
-470
-415
-337
-201
-40
76
152
201
200
193
228
260
278
356
484
571
622
701
813
886
860
793
769
728
594
440
348
276
190
118
62
3
-42
-72
-103
-125
-132
-143
-161
-176
-194
-206
-204
-213
-234
-239
-232
-241
-256
-255
-244
-240
-244
-247
-247
-250
-262
-273
-274
-279
-297
-303
-288
-286
-303
-310
-308
-306
-296
-288
-291
-284
-265
-256
-254
-251
-249
-241
-232
-232
-213
-147
-73
-48
-62
-80
-96
-108
-93
-73
-67
-42
-34
-63
18
207
329
475
648
409
-159
-339
-106
-21
-96
-68
-25
-49
-44
-14
-8
7
57
96
95
104
164
230
267
312
380
450
527
590
584
531
502
483
412
308
223
159
96
38
-15
-47
-53
-66
-90
-69
11
98
166
263
495
839
1056
1107
1273
1454
1149
430
-96
-274
-368
-438
-441
-438
-440
-426
-451
-507
-514
-504
-562
-633
-638
-646
-721
-766
-715
-652
-594
-433
-209
-71
6
122
203
163
98
75
49
18
12
5
-18
-26
-24
-39
-62
-76
-91
-113
-132
-139
-128
-113
-131
-141
-113
-121
-137
-89
-46
176
783
1026
197
-766
-751
-282
-153
-175
-118
-114
-147
-137
-136
-147
-134
-119
-118
-108
-84
-61
-35
21
96
161
246
373
468
481
465
460
419
332
244
156
63
16
17
3
-12
20
55
44
18
12
27
41
33
11
-5
-13
-14
-18
-42
-70
-77
-85
-104
-103
-68
-31
-18
-1
50
72
19
-29
-24
-28
-51
-46
-41
-53
-60
-83
-87
-11
82
200
392
367
-50
-384
-300
-137
-141
-153
-124
-133
-147
-133
-131
-136
-119
-98
-89
-72
-30
18
50
83
140
202
249
302
349
356
349
353
316
223
157
147
126
71
32
30
22
-16
-43
-26
9
34
57
113
200
264
326
457
590
650
795
1040
1010
548
15
-293
-425
-487
-512
-532
-547
-539
-526
-527
-532
-538
-550
-563
-570
-575
-573
-553
-513
-451
-359
-248
-133
-16
99
175
196
189
161
107
57
31
11
-9
-20
-30
-43
-54
-58
-51
-31
-13
-15
-44
-72
-66
-49
-47
-37
-37
-41
33
106
146
481
934
591
-447
-894
-492
-150
-141
-121
-81
-109
-125
-123
-123
-99
-77
-78
-64
-39
-20
13
71
143
222
304
397
514
603
618
603
569
467
328
221
131
55
26
9
-28
-40
-27
-35
-42
-35
-49
-66
-64
-84
-115
-110
-119
-170
-179
-140
-151
-183
-145
-72
-35
-21
-28
-69
-109
-112
-100
-104
-94
-42
-44
-112
-46
139
245
400
605
384
-188
-393
-181
-81
-131
-108
-62
-71
-94
-103
-88
-55
-40
-25
9
20
6
35
120
196
234
276
353
417
410
376
359
310
218
136
61
-22
-74
-95
-125
-156
-162
-150
-133
-127
-123
-83
-12
34
38
41
71
123
206
337
460
528
667
972
1192
978
399
-147
-437
-544
-586
-600
-598
-592
-586
-598
-630
-656
-669
-691
-720
-734
-750
-780
-783
-739
-664
-561
-425
-276
-124
21
126
171
185
189
167
136
137
149
140
136
146
134
102
79
61
37
25
36
45
33
36
77
105
88
64
57
51
46
51
48
36
44
47
15
41
152
235
335
491
396
-14
-247
-122
6
4
22
55
50
55
73
73
70
82
101
111
112
129
164
196
230
279
325
369
423
451
436
415
385
329
278
237
183
145
147
141
111
101
126
144
136
129
156
195
217
236
273
352
482
594
687
862
1018
884
449
-11
-307
-440
-494
-531
-557
-576
-603
-631
-647
-663
-685
-711
-742
-776
-797
-801
-792
-762
-702
-609
-489
-345
-195
-80
-23
4
25
12
-44
-79
-75
-92
-134
-147
-135
-140
-150
-150
-150
-154
-160
-164
-155
-133
-122
-122
-94
-27
17
3
-23
-39
-75
-102
-75
-47
-41
-12
-19
-51
51
218
333
537
662
308
-197
-265
-85
-46
-79
-71
-64
-56
-47
-43
-18
6
3
16
65
109
138
180
236
301
376
449
505
535
529
490
440
376
277
159
66
13
-28
-59
-60
-52
-63
-64
-35
6
55
135
229
303
367
494
681
810
938
1240
1481
1221
568
-4
-318
-435
-438
-439
-466
-465
-468
-493
-485
-473
-518
-573
-586
-598
-647
-710
-741
-726
-690
-615
-462
-266
-86
69
206
416
740
950
1057
1523
2117
1840
742
-54
-225
-290
-395
-417
-432
-482
-512
-532
-550
-544
-537
-557
-574
-544
-481
-433
-400
-336
-227
-111
-21
26
43
46
30
-2
-12
3
-1
-25
-26
-16
-30
-48
-44
-42
-49
-51
-61
-74
-55
-28
-45
-69
-54
-23
10
55
106
190
311
384
444
620
803
839
817
727
444
164
61
-83
-326
-395
-278
-219
-274
-339
-358
-350
-360
-401
-445
-451
-434
-452
-510
-543
-525
-479
-396
-279
-167
-65
34
115
167
194
197
188
181
179
173
143
97
79
96
101
73
54
76
97
80
60
79
98
82
62
65
65
55
49
40
22
10
16
22
18
13
11
6
3
10
17
21
25
16
-6
-14
8
41
55
54
80
127
137
107
76
50
49
77
68
34
45
55
36
89
196
307
479
517
170
-218
-214
-53
-38
-54
-33
-62
-94
-76
-80
-121
-124
-72
-27
-8
32
81
92
132
249
271
119
40
164
291
302
292
292
253
192
143
101
59
25
3
-13
-13
6
19
8
8
45
76
48
-8
-33
-50
-92
-117
-114
-134
-154
-144
-163
-185
-116
-14
81
190
107
-256
-492
-388
-273
-312
-328
-291
-302
-339
-356
-359
-351
-340
-342
-342
-320
-288
-259
-225
-178
-130
-84
-27
