# session 207
503
5663
3374
1754
6474
9734
8333
8401
9088
5676
3527
6941
8183
4268
3418
6928
7980
6558
6585
6874
6022
5998
6481
4400
-232
-3954
-3873
300
5270
6650
5006
4422
4983
4417
4094
4849
3603
663
-555
-1546
-3425
-1791
2789
4107
2807
3128
3335
2391
3256
3358
-1026
-3546
623
3619
-156
-4994
-5778
-3321
267
3020
3373
547
-4290
-7081
-6488
-6292
-6820
-4224
348
2883
3234
2284
387
-1508
-3481
-4646
-3803
-3680
-4707
-2337
2130
2983
1678
2381
2433
-2368
-7764
-5299
1910
1769
-4018
-3249
2031
3127
2618
1881
-2342
-4098
317
2968
2144
2298
354
-4829
-7724
-7520
-5279
-229
3195
2286
2284
3168
-47
-3335
-2067
-1174
-2172
-859
-312
-3928
-5024
-244
3441
2909
2243
2647
2535
2250
2240
2229
2335
2224
2035
2599
2274
-1247
-5540
-5386
323
5594
3481
-3387
-6956
-7234
-6905
-3058
1688
329
-2707
-785
332
-3410
-4615
-819
-84
-3859
-4139
140
2914
3191
1873
-1975
-4241
-1412
810
-763
-386
3133
4456
3337
3230
3764
3332
2940
3313
2961
2278
3400
3249
-1587
-4867
-1354
3097
3353
124
-4979
-6458
-1553
1492
-821
-1266
-105
-2546
-3697
515
3832
3206
2725
3278
3058
2823
3103
2846
2531
2877
2623
2076
3011
2736
-1547
-4506
-1170
3406
2674
-2101
-5177
-3081
2024
4557
2340
-445
-157
-649
-5281
-7813
-4212
-2005
-4703
-4837
-400
2635
3325
3333
1394
-742
-730
-714
-404
2218
3868
2864
2753
3392
2614
2791
3627
299
-4463
-2892
2726
3728
-1116
-6349
-7450
-4213
234
3681
3955
-1337
-6242
-2888
2584
2766
2509
2328
-2267
-4278
1116
4802
3345
2545
2462
1835
2424
1016
-3580
-3952
1071
3393
1942
2037
2648
-296
-4818
-5911
-2722
1235
2962
1774
-2446
-7244
-6963
-1980
-1142
-6103
-6527
393
4099
477
-3258
-3801
-3477
-3057
-3290
-3975
-1738
3017
4733
2964
3303
4899
731
-5853
-4752
47
-671
-1598
2483
4750
3436
3438
3558
3010
4067
2438
-3288
-3561
2780
3885
-2279
-6556
-6453
-4150
650
4487
3474
2530
4556
2467
-3739
-4034
809
2171
814
-787
-3904
-4086
823
3763
3079
2968
2683
2703
4059
965
-4993
-3625
689
-2073
-4372
1228
5111
498
-5303
-4947
-21
3631
3761
3080
3299
3364
3036
2891
2882
2838
2527
2323
2819
2166
-1865
-6825
-8095
-5443
-3034
-3789
-5728
-4927
-999
3105
4739
2777
-1621
-5767
-7613
-4659
2589
5589
277
-3258
784
4172
3005
2454
3177
2718
2526
2881
2183
2155
2892
156
-5107
-7368
-6735
-5201
-1648
1764
2402
2788
2704
-178
-1653
1136
3808
3332
-174
-4279
-3186
2617
5044
3078
2090
2279
1924
1882
1779
1610
2515
1482
-3581
-6141
-1650
2982
1506
-2767
-5494
-5564
-2504
1324
2870
3155
2365
-1439
-6008
-7330
-4477
358
1447
-2626
-3611
1247
4175
3536
3468
2366
-1087
-3718
-4362
-2910
940
3899
3179
2045
3626
3832
-892
-4255
-668
3818
3611
2475
3013
3045
2587
2789
2737
2399
2630
2521
1986
2621
2575
-1385
-6196
-7145
-6247
-6579
-6573
-5722
-5699
-5709
-5469
-6369
-5698
-1589
2
-3129
-3317
901
1122
-3434
-3917
1579
5084
3532
3205
5112
2348
-2492
-968
1642
-1434
-2248
2930
5337
3392
3428
5076
3926
-197
-4461
-5721
-2548
2151
4144
3587
3185
3380
3337
3018
2818
3096
2987
551
-4224
-7945
-6696
-1410
2613
3641
3243
170
-4179
-3587
1118
2793
1322
1519
2763
1330
-1680
-1396
2390
3372
-738
-3164
-108
2798
2192
1651
2243
1957
1864
2593
1209
-3104
-6608
-5578
-731
3352
4308
4091
3729
2956
2684
1540
-2712
-7196
-8135
-5797
-1187
2920
1952
-1467
-1218
-585
-3271
-3136
394
-890
-4814
-3237
541
713
-22
660
985
933
1364
1641
1591
1674
1759
1667
1646
1741
1580
1382
1655
1611
1125
1802
2110
-1360
-6205
-7798
-6914
-6358
-6847
-6990
-4276
-594
-669
-1730
1337
3867
52
-4997
-4059
694
3131
2676
2331
2659
2621
2377
2379
2429
2448
2502
2488
2540
2782
2884
2654
2098
1431
1762
2533
167
-4809
-5828
-1357
2483
2535
1481
1963
2933
643
-3385
-1489
3686
301
-7308
-5386
444
-484
-1643
210
-2027
-4400
-492
2798
1446
812
1648
1300
946
1395
1472
1396
1759
1874
1636
1897
2064
1462
1895
2626
-751
-5622
-4285
854
2446
1996
1733
-1756
-6756
-7669
-6291
-6856
-6333
-660
4797
2311
-3136
-2284
-56
-3713
-6405
-3304
-1905
-4605
-4595
-379
3063
3588
3090
3090
3299
3240
3108
3095
3118
3096
2992
2870
2867
2946
2954
2898
2862
2798
2645
2496
2396
2255
2149
2095
1864
1755
1969
1636
1326
2278
844
-5463
-8402
-2753
1375
-1395
-2065
536
-978
-3351
-2231
-3183
-5770
-2902
2169
2550
1307
2149
2021
1229
3124
2764
-3486
-5841
-453
582
-4866
-4718
1241
3451
2193
2161
2560
2287
2099
2028
2085
1982
1600
2007
2120
-382
-4006
-6064
-5276
-1298
828
-3659
-7655
-4470
-1096
-2697
-3515
-1503
-2074
-5187
-4260
141
-203
-5009
-6632
-5884
-6231
-3403
2322
2487
-3051
-5424
-1827
2609
4059
3514
3200
3348
3251
3063
3047
2938
2760
2805
2909
2867
2998
3279
3019
2227
1787
1919
1986
1768
1710
1795
1506
1339
1718
1388
869
1993
1193
-4567
-7909
-3253
2009
2037
991
1403
1270
740
833
905
771
812
850
792
759
705
646
646
638
589
545
522
526
538
512
456
435
470
505
483
444
420
301
14
-158
90
371
215
198
508
146
17
1222
-406
-6823
-9685
-4967
-2097
-4748
-4640
-733
280
-1052
-893
-392
-684
-634
-351
-360
-275
-64
53
188
342
428
514
618
705
776
808
826
880
900
824
725
679
641
538
431
439
485
434
403
469
443
385
537
661
672
992
1335
1452
2141
2550
1230
456
919
-1329
-4069
-1607
357
-4130
-6675
-2251
942
-292
-857
-174
-388
-641
-437
-485
-538
-400
-360
-296
-90
90
225
376
514
576
540
497
502
469
394
362
351
330
340
342
287
258
300
319
284
261
251
214
187
185
152
139
172
105
50
175
133
-42
216
287
-610
-1233
-658
-105
-185
-166
-10
-50
-94
-84
-89
-43
-42
-72
43
177
300
614
753
282
-234
-214
-36
-56
-89
-61
-61
-58
-45
-48
-36
-25
-39
-22
4
-16
-10
39
43
58
149
198
183
218
247
186
151
190
172
94
55
22
-36
-59
-52
-60
-51
-19
-15
-18
11
53
128
280
416
456
546
758
928
1074
1304
1527
1716
1558
679
105
371
-647
-3044
-3130
-695
431
-154
-235
27
-128
-182
-87
-174
-250
-245
-299
-333
-300
-265
-205
-90
58
209
334
440
524
530
492
528
581
532
471
501
525
491
490
523
514
489
493
491
462
428
413
427
428
375
368
450
462
439
534
539
534
1004
1271
405
-425
-254
-145
111
917
-612
-4975
-7374
-6561
-6079
-5953
-4236
-2256
-1079
248
1386
1542
1347
1379
1518
1475
1278
1606
1750
-731
-5018
-6426
-3345
852
2706
1162
-2151
-3993
-3727
-3476
-3507
-3208
-3521
-3411
-705
2446
2980
2305
2344
2425
2201
2153
2177
2128
1996
1871
2012
1906
1123
802
1515
1978
1732
1625
1714
1600
1473
1443
1359
1287
1280
1222
1138
1128
1116
1048
1045
1109
1155
1284
1397
1129
650
493
604
614
540
519
513
484
456
440
413
363
337
302
261
351
400
270
396
554
198
389
980
-1048
-4849
-5030
-1470
779
673
421
488
655
404
-939
-1610
-167
863
140
240
997
-468
-2251
-1081
615
524
492
-91
-3369
-6525
-6502
-5783
-6591
-6219
-2700
877
1613
1136
1268
1218
1077
1628
1092
-1943
-4799
-4267
-1163
1252
1624
1277
1303
1361
1235
1204
1224
1161
1117
1120
1098
1054
1014
979
950
963
1006
1020
1034
1065
1057
1051
1060
996
979
972
744
671
792
404
352
1189
83
-3261
-3675
-290
1411
342
324
1048
174
36
1501
-330
-4608
-3910
-225
-1340
-4800
-4892
-3320
-1942
85
1375
1058
831
1147
1232
1215
1358
1459
1294
875
618
752
861
742
691
738
681
625
683
653
542
603
621
457
559
655
318
546
1082
-129
-1864
-1060
909
1110
384
556
932
327
19
1043
-7
-4649
-6551
-2485
1170
855
261
770
705
410
553
555
411
453
506
500
530
521
448
401
382
362
360
363
349
358
360
301
292
372
425
621
1016
1002
381
-61
16
102
25
5
22
16
40
53
20
-4
10
33
38
17
18
57
75
73
93
95
122
200
147
62
187
177
3
179
119
-361
171
362
-2847
-6925
-7787
-7237
-6746
-3697
708
1462
-1805
-4606
-3759
-519
1556
1429
1035
1214
1218
1044
1052
1068
1008
977
958
946
913
863
887
952
1089
1420
1576
1138
586
506
637
616
558
556
544
533
533
509
474
458
451
437
417
433
512
546
483
509
600
483
455
742
440
-580
-741
203
667
403
349
446
334
263
308
287
249
252
242
230
237
243
255
269
270
284
315
308
258
209
182
167
151
141
136
123
135
160
117
93
193
273
415
774
739
23
-210
240
-689
-3528
-5227
-3534
-491
845
537
318
503
498
373
434
496
396
426
549
391
442
799
399
240
1396
265
-4132
-5160
-960
1657
575
140
988
631
16
971
714
-3250
-6342
-4437
-1492
-837
28
1364
400
-2250
-4054
-3920
-1696
965
1728
1181
1114
1298
1170
1110
1148
1088
1051
1060
1078
1140
1227
1401
1511
1180
641
488
615
617
547
547
531
460
467
560
486
345
487
487
192
531
775
-1380
-5333
-7728
-6570
-2712
796
1645
1062
1016
1161
951
846
851
724
639
629
577
542
541
516
494
480
443
408
403
392
346
312
335
384
391
344
284
238
205
189
180
149
127
167
178
95
99
233
289
380
629
566
28
-301
-159
-44
-108
-113
-81
-100
-111
-101
-99
-96
-96
-88
-61
-48
-39
8
58
82
115
158
183
206
228
221
191
146
87
33
-6
-43
-66
-65
-61
-67
-53
-13
-10
-60
-62
2
6
-61
-68
-5
35
42
46
24
-18
-33
-12
12
-3
-32
-13
3
-29
0
87
166
412
739
612
87
-190
-110
-24
-68
-107
36
89
-176
-27
402
-953
-4487
-7170
-6345
-2836
249
1014
567
590
873
735
670
946
785
486
1064
781
-2051
-3976
-1949
740
964
473
711
781
590
674
705
509
532
658
408
118
212
423
654
711
331
501
967
-795
-3474
-2641
418
1206
406
516
805
553
527
686
669
757
857
613
306
274
362
434
441
359
412
488
300
363
604
180
229
1150
-348
-3826
-3580
83
1448
517
544
963
723
657
776
649
595
645
575
518
522
466
411
429
440
386
334
363
410
376
311
307
331
333
327
336
366
384
337
279
290
292
233
214
244
216
162
168
207
199
179
322
563
603
515
300
-281
-285
610
-369
-4062
-6586
-6609
-6386
-4992
-1325
1233
1006
584
946
928
703
842
853
663
801
304
-2021
-3795
-2043
854
1327
918
1270
101
-2611
-3496
-2718
-2977
-3167
-1098
1305
1685
1189
1236
1336
1197
1165
1154
1056
1048
1100
1081
1031
991
932
875
842
815
794
755
686
687
732
649
587
734
816
810
931
703
153
231
412
1
453
992
-1656
-5174
-3863
684
1908
-1153
-3354
-1730
782
1084
478
639
807
630
688
813
767
779
832
787
725
680
599
506
437
381
324
281
269
274
259
230
214
199
167
143
142
138
129
147
192
212
172
114
81
58
55
51
-24
-41
68
49
4
170
73
-31
767
469
-3472
-7521
-6265
-1658
719
455
234
459
432
304
318
386
283
171
419
366
-83
517
895
-1451
-3383
-1320
1168
862
277
727
733
444
537
523
364
386
387
287
274
298
256
227
248
247
207
191
209
211
199
197
207
236
259
223
183
215
208
99
91
193
133
37
121
111
69
234
93
11
864
272
-3900
-7102
-4667
-298
934
317
381
587
410
377
431
365
356
399
385
381
403
411
432
467
487
513
551
568
562
556
549
516
453
393
365
343
297
251
230
227
241
256
240
210
192
179
192
213
164
140
238
253
179
294
300
43
280
479
-1608
-5670
-7595
-4968
-748
1044
659
533
898
957
1014
1093
713
282
316
469
429
373
418
430
348
380
481
314
253
781
1077
539
124
329
459
358
399
490
497
528
546
500
480
472
392
300
269
239
167
115
110
114
117
119
104
96
121
118
59
49
122
112
35
129
195
21
82
237
-147
-47
611
-1459
-5994
-6757
-2401
891
682
299
801
858
738
807
481
33
69
248
201
132
173
224
224
184
162
190
211
195
195
216
205
173
185
226
248
266
298
314
319
333
312
236
171
116
14
-62
-49
-62
-124
-124
-126
-154
-84
-117
-269
-67
44
-389
-67
341
-2445
-6401
-5507
-1048
862
157
85
423
225
142
243
180
161
175
126
196
297
360
580
664
256
-128
-51
89
38
14
42
22
17
27
-2
-7
36
51
29
42
91
121
126
149
198
243
284
317
323
324
330
296
237
216
200
130
82
119
130
91
131
159
102
159
155
-15
212
378
-185
139
997
-1573
-5821
-4928
-218
1470
418
402
861
616
515
660
571
471
527
588
626
783
1072
1093
651
295
373
500
453
427
462
456
435
440
445
431
429
467
502
500
502
523
546
590
640
643
640
681
715
697
653
615
572
484
403
433
495
455
378
344
360
430
363
48
-117
97
289
260
244
254
208
225
278
220
120
80
47
-1
-20
-23
-51
-92
-108
-117
-157
-170
-121
-66
28
121
-54
-457
-632
-507
-445
-514
-539
-541
-572
-563
-555
-614
-641
-617
-634
-622
-527
-484
-537
-568
-495
-393
-404
-373
-209
-306
-421
-112
-363
-944
-141
-283
-3719
-5420
-2695
-1488
-3169
-2519
-187
11
-612
-327
-241
-471
-361
-275
-345
-270
-166
-158
-133
-105
-135
-161
-136
-90
-72
-82
-72
4
92
117
111
-39
-499
-783
-425
-145
-196
434
913
-1002
-4483
-6408
-5303
-1991
1020
1718
1207
1290
1571
1489
1531
1734
1804
1881
2060
2228
2363
2467
2509
2487
2400
2268
2122
1964
1820
1726
1648
1580
1580
1635
1664
1655
1644
