# session 251
37
-4
407
414
-600
-1150
-195
662
417
231
463
397
242
397
518
588
852
961
872
753
-278
-2078
-2174
-158
883
-343
-1727
-1976
-1754
-1223
-182
539
432
255
396
468
442
473
471
471
529
531
508
584
659
633
575
521
471
445
383
292
249
187
147
211
131
22
239
122
-770
-1440
-1426
-1158
-583
-218
-881
-1728
-1774
-1590
-1654
-1625
-1294
-729
-189
47
140
260
270
281
448
604
848
1235
1147
487
134
295
337
207
227
278
224
202
225
193
131
72
-5
-28
53
126
142
185
225
195
204
315
394
390
412
477
458
341
261
240
169
79
79
97
37
-14
25
69
43
-1
-21
-15
30
-95
-494
-402
402
66
-2003
-2978
-1709
-684
-686
-268
267
130
33
196
111
27
185
309
456
655
488
37
-105
87
200
162
134
157
184
216
270
291
252
215
209
221
229
209
234
285
230
259
395
225
209
736
263
-1450
-1669
-26
691
128
-2
235
171
124
231
252
205
179
180
203
232
229
185
219
286
224
268
406
171
69
439
-46
-1136
-867
-455
-1940
-3112
-1898
-240
226
177
158
194
295
165
-180
-246
-15
117
98
108
166
188
156
160
229
247
198
220
274
243
249
314
279
327
485
355
333
787
311
-1586
-2570
-1525
-226
263
396
348
208
207
206
142
197
316
343
296
246
247
265
229
223
325
402
360
318
333
308
242
251
298
256
206
204
141
165
272
67
28
613
319
-1210
-1454
-361
-401
-777
-453
-1689
-3660
-2640
-104
368
-166
73
271
140
215
271
204
250
307
311
370
425
440
492
561
596
598
575
531
439
344
320
249
101
90
78
-86
1
97
-534
-1081
-507
160
-19
-237
-82
-49
-74
77
163
104
94
125
104
84
109
117
94
108
121
57
50
164
252
423
799
865
299
-210
-141
3
-97
-62
3
-227
-158
186
-512
-1730
-1408
-121
146
-278
-345
-301
-326
-215
-97
-28
86
174
215
258
278
299
315
260
179
137
114
127
154
113
71
131
177
119
88
114
89
93
129
48
68
248
46
-483
-855
-1291
-1492
-674
263
177
-135
40
124
2
121
349
421
603
975
962
382
-33
74
195
107
97
202
246
203
169
220
242
182
276
336
64
134
530
-167
-1226
-448
635
-736
-2662
-2084
-136
723
513
303
261
106
-107
-126
20
88
77
130
187
174
177
205
216
244
244
211
299
394
343
372
345
83
226
486
-231
-770
-194
-752
-2549
-2416
-1067
-1417
-1867
-389
967
799
347
118
-133
-94
179
283
319
451
538
503
452
472
519
517
482
477
507
539
561
578
559
524
597
682
592
611
749
205
-688
-456
78
-982
-2037
-906
531
376
8
182
69
-64
57
-76
-32
119
-981
-2292
-1401
447
764
311
425
565
397
379
498
405
287
473
408
-14
397
756
-1209
-3312
-1726
1397
1335
-1393
-2571
-1160
-207
-792
-501
669
223
-1036
-729
269
359
200
429
541
474
537
582
505
512
599
594
550
585
643
664
669
617
486
396
407
332
51
-180
-53
268
214
-519
-1451
-1670
-920
-12
267
124
56
68
55
61
55
6
-24
-4
39
82
110
108
100
151
205
169
191
336
444
716
1184
1165
596
88
-255
-86
408
-421
-1854
-1376
-576
-1788
-2790
-2133
-1432
-723
343
576
191
281
459
345
355
479
524
603
683
659
642
675
618
471
378
366
352
289
201
175
225
228
172
145
139
194
236
58
30
353
-32
-1368
-2139
-2023
-1861
-1229
-48
378
30
11
217
123
23
147
250
288
536
986
1134
686
97
-89
37
131
123
99
92
99
92
86
138
194
159
123
154
137
145
254
169
79
426
171
-1638
-3043
-2009
-41
631
282
14
17
128
214
201
201
238
199
148
188
229
181
118
153
247
243
142
151
321
430
353
245
244
250
184
171
202
101
72
277
-34
-1464
-2965
-2967
-1458
166
798
517
73
-68
2
63
79
89
101
127
166
186
195
210
217
222
239
250
258
266
273
319
394
442
491
529
481
458
518
436
278
301
200
-77
23
16
-826
-1314
-552
89
-130
-267
-106
-89
-76
10
-11
-7
123
197
157
102
81
84
65
36
69
87
49
94
139
53
58
144
171
442
707
329
-101
-195
-989
-2397
-2966
-2396
-1265
-105
371
170
60
178
210
169
130
141
252
327
292
285
348
401
434
464
507
563
590
579
548
495
445
381
260
169
138
103
138
160
26
60
165
-347
-930
-518
156
92
-84
81
92
-35
11
41
-41
-28
85
137
94
66
107
114
78
139
262
405
688
834
392
-207
-200
22
-229
-295
214
-53
-1345
-1907
-1472
-1122
-684
-6
226
40
-80
83
279
-262
-1089
-723
316
529
321
468
583
494
458
425
349
301
266
236
207
166
138
119
88
4
-71
63
173
-48
0
378
-220
-1611
-2057
-1597
-1136
-452
161
32
-210
-38
90
86
196
284
328
454
555
684
948
922
405
43
149
279
277
302
297
279
308
227
118
185
180
88
256
259
-317
-908
-1344
-1609
-981
105
528
582
299
-641
-839
219
707
254
149
358
291
192
202
160
143
202
218
151
95
126
172
162
165
179
154
197
239
124
108
172
-63
-62
323
-626
-2812
-3063
-947
362
99
18
329
551
864
852
280
-8
205
277
181
208
229
181
195
222
199
199
211
170
154
217
242
222
253
252
251
373
371
282
474
446
-150
-492
-673
-1331
-1333
-138
474
-33
-120
266
-74
-317
471
-17
-2639
-3378
-870
786
260
101
542
401
212
381
375
256
324
338
245
337
393
164
188
375
-51
-272
276
-394
-2291
-2244
-335
413
13
55
193
27
56
179
116
104
221
266
208
153
168
245
299
300
319
376
406
410
440
477
477
453
445
448
361
213
184
138
-22
94
243
-278
-889
-939
-1061
-1112
-367
303
133
-63
85
124
67
70
54
59
92
72
73
137
151
128
162
170
137
223
381
514
812
1109
809
112
-128
76
72
-43
108
120
-121
55
205
-677
-1692
-1714
-1365
-926
-183
-7
-633
-921
-649
-488
-446
-266
-48
138
326
464
507
489
452
402
362
367
395
381
347
365
396
363
313
300
281
279
292
253
320
459
167
-555
-1306
-1970
-1820
-483
386
77
123
228
-897
-1514
-264
746
502
517
889
560
-13
-23
180
190
160
165
161
188
178
81
55
170
242
186
174
245
235
224
336
337
252
367
334
134
453
392
-1211
-2274
-996
238
-273
-640
-198
-195
-116
441
-159
-1517
-1185
241
541
191
297
374
259
374
502
414
337
340
320
296
293
270
222
210
245
249
182
51
8
354
806
596
-200
-1125
-2170
-2453
-1136
247
253
-74
92
145
4
47
124
102
115
161
181
206
235
259
311
351
341
394
497
503
519
562
439
423
540
226
112
664
-238
-2893
-3236
-288
1031
-1334
-3110
-1711
-82
-275
-420
302
488
158
209
332
243
276
373
369
404
458
411
383
433
430
401
458
548
744
1140
1267
737
151
121
309
283
173
179
238
226
179
125
33
123
385
122
-778
-1400
-1329
-865
-125
599
643
200
451
993
-241
-2309
-1865
329
921
276
307
540
368
323
430
403
372
427
439
372
411
559
481
384
608
496
228
802
91
-3747
-5895
-2752
171
-1128
-2456
-1637
-1324
-1466
-553
180
-68
-114
325
421
33
-234
24
533
802
809
820
882
905
889
867
849
848
883
923
879
795
824
888
884
946
955
811
983
1178
382
-489
196
1157
395
-1261
-2126
-1721
-352
647
483
432
689
-57
-925
-1206
-2393
-3119
-1006
1308
1684
2021
1455
-1513
-2847
-390
1497
808
270
609
529
334
501
413
223
445
318
-147
299
394
-1586
-2986
-1717
-627
-1434
-2403
-2764
-2645
-1663
-241
845
1107
130
-945
-418
765
912
635
756
807
695
723
727
642
614
630
700
787
692
389
62
-214
-462
-586
-500
-389
-383
-249
-66
-105
152
724
152
-1739
-3004
-2705
-1445
127
1118
1088
908
1156
1344
1239
1198
1381
1577
1629
1584
1468
1298
1169
1033
790
574
479
376
222
115
60
16
-20
-58
-87
-110
-152
-169
-173
-198
-156
-148
-286
-250
-169
-455
-364
73
-1018
-2875
-2400
-410
80
-558
-842
-892
-662
-152
-33
-170
-48
82
49
69
67
-26
-28
47
57
45
55
48
77
154
145
65
86
135
73
25
8
-24
114
172
-115
18
459
-283
-1425
-902
164
-31
-408
-123
-59
-247
-143
-21
-34
73
205
208
223
267
233
215
285
311
261
269
338
384
424
470
505
572
612
516
443
475
366
239
348
229
-60
287
208
-1702
-3138
-1703
314
471
65
262
341
196
261
332
291
326
348
259
213
239
218
192
206
178
166
191
108
151
448
466
544
1191
547
-1878
-2408
-401
309
-51
515
-843
-4197
-3856
-24
1068
-1008
-2004
-1300
-549
56
488
443
353
495
545
505
579
659
655
645
626
555
457
374
310
252
201
176
182
187
167
150
159
161
162
163
141
201
298
192
135
309
104
-194
224
52
-1357
-1502
-175
-243
-1115
-420
600
442
309
739
788
319
-64
-103
55
124
69
101
123
18
151
352
-136
-781
-460
238
301
157
264
304
254
325
404
433
479
482
483
548
484
338
364
214
-190
-157
-235
-1328
-1882
-715
234
-121
-373
-108
-84
-194
-136
-81
-58
-7
18
28
24
-24
-52
-13
32
35
38
76
83
71
167
309
432
697
893
548
-53
-233
-51
23
-39
-2
32
-120
-103
49
-732
-2190
-2191
-567
409
175
54
250
246
224
344
406
429
490
506
484
480
433
317
225
175
132
129
109
9
11
101
16
7
194
24
-49
572
163
-1787
-1954
531
1802
289
-1673
-2659
-2517
-1138
307
505
94
49
127
50
31
64
34
15
23
-15
-79
-126
-174
-235
-275
-290
-309
-307
-215
-60
59
151
310
472
525
557
586
477
404
447
273
205
590
155
-1374
-1438
371
684
-1029
-1432
-22
666
325
275
412
295
240
311
308
297
318
316
326
348
336
295
262
248
226
203
233
265
239
223
220
204
283
372
428
779
1033
403
-209
69
-163
-1055
-770
-290
-1322
-1745
-328
495
43
-64
163
86
70
167
105
74
166
215
233
285
332
378
428
441
436
416
360
358
370
231
166
282
159
68
326
15
-304
656
80
-3437
-4392
-1324
-435
-2351
-2493
-1537
-1324
-415
695
518
220
497
545
465
524
481
528
745
865
1016
1111
708
162
113
309
334
316
344
318
300
335
320
273
296
358
393
376
302
317
431
361
299
586
452
-868
-2463
-2886
-1793
-94
802
565
224
321
355
158
182
309
79
102
565
-263
-2249
-2281
-200
827
394
334
590
474
391
507
485
376
437
500
353
418
626
219
116
1022
440
-1675
-1355
172
-1557
-4086
-3332
-1268
-212
407
621
383
378
506
467
479
538
552
606
630
569
539
558
592
659
684
645
686
773
734
626
555
535
559
428
246
414
380
-91
312
808
-970
-2950
-2031
-682
-1573
-2922
-3095
-2151
-394
800
644
341
441
417
396
451
409
529
544
273
602
958
-117
-950
240
1223
528
66
451
509
367
508
516
353
441
552
375
420
625
153
54
980
-516
-4792
-5350
-1330
188
-1553
-1814
-1104
-977
146
1453
1183
730
968
874
543
568
646
616
651
659
593
632
782
877
996
1276
1526
1764
2249
2434
1733
864
379
-7
100
394
-699
-2317
-2514
-2582
-3131
-1731
685
483
-1289
-1587
-1174
-1191
-650
187
191
-46
139
291
293
397
555
659
596
499
733
993
730
335
339
438
375
385
458
393
347
411
377
409
595
449
381
959
942
604
1792
1533
-2581
-4197
-660
118
-3316
-3731
-1555
-1605
-1870
-171
816
297
98
266
133
14
25
-25
-54
-78
-177
-231
-211
-236
-262
-167
-27
37
83
201
317
351
359
391
414
434
466
442
372
368
368
301
330
405
57
-1002
-2409
-2972
-1759
84
661
255
145
274
250
261
281
195
145
140
120
142
161
132
143
183
173
152
171
229
316
353
303
270
259
216
261
326
184
112
251
120
51
540
253
-1460
-2715
-2807
-2735
-1959
-169
838
555
414
651
563
374
471
549
444
479
612
427
154
326
666
673
549
596
678
681
738
841
816
796
886
734
555
786
645
234
860
769
-1832
-3167
-1137
-367
-2585
-3612
-1948
32
955
1006
828
859
830
733
817
696
583
996
703
-758
-1026
493
1357
1018
969
1347
1496
1257
773
568
719
641
633
991
548
-722
-795
537
1110
474
487
1047
-552
-3605
-3686
-1135
-395
-1310
-1252
-601
131
1131
1456
1203
1244
1217
1114
1106
654
619
1251
-2
-2519
-2078
473
1022
265
437
647
347
387
555
466
429
359
248
353
172
-111
452
-202
-4107
-6473
-3224
-155
-1815
-3161
-1626
-1002
-1317
-247
637
217
39
329
252
56
127
112
-170
-71
348
-275
-1528
-1250
77
327
-114
-12
216
151
151
276
326
336
409
370
155
193
274
-211
-240
400
-1000
-3810
-3137
-38
-382
-3131
-3559
-2798
-2922
-1949
259
1089
624
598
896
915
870
872
833
837
911
942
907
997
1248
1431
1578
1773
1652
1210
1061
1280
1441
1498
1547
1612
1724
1733
1795
2087
1982
1805
2611
2302
-1065
-2961
327
3111
287
