# session 24
61
-428
-418
-238
-230
-243
-189
-156
-152
-147
-137
-122
-107
-90
-74
-79
-81
-51
0
53
103
160
229
297
360
419
445
411
334
231
126
53
12
-31
-82
-109
-98
-95
-136
-182
-211
-265
-367
-497
-611
-642
-594
-546
-525
-521
-545
-554
-488
-396
-370
-405
-403
-311
-221
-230
-292
-313
-275
-220
-191
-179
-157
-140
-99
-29
-39
-66
88
305
476
755
845
324
-260
-245
-10
-15
-58
-8
-2
-24
-10
-4
-10
-2
4
11
34
62
92
127
163
215
294
373
436
505
556
548
506
464
394
284
194
155
123
78
46
35
40
50
52
57
69
56
36
51
75
73
73
78
64
38
21
9
13
25
14
6
38
89
128
133
82
20
24
50
40
39
48
40
48
27
-24
50
184
237
459
772
532
-133
-367
-160
-93
-159
-134
-104
-122
-120
-110
-109
-97
-75
-56
-46
-45
-27
5
30
61
116
178
223
260
303
327
292
219
139
43
-58
-125
-169
-219
-260
-281
-287
-276
-269
-275
-263
-233
-233
-251
-239
-221
-238
-255
-236
-214
-218
-230
-237
-248
-255
-230
-188
-179
-190
-168
-123
-97
-89
-96
-122
-141
-145
-156
-161
-165
-184
-183
-175
-199
-165
-48
63
234
396
169
-338
-518
-342
-254
-277
-235
-203
-227
-220
-183
-167
-168
-159
-133
-103
-84
-60
-33
-24
0
64
117
149
217
292
296
260
253
233
152
64
8
-32
-55
-70
-100
-113
-90
-81
-90
-72
-54
-69
-63
-22
-6
0
32
45
19
6
14
13
1
-16
-36
-39
-9
27
38
49
102
164
175
149
137
143
150
154
171
202
210
213
254
265
238
317
469
581
750
850
537
84
37
227
261
239
282
295
287
303
301
292
311
329
327
330
346
361
376
405
457
509
552
610
677
721
731
726
710
670
593
487
398
353
324
288
270
278
279
261
256
266
258
225
193
175
154
124
101
95
82
53
30
19
-12
-62
-79
-61
-72
-115
-118
-71
-39
-52
-96
-159
-207
-219
-236
-267
-291
-339
-373
-355
-410
-496
-397
-240
-129
171
318
-291
-1074
-1164
-946
-1004
-1118
-1103
-1138
-1215
-1235
-1249
-1294
-1337
-1368
-1390
-1420
-1465
-1499
-1510
-1504
-1482
-1455
-1429
-1391
-1346
-1317
-1329
-1404
-1529
-1645
-1749
-1884
-2016
-2099
-2167
-2236
-2275
-2314
-2372
-2393
-2378
-2404
-2464
-2482
-2469
-2473
-2495
-2512
-2511
-2522
-2570
-2572
-2518
-2592
-2606
-1900
-413
1127
2351
3479
4565
5438
6106
6727
7305
7724
8146
8677
8678
7741
6779
6534
6347
5710
5119
4818
4584
4471
4362
3846
3143
2713
2290
1581
899
432
16
-398
-763
-1018
-1157
-1365
-1603
-1380
-664
-132
-67
-134
-203
-370
-508
-514
-525
-544
-461
-387
-329
-128
-103
-403
-192
704
1012
324
-344
-610
-897
-1195
-1329
-1440
-1604
-1732
-1793
-1818
-1837
-1859
-1863
-1845
-1837
-1843
-1841
-1837
-1843
-1834
-1787
-1734
-1720
-1725
-1671
-1547
-1437
-1394
-1394
-1389
-1360
-1319
-1274
-1209
-1150
-1109
-1030
-951
-934
-844
-649
-472
-126
348
232
-520
-919
-706
-549
-598
-562
-485
-468
-437
-386
-345
-296
-252
-222
-171
-107
-62
-16
42
101
175
273
370
462
553
613
627
627
617
558
464
397
358
312
285
297
303
279
272
293
294
278
286
314
333
334
319
304
306
303
290
290
291
266
243
257
272
249
230
262
315
350
358
321
255
235
258
253
243
268
265
235
241
243
252
355
492
662
908
874
342
-122
-91
55
24
-11
3
-11
-16
4
4
-7
-7
-2
11
25
35
49
60
67
107
186
242
268
321
380
381
351
336
293
197
115
66
19
-15
-30
-58
-82
-76
-77
-93
-78
-51
-45
-39
-21
-10
17
90
219
427
669
824
861
799
623
545
789
960
581
45
-87
-15
-67
-130
-127
-157
-199
-195
-193
-210
-221
-226
-231
-237
-244
-238
-216
-198
-181
-143
-86
-25
35
94
150
203
246
266
272
282
291
278
252
242
254
261
249
245
261
263
241
231
239
235
214
199
191
178
160
145
134
120
98
71
59
63
53
23
4
-5
-25
-44
-51
-67
-91
-111
-135
-164
-186
-212
-246
-267
-271
-281
-309
-350
-381
-384
-384
-421
-469
-474
-463
-492
-560
-634
-693
-740
-782
-808
-836
-894
-925
-925
-995
-1033
-905
-766
-631
-395
-466
-1102
-1631
-1590
-1450
-1538
-1633
-1652
-1690
-1722
-1730
-1757
-1790
-1798
-1797
-1809
-1829
-1853
-1864
-1861
-1865
-1875
-1858
-1815
-1801
-1847
-1919
-1960
-1968
-1975
-2001
-2053
-2119
-2200
-2282
-2326
-2367
-2444
-2435
-2364
-2474
-2411
-1416
292
1811
2966
4030
4963
5758
6505
7104
7641
8238
8679
9104
9801
9977
9097
8529
9131
9435
8505
7446
6801
5795
4396
3292
2512
1833
1227
565
211
686
1241
863
24
-475
-799
-1205
-1561
-1844
-2100
-2271
-2364
-2416
-2393
-2300
-2203
-2137
-2101
-2074
-2047
-2069
-2175
-2277
-2294
-2285
-2302
-2307
-2292
-2286
-2272
-2242
-2217
-2180
-2110
-2055
-2049
-2047
-2000
-1935
-1880
-1824
-1767
-1727
-1696
-1653
-1599
-1551
-1525
-1507
-1465
-1404
-1350
-1304
-1256
-1214
-1162
-1087
-1028
-1004
-972
-912
-852
-791
-724
-681
-643
-554
-433
-341
-292
-278
-272
-231
-180
-153
-112
-52
-13
15
29
57
201
402
602
929
1116
694
65
-50
150
192
181
254
289
285
308
327
338
372
400
419
455
480
480
511
584
648
702
772
838
886
931
966
959
917
871
812
726
641
585
545
498
461
445
437
430
428
426
429
442
436
423
458
449
294
177
278
452
604
836
1054
1178
1452
1866
1903
1357
632
115
-138
-206
-201
-213
-249
-276
-278
-270
-300
-374
-436
-457
-470
-502
-555
-607
-630
-615
-572
-496
-375
-226
-88
22
121
181
157
101
100
86
-57
-248
-318
-276
-229
-200
-167
-141
-139
-155
-178
-199
-228
-268
-290
-288
-291
-291
-272
-253
-235
-203
-183
-181
-158
-141
-192
-269
-310
-342
-380
-371
-295
-180
-50
47
68
60
120
247
346
384
409
437
435
414
427
458
435
380
366
342
292
345
468
556
726
845
508
-30
-145
54
123
80
72
79
84
55
-21
-29
56
117
137
177
213
224
246
288
304
260
168
59
-48
-165
-298
-430
-546
-649
-749
-876
-1040
-1203
-1340
-1451
-1519
-1550
-1579
-1587
-1507
-1325
-1111
-930
-783
-645
-521
-426
-340
-245
-169
-116
-42
43
96
152
245
311
317
326
389
476
548
640
785
893
938
1105
1388
1414
1022
546
270
164
129
134
147
149
148
139
115
101
106
67
-44
-156
-252
-376
-464
-438
-377
-351
-306
-209
-101
9
135
248
317
357
379
365
321
288
269
239
216
224
238
230
214
210
214
232
259
270
254
203
80
-76
-143
-113
-77
-42
15
47
57
115
193
217
194
157
136
152
145
97
98
126
107
124
141
28
-59
26
188
498
804
513
-214
-486
-264
-172
-237
-205
-164
-178
-156
-126
-138
-128
-91
-91
-94
-60
-42
-43
-6
48
81
134
220
297
349
387
390
339
265
176
55
-49
-90
-124
-174
-191
-203
-249
-261
-233
-292
-450
-545
-521
-479
-460
-420
-364
-346
-365
-350
-269
-184
-162
-192
-229
-244
-246
-273
-306
-279
-240
-252
-245
-219
-241
-181
21
182
343
528
319
-281
-553
-346
-206
-254
-243
-192
-196
-191
-150
-121
-113
-93
-54
-31
-26
0
48
78
109
184
274
332
383
448
487
477
430
348
242
145
67
4
-27
-32
-48
-75
-86
-75
-40
3
28
41
52
53
63
103
134
126
108
116
172
253
279
233
186
166
137
99
104
148
154
142
189
200
142
213
373
467
727
1063
821
135
-125
74
151
73
73
106
86
12
-107
-184
-152
-80
-42
-18
10
37
79
115
100
83
108
106
67
100
201
259
253
223
174
101
20
-47
-85
-108
-134
-169
-227
-316
-414
-481
-483
-412
-319
-292
-362
-475
-558
-604
-637
-634
-572
-484
-431
-433
-445
-426
-396
-393
-390
-349
-311
-294
-244
-210
-264
-250
-90
24
140
379
330
-192
-547
-411
-239
-241
-219
-157
-111
-38
24
49
101
162
171
175
215
252
271
295
325
362
418
481
533
575
602
601
583
545
451
342
286
235
149
106
104
13
-143
-210
-179
-144
-111
-64
-30
-15
-11
-16
-14
5
25
36
53
97
149
164
137
107
93
83
69
58
63
67
54
62
72
24
13
120
229
333
469
366
-40
-283
-174
-58
-69
-60
-40
-76
-113
-114
-106
-91
-69
-55
-52
-46
-30
-14
2
21
54
113
171
179
136
88
62
55
46
9
-64
-134
-177
-208
-231
-237
-241
-248
-235
-198
-165
-150
-146
-135
-115
-106
-114
-126
-130
-106
-69
-59
-56
-27
-3
-9
-33
-73
-113
-125
-120
-109
-95
-91
-67
-30
-54
-54
91
240
366
597
582
38
-416
-310
-99
-105
-117
-78
-68
-44
-17
-22
-2
42
49
42
63
85
86
98
145
194
219
252
321
388
425
440
412
326
218
57
-198
-427
-487
-435
-386
-346
-306
-284
-260
-219
-185
-167
-146
-126
-112
-93
-80
-84
-72
-41
-59
-106
-68
44
107
82
25
-12
-22
-20
-4
10
-13
-25
25
21
-37
72
298
428
614
788
443
-191
-335
-90
-36
-114
-80
-42
-71
-87
-83
-78
-69
-65
-62
-46
-31
-24
-2
45
90
120
178
273
344
383
424
434
386
315
215
98
38
16
-43
-113
-143
-151
-149
-146
-163
-178
-168
-145
-112
-82
-91
-122
-122
-83
-56
-80
-105
-59
16
36
7
-36
-67
-63
-49
-53
-58
-73
-77
-38
-58
-129
-38
125
177
399
726
478
-196
-416
-222
-197
-263
-204
-176
-206
-183
-169
-201
-194
-165
-180
-194
-168
-145
-127
-86
-36
19
110
216
294
356
412
426
391
336
264
177
103
38
-47
-130
-165
-157
-145
-141
-127
-93
-58
-48
-57
-53
-33
-40
-78
-89
-60
-49
-85
-108
-44
81
160
146
91
46
23
19
10
-25
-77
-86
-44
-65
-131
-70
66
202
531
851
568
-84
-316
-162
-116
-161
-137
-127
-153
-150
-138
-134
-126
-122
-119
-98
-70
-55
-44
-14
31
78
133
193
243
274
299
310
288
236
183
132
62
-24
-73
-64
-54
-89
-124
-117
-98
-98
-104
-109
-119
-117
-103
-107
-127
-129
-122
-116
-90
-69
-78
-62
-6
8
-28
-49
-60
-90
-100
-75
-53
-55
-55
-22
-3
-20
25
153
293
481
579
276
-201
-291
-82
-6
-42
-27
-19
-36
-26
-20
-30
-20
-4
-5
-1
17
36
59
92
124
157
215
284
307
292
302
330
340
326
249
107
20
14
-52
-216
-383
-510
-574
-556
-498
-439
-377
-331
-293
-236
-204
-226
-228
-183
-144
-123
-106
-90
-48
18
51
43
28
19
20
23
20
31
55
71
99
108
74
111
232
325
483
674
499
0
-234
-106
-28
-79
-86
-58
-57
-59
-57
-58
-52
-41
-32
-8
32
65
89
120
157
190
243
315
368
399
431
413
303
168
70
-2
-54
-81
-96
-107
-115
-118
-101
-81
-85
-79
-42
-21
-25
-23
-21
-25
-13
2
-4
-30
-59
-65
-59
-87
-146
-198
-244
-277
-281
-265
-241
-218
-202
-170
-140
-148
-112
23
196
408
528
260
-201
-310
-105
-1
-17
-2
3
-23
-27
-25
-35
-38
-25
0
35
67
92
126
168
205
250
322
410
489
549
604
639
617
552
477
336
111
-82
-191
-318
-486
-615
-695
-757
-784
-758
-693
-621
-557
-496
-441
-401
-366
-336
-329
-314
-248
-154
-80
-44
-48
-65
-54
-25
-16
-12
4
13
35
68
50
58
216
387
503
697
709
227
-261
-226
12
55
24
36
26
10
41
75
65
55
72
79
71
93
133
160
180
204
241
312
410
499
541
535
498
438
354
257
163
76
-3
-61
-83
-85
-106
-138
-145
-135
-125
-111
-105
-104
-91
-82
-91
-86
-75
-107
-128
-56
41
59
18
-27
-59
-69
-62
-55
-54
-69
-73
-32
-36
-85
17
213
322
547
826
543
-170
-439
-234
-161
-228
-200
-174
-210
-216
-202
-196
-177
-162
-158
-138
-109
-94
-80
-49
-8
39
98
165
223
272
302
294
256
205
129
33
-48
-99
-133
-161
-181
-189
-201
-217
-200
-165
-174
-194
-170
-153
-186
-212
-208
-202
-207
-226
-220
-142
-60
-70
-118
-134
-146
-163
-159
-144
-138
-151
-145
-103
-117
-152
-55
73
172
472
713
326
-308
-433
-244
-226
-273
-230
-205
-208
-184
-165
-161
-142
-112
-92
-81
-62
-35
-14
12
63
132
195
249
293
333
364
359
313
257
197
115
47
21
-17
-68
-69
-39
-49
-78
-70
-41
-30
-35
-32
-23
-19
-13
-2
-1
-14
-24
-10
32
70
77
93
159
229
241
218
213
222
218
206
211
224
213
213
244
223
182
267
396
496
717
853
507
15
-50
130
169
150
192
216
212
217
221
230
243
238
232
235
181
57
-29
-12
44
95
167
263
341
386
410
423
419
382
311
240
192
145
88
27
-41
-113
-162
-186
-215
-251
-265
-263
-307
-393
-429
-393
-384
-447
-512
-543
-565
-567
-534
-490
-452
-426
-435
-472
-492
-474
-441
-424
-419
-399
-368
-349
-322
-291
-281
-260
-227
-235
-203
-64
52
161
341
275
-175
-474
-353
-218
-281
-354
-384
-420
-432
-432
-456
-469
-457
-462
-476
-460
-445
-464
-477
-453
-392
-295
-188
-101
-7
93
148
160
168
156
99
29
-27
-68
-73
-43
-22
-5
56
148
225
294
427
701
1029
1246
1498
1997
2297
1782
788
160
41
31
-3
18
73
117
161
204
249
298
311
279
247
241
242
242
