# session 20
-19
-5
17
15
-31
-100
-171
-241
-300
-337
-369
-433
-516
-558
-554
-551
-538
-470
-386
-355
-366
-340
-261
-210
-234
-271
-265
-259
-272
-258
-224
-202
-177
-180
-205
-132
11
109
251
363
109
-341
-453
-281
-207
-225
-202
-174
-163
-151
-143
-126
-106
-100
-83
-50
-33
-23
7
53
100
136
167
222
302
341
318
296
288
239
172
131
87
38
29
39
32
27
29
27
32
32
23
46
100
137
148
135
96
76
97
112
125
198
325
436
506
614
853
1200
1564
1741
1351
449
-241
-362
-339
-403
-391
-356
-419
-454
-406
-384
-423
-484
-520
-503
-506
-592
-665
-657
-631
-607
-546
-463
-376
-273
-164
-68
4
37
34
14
-18
-41
-51
-74
-88
-65
-48
-56
-48
-28
-22
-23
-13
32
108
132
72
26
33
26
25
60
43
-2
36
52
-8
73
266
355
478
616
346
-164
-270
-48
17
-55
-50
-2
23
34
35
43
70
88
89
103
132
145
161
211
250
267
323
397
442
473
481
433
362
299
246
202
159
127
115
109
108
112
86
62
110
173
164
134
156
196
187
105
-3
-90
-247
-520
-702
-646
-482
-367
-326
-284
-144
24
154
338
410
86
-329
-393
-290
-312
-357
-342
-343
-353
-340
-334
-328
-303
-274
-249
-223
-205
-189
-157
-113
-71
-34
5
42
70
81
73
46
3
-46
-88
-118
-134
-147
-160
-167
-163
-162
-174
-192
-185
-148
-130
-149
-139
-68
-27
-67
-111
-111
-118
-147
-150
-140
-138
-106
-95
-144
-89
94
206
331
529
376
-156
-398
-204
-75
-127
-135
-103
-97
-91
-89
-95
-78
-59
-61
-58
-33
-9
14
58
145
273
380
417
451
544
640
694
717
676
549
413
321
250
197
171
159
160
158
155
213
321
400
546
855
1148
1340
1620
1873
1645
917
179
-235
-377
-408
-430
-466
-488
-484
-475
-479
-499
-531
-566
-613
-683
-754
-801
-817
-785
-706
-614
-511
-371
-208
-67
20
37
12
6
11
-29
-82
-78
-52
-61
-74
-64
-64
-74
-68
-63
-69
-65
-60
-76
-82
-66
-63
-69
-63
-71
-90
-83
-79
-117
-137
-72
24
47
3
-32
-50
-77
-79
-60
-74
-80
-54
-82
-85
61
211
367
668
699
142
-359
-308
-142
-172
-191
-154
-163
-172
-155
-149
-143
-130
-121
-105
-84
-64
-36
-3
33
81
134
180
222
253
256
232
206
179
125
46
-13
-37
-65
-102
-116
-106
-104
-115
-110
-74
-40
-39
-40
5
76
112
88
45
22
4
-17
-11
-8
-28
-16
-12
-55
13
172
241
383
622
439
-141
-381
-200
-123
-185
-163
-134
-171
-179
-148
-132
-124
-104
-87
-81
-68
-35
8
58
122
198
263
302
320
330
323
280
206
120
41
-20
-64
-101
-118
-102
-93
-118
-131
-104
-72
-67
-74
-52
21
103
162
220
285
366
512
680
776
924
1290
1641
1522
878
152
-259
-375
-404
-428
-426
-419
-435
-443
-433
-450
-506
-558
-590
-617
-645
-683
-726
-736
-708
-658
-569
-446
-330
-216
-97
-29
-21
-4
18
-7
-42
-37
-2
69
186
307
435
631
819
830
722
648
499
232
110
116
-68
-325
-308
-131
-80
-130
-184
-240
-274
-264
-260
-285
-306
-302
-284
-253
-198
-116
-22
64
128
171
189
169
128
110
107
80
54
62
60
24
10
29
24
-3
-2
18
17
5
9
15
2
-13
-17
-29
-42
-41
-47
-69
-79
-70
-70
-83
-91
-94
-105
-117
-123
-129
-137
-131
-113
-111
-132
-126
-70
-23
-30
-54
-61
-67
-67
-48
-35
-23
4
0
-10
70
199
322
464
432
49
-302
-243
-50
-38
-76
-46
-37
-56
-47
-33
-38
-29
4
24
24
36
65
90
119
167
211
244
286
334
361
360
349
334
300
243
185
140
102
63
37
29
20
0
-3
21
34
20
11
34
72
82
42
-16
-40
-13
35
82
142
227
308
377
494
665
837
1100
1432
1313
488
-339
-556
-487
-508
-513
-473
-497
-534
-524
-507
-497
-502
-540
-589
-616
-618
-626
-660
-686
-669
-625
-550
-430
-301
-199
-113
-35
10
11
-13
-41
-52
-38
-30
-47
-56
-44
-35
-22
4
11
1
28
96
145
143
102
48
22
30
35
14
5
40
41
-4
76
259
373
533
688
390
-193
-352
-134
-53
-103
-93
-89
-111
-105
-96
-91
-66
-51
-55
-41
-9
15
37
70
120
193
275
334
358
361
353
325
268
197
126
64
19
-17
-52
-82
-98
-100
-87
-77
-78
-66
-45
-26
14
69
79
37
1
-13
-33
-40
-28
-28
-17
16
-11
-22
110
241
349
621
726
262
-261
-277
-112
-121
-143
-99
-86
-86
-72
-64
-55
-42
-38
-35
-25
-7
18
43
66
99
150
202
221
220
228
227
174
89
22
-23
-62
-89
-105
-122
-124
-112
-120
-140
-122
-77
-61
-77
-76
-38
-12
-26
-43
-46
-66
-86
-74
-73
-93
-76
-68
-106
-68
42
105
228
393
224
-212
-373
-225
-151
-176
-160
-151
-161
-140
-124
-123
-105
-78
-65
-52
-27
2
22
34
67
123
166
198
238
256
235
206
174
115
43
-16
-60
-91
-105
-109
-116
-129
-139
-134
-108
-89
-99
-107
-75
-39
-50
-93
-125
-142
-162
-169
-158
-156
-146
-128
-158
-159
-39
87
177
278
157
-250
-478
-335
-197
-216
-211
-167
-159
-150
-118
-100
-96
-84
-71
-66
-55
-31
-10
7
36
79
129
182
227
249
250
234
200
141
61
-16
-55
-66
-80
-86
-64
-50
-68
-77
-50
-18
-3
14
62
144
209
214
213
268
348
442
610
798
874
971
1327
1690
1511
790
99
-212
-278
-295
-302
-297
-293
-289
-287
-304
-340
-364
-372
-398
-438
-458
-516
-692
-878
-876
-706
-542
-410
-236
-75
12
94
162
113
-6
-83
-144
-199
-162
-51
31
77
125
165
174
159
153
164
152
130
193
327
421
461
479
464
462
495
450
323
284
390
489
473
490
673
847
977
1272
1398
893
305
302
518
510
474
523
514
474
495
535
542
535
536
543
566
581
569
615
730
574
-504
-2562
-4145
-4054
-3655
-4316
-4591
-3464
-2451
-2263
-1989
-1535
-1325
-1149
-896
-738
-617
-462
-330
-199
-54
32
85
197
336
394
379
382
403
406
421
453
478
524
548
499
532
689
793
947
1212
1097
518
197
350
461
403
402
434
430
437
436
415
416
432
436
440
445
446
456
477
505
543
575
583
587
607
601
541
469
399
307
228
197
165
111
83
79
56
24
8
11
31
46
34
29
57
81
65
25
-10
-33
-47
-48
-54
-71
-60
-56
-99
-91
-3
61
192
397
282
-184
-433
-316
-226
-259
-251
-223
-225
-218
-213
-223
-214
-194
-187
-178
-160
-152
-142
-113
-76
-42
3
49
73
77
79
72
34
-35
-104
-152
-187
-207
-206
-198
-196
-199
-206
-196
-157
-116
-78
-4
90
214
417
586
629
725
887
753
279
-139
-335
-435
-481
-477
-481
-500
-514
-530
-547
-559
-580
-619
-664
-699
-715
-730
-743
-726
-669
-567
-405
-221
-79
26
121
175
171
161
159
139
119
126
133
123
121
130
130
126
131
130
115
109
113
111
112
116
96
63
67
98
105
91
87
113
171
216
211
193
192
170
137
144
153
148
180
185
136
215
400
543
820
1081
713
-26
-240
-27
-2
-72
-21
-5
-33
-3
-2
-49
-45
-16
-11
-2
9
13
45
92
123
163
224
276
306
326
320
274
215
169
115
33
-49
-100
-114
-113
-123
-135
-141
-151
-140
-96
-78
-94
-67
17
92
141
187
225
274
393
558
660
765
1058
1352
1184
543
-78
-368
-442
-478
-505
-506
-504
-527
-551
-557
-575
-610
-635
-661
-709
-758
-792
-817
-837
-836
-793
-701
-569
-422
-302
-210
-92
34
64
5
-49
-88
-93
-10
75
47
-21
-43
-59
-75
-62
-58
-82
-95
-89
-75
-67
-91
-105
-39
52
61
13
-4
-7
-32
-26
10
8
8
39
16
32
188
298
419
780
886
279
-327
-297
-104
-132
-159
-124
-136
-138
-109
-102
-99
-79
-58
-37
-15
2
20
42
78
132
189
246
303
337
346
347
323
264
208
162
103
56
43
30
11
15
28
15
0
16
52
74
72
86
156
224
208
145
119
120
119
136
154
171
212
216
171
225
356
459
696
960
725
125
-110
58
144
102
94
78
43
52
74
76
86
106
119
134
159
180
198
235
281
317
354
384
389
381
349
274
195
135
48
-61
-137
-178
-209
-218
-207
-206
-221
-231
-222
-192
-148
-117
-88
1
128
219
315
447
525
586
745
825
583
140
-218
-410
-499
-534
-545
-560
-579
-586
-594
-630
-671
-692
-723
-776
-810
-825
-857
-875
-840
-780
-703
-587
-459
-352
-256
-181
-151
-158
-189
-233
-269
-292
-315
-338
-358
-371
-374
-370
-372
-381
-389
-391
-390
-392
-394
-393
-400
-419
-428
-409
-382
-368
-353
-311
-263
-258
-297
-325
-325
-322
-319
-317
-326
-317
-300
-325
-306
-179
-69
80
365
364
-173
-618
-537
-353
-357
-356
-298
-285
-283
-250
-219
-197
-154
-99
-93
-148
-161
-79
26
101
186
305
420
492
551
623
652
650
692
659
439
261
296
371
398
483
594
654
706
767
827
913
1010
1070
1121
1215
1325
1403
1445
1470
1500
1539
1579
1616
1652
1697
1779
1836
1836
1936
2156
2313
2486
2684
2477
1935
1769
2020
2149
2137
2213
2273
2272
2327
2398
2419
2444
2478
2492
2508
2516
2521
2579
2670
2764
2892
2964
3009
3212
3144
2092
406
-1121
-2418
-3405
-3816
-3928
-3930
-3685
-3531
-3698
-3866
-4152
-4922
-5810
-6346
-6677
-7034
-7355
-7547
-7618
-7638
-7721
-7902
-8016
-7908
-7982
-8875
-9920
-9463
-7450
-5536
-4408
-3481
-2567
-1868
-1302
-776
-330
60
408
691
936
1158
1345
1513
1687
1870
2070
2303
2558
2799
3009
3187
3328
3424
3473
3483
3477
3476
3479
3471
3443
3409
3397
3396
3367
3321
3298
3294
3286
3281
3279
3301
3418
3598
3703
3771
3979
4238
4190
3661
2879
2235
1947
1914
1866
1706
1614
1560
1333
1240
1359
777
-480
-1002
-1034
-2258
-4233
-4992
-4270
-3250
-2554
-2055
-1590
-1185
-887
-652
-447
-306
-223
-155
-104
-82
-67
-38
-11
6
17
21
13
6
5
1
-5
-6
-16
-41
-58
-56
-66
-109
-148
-153
-148
-165
-202
-235
-247
-251
-270
-290
-304
-338
-364
-345
-337
-380
-389
-320
-270
-298
-340
-351
-362
-376
-370
-369
-373
-355
-360
-370
-287
-145
15
218
196
-264
-700
-665
-462
-446
-489
-454
-413
-415
-427
-413
-379
-362
-354
-320
-279
-262
-244
-206
-169
-136
-94
-46
-3
26
30
23
24
12
-31
-79
-121
-170
-208
-214
-214
-219
-213
-198
-182
-163
-130
-83
-47
-48
-54
-12
49
57
15
-10
-12
-32
-44
-17
11
24
45
43
35
103
221
360
520
453
55
-225
-111
51
40
18
50
70
72
58
59
106
133
103
103
160
195
194
212
249
273
297
343
394
418
408
379
334
265
188
125
72
21
-14
-24
-33
-61
-85
-58
14
60
59
51
45
34
48
82
84
50
23
11
-4
-3
17
19
18
46
42
28
108
227
334
517
553
155
-273
-248
-45
-28
-72
-60
-62
-84
-104
-127
-134
-125
-124
-124
-124
-120
-97
-55
-10
41
105
180
249
286
296
291
242
146
54
-16
-79
-127
-156
-181
-199
-200
-188
-186
-191
-167
-120
-91
-45
76
251
473
733
915
1006
1203
1473
1434
928
281
-152
-323
-355
-357
-382
-412
-408
-403
-441
-476
-477
-508
-593
-670
-720
-765
-801
-826
-831
-778
-666
-519
-339
-177
-90
-28
59
92
34
-23
-33
-30
-25
-33
-68
-69
-13
12
-8
-3
18
22
27
39
51
60
33
-15
-18
19
26
-5
-14
32
107
144
113
64
44
40
41
51
49
51
66
29
19
154
306
458
770
873
359
-229
-291
-143
-132
-129
-106
-133
-126
-86
-93
-113
-91
-64
-56
-39
-8
10
23
49
75
109
175
236
250
241
234
203
142
83
33
-25
-83
-117
-127
-125
-125
-130
-124
-97
-70
-52
-23
5
13
49
124
183
231
286
332
426
588
683
749
1043
1435
1388
780
115
-213
-306
-358
-382
-367
-366
-390
-407
-410
-426
-468
-517
-540
-546
-570
-605
-627
-635
-613
-546
-444
-324
-206
-102
-3
73
88
64
49
27
-9
-21
-15
-22
-25
-9
4
10
22
36
47
51
43
25
17
35
56
48
27
52
106
115
80
58
50
34
35
47
44
53
78
57
43
128
235
330
457
393
-3
-312
-221
-35
-19
-49
-37
-43
-63
-53
-53
-103
-134
-82
-17
-7
-7
13
29
54
98
144
194
241
256
250
249
236
187
118
53
3
-33
-63
-91
-105
-109
-109
-107
-102
-86
-59
-53
-69
-54
-3
11
-35
-80
-79
-85
-132
-151
-121
-115
-117
-105
-136
-129
3
138
251
367
215
-221
-435
-286
-165
-186
-178
-147
-153
-149
-134
-141
-145
-116
-87
-82
-80
-61
-35
-7
37
87
132
191
245
248
232
231
205
127
28
-49
-69
-48
-56
-82
-74
-64
-87
-84
-28
15
26
60
159
300
447
629
853
998
1032
1198
1537
1570
994
233
-184
-283
-314
-350
-371
-374
-377
-407
-457
-485
-487
-507
-568
-635
-681
-722
-751
-754
-751
-718
-603
-442
-288
-128
19
108
150
169
160
127
99
101
107
83
73
104
100
57
73
120
106
79
96
101
71
52
49
40
32
28
18
23
68
136
184
175
114
71
78
77
42
27
35
26
