# session 268
59
67
97
67
25
100
219
334
501
462
40
-290
-197
-62
-120
-140
-86
-104
-137
-108
-83
-85
-62
-37
-41
-25
31
64
76
132
221
272
297
337
370
369
344
296
238
184
113
26
-34
-67
-104
-137
-148
-146
-146
-155
-162
-160
-169
-191
-184
-154
-157
-177
-145
-86
-70
-82
-85
-94
-111
-115
-110
-99
-93
-98
-85
-75
-102
-89
-12
98
386
727
578
3
-286
-188
-142
-182
-162
-150
-162
-150
-151
-162
-139
-106
-92
-78
-65
-59
-50
-41
-30
-1
38
66
89
113
122
109
82
49
8
-39
-76
-92
-93
-91
-87
-80
-64
-47
-45
-52
-46
-33
-42
-62
-55
-35
-37
-36
8
56
62
42
14
-21
-40
-40
-51
-62
-51
-26
-17
-47
-77
-5
134
230
329
362
105
-234
-243
-67
-32
-49
-6
2
-15
16
43
48
69
84
77
84
94
93
111
150
185
226
277
315
346
377
382
348
297
235
153
67
-2
-49
-78
-98
-115
-123
-128
-135
-130
-117
-120
-129
-128
-121
-116
-122
-135
-105
-32
6
-14
-48
-83
-109
-103
-87
-94
-121
-132
-92
-73
-135
-138
-22
100
346
705
628
30
-341
-242
-160
-222
-220
-197
-212
-195
-159
-139
-110
-88
-94
-99
-87
-76
-64
-36
4
45
86
133
183
226
251
254
238
207
165
112
60
20
-7
-24
-33
-36
-36
-37
-53
-74
-73
-66
-88
-111
-100
-85
-100
-104
-56
2
13
0
-15
-53
-89
-82
-66
-69
-80
-76
-48
-45
-87
-67
18
109
329
552
338
-147
-282
-117
-75
-109
-61
-28
-34
-14
6
4
4
2
-1
14
32
35
42
68
104
140
173
205
237
260
258
237
207
163
105
45
-9
-47
-67
-85
-96
-82
-73
-93
-95
-63
-55
-83
-105
-108
-101
-94
-103
-105
-65
-11
10
-8
-54
-91
-88
-78
-82
-66
-51
-56
-26
10
-28
-47
19
128
404
751
633
59
-275
-206
-157
-212
-215
-203
-219
-217
-200
-194
-190
-177
-153
-125
-91
-49
-5
36
77
123
173
219
250
264
266
255
230
191
142
85
36
3
-22
-51
-74
-83
-89
-99
-105
-114
-137
-156
-153
-146
-147
-144
-149
-161
-121
-34
4
-22
-38
-40
-45
-34
-25
-25
-8
13
25
48
55
57
110
185
344
631
674
237
-160
-129
-8
-45
-71
-43
-46
-56
-56
-66
-72
-71
-75
-72
-62
-50
-31
-8
17
53
98
136
174
216
243
241
228
205
158
101
58
18
-21
-31
-39
-78
-92
-66
-74
-116
-129
-126
-138
-148
-153
-160
-158
-153
-145
-98
-24
8
-19
-62
-89
-106
-119
-113
-83
-77
-94
-63
-27
-65
-51
86
220
342
413
166
-266
-373
-192
-136
-177
-135
-100
-117
-108
-89
-80
-49
-24
-27
-5
40
55
57
89
137
177
218
273
326
357
353
316
278
238
147
34
-20
-36
-72
-105
-124
-158
-165
-115
-96
-145
-176
-150
-123
-114
-102
-97
-130
-163
-117
-19
31
17
-11
-29
-13
19
22
21
39
45
56
69
47
84
222
333
441
545
336
-133
-304
-132
-66
-129
-104
-70
-95
-79
-38
-47
-63
-44
-31
-28
-7
16
20
26
61
110
147
186
231
252
254
260
229
154
82
8
-45
-47
-96
-162
-97
-124
-405
-484
-184
-6
-90
-119
-79
-92
-102
-112
-147
-132
-55
11
25
-6
-53
-83
-102
-127
-139
-122
-118
-142
-140
-120
-143
-139
-53
34
222
569
618
148
-240
-187
-73
-107
-114
-78
-81
-88
-75
-63
-54
-53
-56
-47
-28
-7
13
38
70
101
131
177
227
247
240
228
216
189
129
60
16
-9
-19
-14
-28
-57
-51
-16
1
-3
-6
-8
-6
17
58
72
34
2
30
58
32
19
76
127
111
73
50
29
17
15
13
8
-11
-30
-19
-24
-64
-43
50
185
428
560
242
-220
-304
-166
-154
-183
-151
-149
-160
-133
-119
-129
-118
-102
-102
-93
-71
-55
-38
-3
24
30
48
91
131
157
171
160
123
87
59
20
-36
-81
-91
-88
-103
-119
-120
-117
-118
-127
-141
-145
-146
-166
-174
-133
-89
-91
-93
-49
-10
-19
-44
-58
-66
-62
-55
-53
-38
-23
-22
-5
7
-12
16
108
218
412
559
336
-77
-196
-79
-57
-102
-86
-68
-84
-92
-82
-68
-60
-64
-68
-53
-35
-29
-12
38
85
108
149
216
266
282
282
272
246
204
155
111
81
66
54
30
4
-2
3
-1
-12
-22
-29
-35
-41
-60
-83
-83
-58
-51
-64
-43
12
33
-11
-71
-96
-88
-81
-81
-63
-45
-52
-47
-24
-37
-19
87
210
421
683
549
-11
-331
-204
-89
-134
-155
-151
-166
-166
-165
-165
-148
-144
-154
-146
-134
-129
-100
-43
10
43
76
125
167
193
223
240
215
164
108
37
-23
-52
-85
-119
-116
-104
-115
-124
-127
-135
-115
-84
-97
-126
-120
-104
-108
-113
-86
-19
45
56
30
13
8
-3
-12
-3
8
-5
-8
21
3
-46
42
223
311
316
209
-126
-401
-305
-103
-89
-120
-86
-76
-87
-70
-59
-63
-43
-15
-12
-7
26
59
78
111
167
232
299
364
417
442
430
392
331
253
174
100
27
-28
-50
-57
-73
-93
-100
-94
-94
-103
-100
-85
-89
-104
-89
-73
-101
-113
-39
36
25
-14
-29
-44
-53
-46
-52
-63
-58
-50
-40
-52
-88
-43
99
243
461
633
281
-349
-337
-7
-470
-1118
-735
-27
-24
-199
-72
-13
-77
-57
-32
-41
-5
30
29
40
80
131
174
193
208
229
224
187
144
100
44
-14
-59
-86
-94
-92
-85
-72
-49
-34
-39
-40
-19
-15
-43
-55
-34
-31
-60
-61
-7
52
63
34
-4
-30
-34
-31
-27
-20
-21
-20
-5
-24
-53
10
115
195
351
434
163
-193
-208
-61
-56
-103
-83
-59
-57
-52
-55
-54
-6
60
58
19
45
95
90
89
141
191
218
250
280
282
271
257
224
165
93
25
-30
-71
-98
-110
-120
-131
-128
-117
-124
-130
-108
-89
-107
-134
-125
-98
-94
-99
-59
9
32
-1
-34
-37
-34
-63
-94
-66
-34
-69
-91
-73
-95
-101
-35
76
358
713
607
52
-262
-181
-137
-205
-197
-162
-180
-188
-169
-167
-178
-169
-149
-138
-124
-101
-84
-61
-15
37
79
120
159
194
218
220
201
173
130
75
30
4
-17
-35
-43
-41
-38
-45
-53
-44
-43
-66
-78
-73
-73
-63
-47
-61
-57
11
65
38
-20
-51
-55
-50
-51
-54
-47
-37
-17
4
-7
8
87
153
279
487
426
15
-209
-64
39
-25
-43
-13
-19
-24
-15
-16
-9
6
5
2
18
36
47
65
92
121
157
196
223
234
241
236
205
152
96
42
-14
-62
-88
-94
-92
-94
-99
-98
-88
-80
-86
-95
-96
-102
-113
-103
-91
-106
-99
-50
-20
-35
-98
-190
-214
-146
-103
-115
-113
-100
-85
-56
-71
-104
-61
25
215
594
734
273
-241
-269
-133
-153
-171
-135
-143
-153
-134
-132
-129
-103
-88
-92
-79
-43
-7
26
55
82
122
180
231
264
288
300
291
261
202
127
64
18
-25
-60
-72
-69
-69
-83
-106
-110
-86
-79
-122
-168
-156
-110
-103
-142
-144
-76
-21
-35
-63
-62
-58
-60
-52
-43
-45
-55
-43
2
9
-25
39
201
351
486
458
91
-267
-220
-31
-27
-73
-47
-28
-23
-18
-32
-37
-18
-14
-20
-18
-11
18
62
81
100
169
249
293
323
353
360
330
265
191
125
48
-27
-55
-74
-121
-137
-110
-116
-144
-134
-125
-130
-126
-158
-170
-101
-145
-257
-38
299
183
-123
-132
-71
-136
-134
-87
-112
-120
-88
-71
-48
-52
-56
50
196
283
346
227
-156
-391
-263
-125
-152
-159
-122
-120
-116
-96
-91
-79
-57
-54
-52
-28
-7
5
35
77
116
163
216
261
299
321
308
263
207
143
68
-1
-41
-64
-101
-131
-129
-128
-145
-137
-106
-92
-101
-127
-142
-105
-52
-59
-92
-66
-2
34
34
11
-22
-37
-31
-23
4
40
34
21
37
14
-19
60
169
302
628
839
451
-131
-251
-110
-114
-161
-142
-140
-139
-115
-115
-126
-120
-118
-118
-102
-84
-70
-38
3
28
51
90
130
155
178
202
196
154
107
74
39
-7
-44
-73
-94
-96
-92
-106
-117
-111
-114
-134
-142
-131
-133
-154
-158
-126
-79
-20
66
179
299
340
222
80
100
185
189
189
186
49
-130
-184
-178
-201
-215
-210
-217
-214
-194
-181
-170
-148
-130
-121
-103
-80
-66
-52
-23
14
46
75
105
116
107
109
112
82
43
33
23
-16
-45
-39
-31
-50
-65
-54
-41
-39
-24
27
95
142
232
446
654
755
914
1091
924
447
69
-112
-223
-265
-242
-218
-204
-209
-237
-225
-172
-165
-218
-265
-294
-322
-334
-329
-315
-275
-206
-126
-36
59
139
190
203
179
143
111
63
15
0
-6
-30
-38
-26
-32
-49
-49
-41
-29
-13
-13
-21
-13
-7
-13
-9
-3
2
8
-16
-40
-23
-34
-53
-13
-56
-127
8
-44
-559
-721
-185
141
-26
-66
46
9
-31
22
15
-35
-36
-28
-26
-6
1
-4
29
76
74
36
1
-28
-51
-55
-48
-55
-65
-44
-26
-44
-11
103
231
409
522
265
-190
-315
-149
-86
-124
-105
-88
-103
-94
-81
-85
-80
-63
-54
-47
-41
-32
-5
31
51
69
115
176
219
244
260
271
274
256
208
141
70
1
-52
-86
-107
-111
-102
-98
-89
-62
-32
30
140
242
392
694
1008
1204
1442
1623
1283
491
-124
-325
-360
-386
-402
-422
-436
-437
-448
-468
-484
-506
-544
-594
-633
-641
-639
-655
-649
-584
-487
-379
-247
-105
9
86
136
146
143
193
274
347
498
749
964
1178
1496
1622
1191
428
-143
-368
-429
-452
-454
-455
-467
-484
-513
-536
-523
-521
-578
-638
-649
-660
-687
-672
-601
-505
-384
-229
-79
21
62
71
74
85
109
114
78
35
12
1
3
13
18
20
23
30
43
37
33
65
65
34
126
278
336
445
559
311
-119
-194
-31
-12
-57
-29
-18
-41
-44
-36
-23
-14
-19
1
38
43
54
95
120
151
227
289
323
368
381
338
279
203
117
70
30
-36
-54
1
31
4
-10
13
22
2
-5
14
25
12
15
55
83
62
32
36
71
114
152
215
350
498
560
662
975
1244
1048
463
-50
-281
-355
-389
-398
-396
-400
-403
-404
-407
-409
-412
-434
-464
-488
-510
-518
-523
-558
-554
-455
-395
-389
-255
-130
-270
-362
-97
152
93
2
33
37
3
5
7
0
22
50
57
46
27
24
45
46
9
-17
-17
-15
-14
-4
17
45
64
63
54
35
14
17
34
44
51
54
52
71
72
43
87
209
314
408
404
130
-193
-207
-50
-15
-62
-69
-57
-48
-43
-49
-55
-51
-44
-39
-30
-16
6
26
40
66
123
189
228
248
278
309
310
280
228
165
102
40
-5
-18
-23
-40
-48
-43
-45
-42
-34
-46
-63
-48
-18
-16
-32
-21
14
22
-10
-47
-72
-89
-101
-114
-112
-102
-109
-108
-83
-96
-116
-44
71
235
500
535
102
-291
-239
-93
-122
-140
-93
-88
-93
-71
-66
-68
-50
-40
-52
-53
-35
-19
-14
-4
26
71
104
120
142
167
169
150
122
71
1
-54
-86
-99
-101
-111
-119
-102
-89
-105
-111
-101
-111
-130
-118
-106
-121
-116
-59
-6
-5
-35
-60
-63
-48
-45
-56
-51
-39
-28
5
12
-21
47
217
339
463
524
222
-230
-298
-108
-66
-92
-56
-71
-116
-96
-73
-86
-74
-50
-55
-54
-30
-23
-15
37
111
160
196
248
306
336
330
296
239
168
99
30
-36
-76
-86
-91
-92
-72
-43
-30
-31
-25
-24
-40
-47
-34
-42
-71
-58
-4
22
-3
-47
-82
-84
-73
-81
-94
-96
-89
-59
-51
-83
-29
94
184
413
713
543
-19
-254
-111
-68
-135
-114
-76
-89
-88
-65
-74
-75
-36
-62
-105
-19
-26
-152
59
179
-524
-1033
-339
408
309
152
281
259
148
123
66
9
16
-7
-45
-36
-30
-55
-62
-55
-62
-76
-92
-106
-104
-96
-99
-81
-22
30
33
3
-21
-25
-25
-29
-13
8
-7
-11
23
12
-5
83
189
322
589
654
220
-208
-190
-77
-137
-168
-119
-117
-142
-152
-165
-167
-153
-151
-153
-138
-104
-60
-27
-1
51
126
177
215
258
267
244
240
230
153
63
23
4
-14
-11
-2
-10
-14
-11
-13
-14
-23
-48
-67
-72
-71
-66
-77
-85
-37
-4
-70
-124
-85
-59
-86
-93
-80
-76
-81
-76
-55
-61
-76
-16
78
213
518
719
389
-127
-228
-74
-55
-107
-94
-71
-71
-83
-98
-87
-64
-65
-70
-66
-68
-58
-24
13
48
89
128
164
195
197
172
156
151
128
84
46
27
12
-7
-25
-34
-41
-54
-67
-75
-83
-96
-103
-91
-73
-63
-49
-5
40
41
3
-29
-39
-41
-44
-31
-14
-30
-40
-9
-11
-39
21
131
280
540
601
168
-295
-305
-156
-160
-182
-167
-186
-179
-132
-135
-172
-168
-128
-96
-91
-89
-52
13
59
81
118
185
247
276
291
308
294
227
138
54
-19
-71
-103
-126
-135
-121
-98
-89
-94
-94
-87
-97
-123
-129
-119
-138
-165
-139
-76
-32
-32
-75
-117
-111
-90
-89
-76
-64
-74
-54
-33
-52
0
146
284
442
499
185
-235
-278
-101
-68
-118
-104
-63
-72
-105
-63
-43
-127
-34
102
-305
-781
-436
160
182
78
237
325
303
368
422
401
396
393
339
260
193
142
97
57
37
39
41
32
31
49
