# session 136
-40
22
56
34
-6
-15
-20
-40
-28
6
-15
-59
-37
-5
-33
-4
135
271
395
447
195
-214
-306
-115
-38
-77
-36
24
-5
-54
-53
-35
-39
-49
-53
-52
-40
-13
25
69
121
192
285
370
427
462
466
422
347
263
178
99
35
-10
-25
-30
-46
-48
-16
22
67
133
237
445
734
971
1232
1660
1951
1634
819
54
-344
-472
-524
-565
-577
-578
-597
-616
-621
-630
-652
-686
-740
-801
-838
-851
-851
-817
-736
-625
-479
-299
-152
-68
0
55
47
3
-20
-31
-41
-35
-28
-31
-18
-2
-7
-6
7
4
-2
-2
-29
-52
-28
-12
-42
-57
-34
-32
-56
-55
-30
-35
-69
-70
-35
-28
-49
-21
67
140
145
108
87
96
96
78
82
100
104
107
90
68
146
280
373
539
673
392
-110
-249
-94
-52
-94
-78
-73
-85
-68
-62
-77
-71
-54
-49
-38
-19
8
56
109
143
179
244
306
336
342
339
322
293
259
214
161
116
80
45
29
31
25
11
10
7
0
9
14
9
18
36
43
56
59
18
-23
-30
-44
-73
-70
-61
-77
-79
-82
-116
-102
-20
94
299
445
193
-264
-403
-268
-228
-277
-261
-235
-248
-246
-224
-211
-207
-202
-193
-186
-186
-179
-156
-130
-95
-43
12
58
102
136
142
117
71
25
-14
-59
-97
-94
-73
-70
-69
-56
-43
-44
-55
-58
-34
-11
-28
-39
3
32
-7
-53
-61
-72
-104
-112
-89
-88
-108
-97
-81
-100
-76
29
154
300
352
100
-255
-302
-129
-58
-73
-54
-39
-45
-47
-46
-45
-39
-38
-35
-25
-8
15
34
56
106
180
246
297
348
392
401
378
344
288
208
141
104
73
49
42
33
21
30
46
56
115
221
332
515
779
997
1213
1505
1569
1136
471
-39
-318
-429
-455
-477
-496
-497
-507
-523
-524
-539
-575
-605
-634
-679
-719
-740
-747
-711
-609
-476
-341
-195
-58
36
85
102
92
72
41
10
14
30
2
-38
-24
7
-2
-17
-11
-9
-14
-4
-4
-35
-62
-57
-48
-52
-56
-61
-69
-69
-69
-83
-83
-59
-65
-101
-88
-16
38
33
0
-18
-13
-14
-16
2
4
-6
23
21
-15
79
247
381
634
803
407
-199
-309
-124
-108
-143
-105
-116
-144
-114
-97
-107
-90
-64
-50
-31
-12
4
40
100
159
213
271
334
384
406
402
387
356
297
221
142
83
46
8
-27
-29
-26
-51
-66
-52
-31
-5
17
11
2
27
58
57
25
-25
-67
-85
-99
-119
-121
-119
-112
-86
-89
-95
9
158
278
472
546
176
-277
-299
-129
-122
-152
-116
-113
-134
-130
-126
-129
-121
-108
-100
-96
-86
-55
-21
8
55
126
192
239
277
296
280
246
193
108
23
-39
-93
-124
-120
-117
-125
-117
-115
-150
-178
-158
-124
-124
-153
-154
-117
-93
-110
-145
-174
-188
-185
-163
-146
-168
-187
-153
-137
-159
-91
29
113
285
415
151
-263
-316
-158
-142
-182
-160
-156
-173
-167
-163
-166
-157
-148
-142
-132
-123
-107
-63
2
64
116
172
237
299
336
336
313
281
239
191
146
109
83
74
77
81
85
83
72
63
66
74
68
43
33
61
81
62
34
8
-19
-37
-41
-24
1
-1
-5
9
-10
-9
83
176
297
532
544
99
-299
-270
-149
-177
-189
-148
-145
-158
-150
-140
-130
-120
-112
-91
-64
-45
-25
10
56
103
148
197
240
271
289
293
278
239
170
87
37
22
-4
-33
-32
-27
-44
-46
-36
-45
-14
94
183
294
582
906
1077
1307
1613
1479
765
36
-341
-496
-563
-571
-581
-610
-621
-627
-652
-674
-681
-698
-739
-781
-804
-824
-843
-822
-750
-640
-497
-341
-195
-61
52
121
143
121
79
57
47
26
16
24
16
9
25
42
44
40
30
29
47
55
39
37
59
63
46
44
53
46
27
21
27
13
-24
-34
21
107
150
117
56
41
65
76
80
79
53
56
86
60
70
213
362
525
747
638
85
-262
-128
4
-48
-55
-17
-28
-39
-45
-71
-70
-52
-60
-66
-48
-34
-15
30
84
146
218
278
334
396
414
380
354
330
271
211
175
125
64
30
16
6
2
-5
-25
-41
-36
-31
-42
-45
-32
-18
6
29
-4
-70
-88
-85
-120
-143
-131
-141
-157
-155
-184
-183
-97
-9
164
489
525
34
-394
-365
-246
-276
-298
-282
-286
-277
-267
-279
-267
-232
-217
-202
-169
-152
-136
-79
-5
42
91
158
197
197
195
190
153
87
11
-56
-99
-119
-136
-158
-168
-156
-140
-144
-159
-160
-143
-122
-112
-110
-90
-43
-2
1
-22
-42
-49
-53
-58
-47
-33
-41
-40
-20
-24
-12
66
153
272
428
342
-52
-300
-200
-85
-113
-129
-94
-78
-85
-91
-81
-53
-34
-29
-12
20
53
88
121
151
194
254
311
345
357
362
359
335
288
238
195
161
139
125
109
100
102
94
85
97
108
131
211
300
384
574
827
1004
1210
1423
1241
611
33
-222
-310
-355
-377
-399
-415
-419
-436
-461
-467
-471
-499
-531
-552
-576
-606
-612
-580
-514
-415
-290
-173
-79
-4
44
54
34
-4
-44
-73
-98
-127
-138
-127
-129
-152
-158
-143
-142
-160
-168
-156
-150
-161
-164
-145
-134
-136
-122
-97
-91
-93
-85
-90
-117
-126
-105
-101
-132
-134
-73
0
29
8
-37
-63
-49
-33
-31
-38
-50
-34
-12
-26
28
190
320
481
691
526
-34
-305
-125
-4
-60
-68
-44
-59
-56
-33
-25
-25
-19
-8
-1
14
51
89
122
170
229
290
363
433
472
477
463
436
386
309
224
158
99
29
-15
-12
-19
-58
-66
-29
15
79
183
350
605
853
1048
1354
1659
1450
707
44
-247
-368
-422
-414
-420
-450
-468
-485
-495
-499
-532
-578
-608
-641
-677
-700
-716
-713
-659
-557
-423
-269
-111
31
125
147
124
96
71
50
37
31
32
39
45
37
20
18
19
-4
-24
-8
4
-20
-48
-59
-56
-45
-51
-83
-94
-70
-60
-80
-95
-104
-115
-109
-93
-107
-120
-62
26
50
15
-4
-4
-27
-54
-43
-39
-68
-50
-10
-53
-53
95
227
381
654
607
47
-357
-258
-128
-188
-207
-153
-133
-139
-139
-130
-119
-125
-122
-78
-42
-40
-13
56
121
183
257
304
327
378
430
412
354
319
274
184
104
71
37
-11
-28
-20
-27
-24
2
5
-18
-29
-24
-13
-8
-20
-17
18
25
-26
-80
-96
-93
-103
-110
-91
-85
-102
-81
-61
-77
-19
101
202
382
496
191
-262
-326
-161
-137
-158
-116
-110
-126
-114
-118
-128
-103
-74
-67
-56
-35
-20
-6
27
87
153
202
235
264
292
303
274
210
144
87
27
-30
-62
-67
-61
-67
-77
-62
-41
-34
-4
63
181
397
608
726
943
1226
1095
483
-59
-271
-360
-421
-424
-424
-438
-431
-421
-433
-444
-449
-463
-483
-507
-541
-567
-570
-552
-504
-415
-301
-175
-46
55
111
138
136
105
69
48
29
18
19
15
4
5
14
17
13
11
20
33
34
22
18
30
35
14
1
23
45
39
30
28
22
16
0
-18
-9
8
-13
-43
-20
43
84
74
29
-1
1
0
-13
-15
-11
17
58
36
22
147
298
456
742
791
255
-286
-281
-113
-142
-180
-142
-137
-146
-132
-119
-101
-76
-58
-43
-23
4
33
60
101
160
213
254
314
391
424
400
379
364
297
198
139
102
41
-17
-40
-61
-85
-79
-63
-84
-123
-132
-103
-70
-79
-99
-58
21
38
-10
-44
-55
-83
-118
-133
-134
-141
-136
-109
-126
-175
-100
74
165
245
326
91
-354
-469
-275
-194
-228
-211
-191
-194
-177
-163
-161
-148
-135
-129
-110
-84
-65
-40
5
63
128
205
281
335
374
391
356
272
176
95
30
-19
-54
-81
-97
-99
-94
-100
-114
-121
-119
-95
-54
-42
-68
-73
-30
20
31
-2
-43
-49
-40
-52
-64
-64
-83
-91
-59
-72
-101
-5
125
220
411
469
67
-367
-333
-145
-151
-175
-115
-87
-97
-96
-94
-87
-68
-53
-47
-41
-34
-21
0
33
86
151
210
262
308
335
336
317
269
189
107
54
20
-13
-32
-32
-33
-39
-33
-28
-44
-68
-72
-53
-40
-54
-57
-15
28
21
-5
-13
-14
-36
-76
-88
-55
-46
-69
-62
-66
-92
-36
71
189
416
528
187
-250
-284
-138
-149
-187
-145
-137
-168
-174
-181
-196
-185
-167
-172
-176
-148
-105
-74
-47
1
72
143
207
266
299
287
251
213
167
108
47
3
-15
-26
-41
-46
-45
-54
-47
-15
11
59
146
249
424
656
814
985
1253
1227
659
31
-217
-247
-280
-298
-300
-314
-325
-335
-350
-367
-390
-414
-433
-469
-524
-556
-561
-564
-542
-462
-351
-239
-113
15
102
143
157
133
74
25
10
7
5
12
24
36
44
46
47
49
44
36
35
30
14
1
-1
-6
-21
-27
-16
-9
-16
-19
-16
-27
-46
-42
-22
-24
-31
3
62
96
100
86
56
34
33
38
47
47
27
45
85
62
77
220
378
606
887
722
63
-319
-179
-58
-121
-134
-102
-115
-137
-146
-142
-119
-95
-83
-96
-119
-102
-49
-12
24
82
127
162
224
282
287
275
259
200
123
69
9
-61
-98
-115
-139
-151
-148
-149
-147
-135
-133
-145
-144
-130
-141
-154
-113
-48
-36
-67
-95
-122
-143
-140
-120
-105
-106
-114
-98
-89
-112
-41
133
242
341
456
252
-225
-398
-224
-133
-151
-124
-121
-143
-117
-98
-107
-89
-68
-70
-57
-24
0
26
61
108
188
286
350
380
407
419
389
321
231
134
50
-12
-57
-90
-108
-123
-148
-168
-165
-162
-177
-179
-153
-123
-112
-112
-96
-45
18
38
4
-36
-53
-55
-43
-13
-4
-31
-22
11
-27
-42
85
202
318
588
650
183
-267
-231
-75
-101
-131
-91
-78
-96
-104
-96
-89
-98
-102
-86
-62
-30
3
26
72
145
201
246
312
365
377
368
340
274
182
94
34
0
-39
-82
-90
-75
-71
-60
-28
9
60
129
238
449
689
833
954
1049
860
392
0
-192
-314
-386
-401
-429
-466
-478
-506
-552
-580
-600
-632
-666
-705
-744
-763
-766
-740
-661
-550
-416
-253
-100
6
80
128
128
87
40
11
2
3
8
16
24
23
25
41
54
45
31
29
27
28
33
24
11
27
60
77
78
70
64
76
97
105
103
93
71
53
63
91
98
80
88
130
145
104
51
27
19
10
7
12
8
14
47
46
26
100
217
325
530
635
301
-156
-208
-32
1
-39
-28
-30
-48
-44
-42
-46
-45
-39
-26
-15
-6
17
48
79
120
162
192
231
288
331
346
349
332
279
213
166
124
72
37
24
3
-15
-5
-1
10
75
164
279
519
812
1020
1226
1361
1070
385
-197
-457
-560
-618
-637
-643
-645
-644
-652
-658
-670
-702
-736
-759
-787
-817
-835
-837
-795
-693
-555
-391
-213
-71
23
93
113
89
108
195
309
418
512
674
988
1293
1350
1095
582
36
-247
-305
-364
-407
-387
-403
-450
-443
-421
-445
-484
-522
-576
-641
-696
-728
-723
-680
-598
-457
-274
-107
24
145
231
250
260
306
327
279
224
201
182
166
162
149
131
122
107
88
66
46
61
74
37
79
245
371
513
712
572
54
-216
-79
15
-25
-9
23
12
8
4
-6
7
22
23
42
75
93
114
165
225
271
321
388
429
418
380
327
257
192
141
80
25
3
6
13
5
-24
-46
-43
-32
-19
-15
-28
-9
59
105
128
178
221
273
401
528
629
908
1350
1523
1140
439
-161
-467
-554
-565
-572
-586
-602
-610
-616
-638
-667
-684
-699
-722
-737
-742
-746
-734
-691
-618
-517
-396
-275
-171
-84
-9
36
42
29
13
-8
-27
-28
-26
-37
-49
-42
-29
-29
-43
-49
-39
-39
-57
-57
-40
-48
-67
-63
-55
-56
-46
-24
12
53
58
28
17
28
26
17
20
27
22
12
26
37
14
41
138
217
334
453
275
-118
-250
-116
-55
-70
-36
-12
-18
-6
12
22
36
45
50
61
74
86
102
121
148
185
228
267
302
332
350
347
325
293
252
202
152
117
94
72
56
63
77
83
94
98
101
161
261
359
536
806
1030
1242
1494
1475
952
265
-162
-321
-385
-419
-428
-437
-461
-488
-512
-537
-557
-570
-589
-619
-654
-676
-673
-657
-625
-547
-421
-285
-164
-59
26
76
77
43
6
-24
-54
-78
-90
-93
-89
-86
-96
-103
-89
-74
-80
-92
-83
-67
-73
-81
-67
-59
-73
-71
-62
-91
-111
-77
-62
-107
-134
-107
-85
-97
-118
-97
-20
45
44
17
-5
-33
-33
12
40
14
-9
29
52
2
39
233
380
481
626
494
-3
-288
-142
-12
-61
-76
-49
-70
-88
-68
-52
-58
-61
-42
-18
-5
15
57
104
153
214
279
341
396
431
429
395
347
295
229
143
57
-5
-34
-52
-78
-92
-69
-46
-50
-51
-43
-42
-27
-8
-31
-55
-15
44
56
40
13
-25
-40
-32
-44
-61
-64
-73
-67
-62
-107
-100
22
149
340
591
462
-89
-398
-279
-194
-246
-239
-193
-180
-184
-204
-208
-174
-151
-153
-152
-148
-138
-108
-65
-18
35
90
158
231
260
245
231
205
134
53
-3
-35
-50
-56
-70
-80
-74
-67
-63
-61
-75
-96
-95
-73
-75
-100
-86
-16
35
19
-26
-47
-41
-37
-51
-53
-35
-14
20
33
-18
-16
112
227
319
438
335
-44
-245
-96
46
30
9
20
19
25
