# session 260
22
65
80
182
341
377
377
481
498
466
620
624
495
772
749
249
853
964
-2261
-4804
-2440
44
-1270
-2484
-1400
-315
113
462
417
193
230
307
304
282
199
138
151
154
173
231
257
282
347
360
340
426
555
649
856
1020
698
119
-17
204
197
44
113
147
-383
-1378
-1904
-1203
21
492
292
248
347
240
56
-10
18
62
92
147
244
326
361
347
306
269
190
119
195
229
98
142
202
-51
109
501
-368
-1505
-1213
-1349
-2803
-2986
-1861
-1409
-808
391
532
-76
0
293
142
44
223
310
302
489
629
309
-76
6
219
179
153
288
305
165
138
250
277
215
219
248
215
211
262
282
297
343
371
416
510
504
325
136
52
19
-20
-79
-134
-120
-61
-49
-43
25
101
147
161
136
156
252
314
350
354
239
271
473
372
422
958
578
-579
-397
257
-401
-520
830
1302
498
53
13
-128
-184
-205
-270
-248
-265
-390
-440
-390
-346
-311
-270
-238
-238
-261
-234
-180
-162
-107
-8
88
262
351
295
500
550
67
437
982
-1529
-5046
-4416
-1624
-1002
-757
702
1053
210
-12
92
-37
8
98
30
50
111
128
330
665
826
828
836
843
842
877
999
1248
1452
1504
1331
568
60
993
851
-2503
-4611
-2412
-387
-830
-682
385
582
473
590
429
263
344
352
324
408
494
591
755
853
841
835
833
745
654
621
547
485
466
335
313
440
205
179
738
-269
-3224
-4951
-5114
-5309
-3761
-757
-341
-1662
-983
394
274
-74
49
-24
-3
289
430
705
1306
1473
962
567
633
727
656
618
689
725
680
684
708
690
771
770
628
884
998
425
883
1638
-1207
-5010
-3531
-209
-1351
-3276
-1301
1205
1286
865
1010
951
800
859
802
594
510
555
569
509
465
488
522
531
528
481
396
364
380
350
319
336
270
178
292
377
265
463
778
267
-752
-1405
-1655
-1251
-206
320
68
1
172
71
-196
-413
-520
-438
-263
-125
5
116
150
170
244
318
336
369
463
468
342
345
419
222
141
382
119
-138
612
199
-2310
-2845
-646
-601
-3078
-3562
-1534
160
607
468
262
252
313
256
175
141
150
217
236
189
273
432
507
734
1035
797
208
35
162
201
241
178
127
338
172
-168
420
339
-1858
-2784
-588
803
-195
-515
403
637
258
67
-141
-349
-329
-278
-286
-226
-156
-165
-170
-87
42
149
224
256
258
301
379
390
377
490
679
831
1000
1184
1339
1623
1967
1949
1484
757
-20
-281
-198
-1190
-3171
-3875
-2537
-870
-159
-179
-380
-511
-553
-577
-629
-696
-730
-719
-666
-517
-259
-11
153
290
412
441
383
356
395
411
387
364
330
351
444
423
364
461
380
176
419
454
-227
-327
-25
-922
-1747
-972
-258
-351
-34
330
57
-117
30
65
75
134
109
79
143
288
418
458
535
693
861
1203
1537
1191
431
205
353
323
384
455
266
395
528
3
276
1018
-935
-3477
-1920
380
-926
-2129
-1020
-705
-868
374
1184
732
642
869
683
515
464
330
324
330
265
364
240
-72
378
620
-1002
-2383
-1050
824
886
496
775
894
779
1080
1395
1286
1607
2448
1534
-2360
-6183
-6019
-2808
-1016
-1516
-1171
382
795
292
309
422
181
46
43
-11
-31
-48
-102
-93
-24
40
110
210
353
523
648
689
694
727
747
660
586
654
623
500
611
579
267
572
803
-840
-2937
-2782
-1160
-69
423
554
337
393
687
498
274
625
354
-1415
-3092
-2923
-1168
550
459
-1586
-3185
-2249
29
1289
1429
1423
1132
593
535
711
631
625
580
379
678
721
-936
-2863
-2642
-837
525
859
703
562
550
573
663
784
792
846
969
804
680
1010
778
-357
-639
321
775
450
364
452
374
320
338
338
208
76
367
417
-1026
-2945
-2991
-1145
637
1324
1407
1634
2064
2193
1752
994
314
-71
-163
-144
-170
-195
-181
-227
-279
-268
-346
-442
-451
-616
-710
-541
-829
-1091
-389
-788
-3042
-3311
-1123
-530
-1177
-314
650
322
112
320
222
135
246
252
238
295
296
285
326
331
299
300
284
223
246
291
186
182
366
238
25
284
-29
-1549
-2364
-1399
-271
29
103
159
95
157
297
270
317
618
679
264
-38
55
125
59
102
180
135
64
36
16
34
75
66
37
64
126
162
145
115
151
251
316
322
330
337
313
294
273
186
75
38
68
114
122
59
34
98
103
79
137
126
125
276
129
-142
158
-96
-1754
-2426
-867
340
35
-151
94
68
77
230
198
196
230
-33
-270
-113
68
40
49
110
94
90
131
132
127
140
124
125
189
230
213
220
271
308
353
439
483
448
434
450
383
253
209
232
197
156
140
59
113
327
83
-359
21
362
-161
260
966
-1515
-4669
-3364
-644
-1323
-2611
-1399
126
361
332
392
318
373
527
602
746
773
372
-26
32
233
250
224
318
393
267
192
349
274
124
454
369
-138
587
781
-1873
-3570
-1847
-816
-1318
-176
1291
942
522
764
581
303
374
345
234
283
375
423
406
348
364
395
347
395
536
525
506
539
267
113
522
123
-1851
-3250
-2398
-587
473
694
731
767
641
550
627
479
85
-66
21
35
20
51
50
51
80
81
74
28
-81
-85
-10
-96
-149
-50
-189
-195
329
-30
-1784
-2517
-1203
92
365
430
451
303
278
296
189
184
301
320
282
301
322
314
309
327
378
408
391
389
360
257
281
406
256
108
372
193
-842
-1379
-927
-433
53
621
499
-82
-150
82
53
-31
10
32
29
56
82
108
133
129
147
231
272
245
312
395
362
446
543
416
576
761
214
362
1118
-1268
-5346
-4794
-1212
-716
-1831
-1014
137
371
619
710
464
445
553
594
728
805
710
627
581
501
446
460
509
524
475
414
358
374
579
784
917
1218
989
-117
-85
933
-906
-4305
-3674
-964
-1620
-3482
-2877
-1391
-390
557
819
420
369
525
459
429
482
484
525
588
581
575
594
567
524
503
451
386
379
403
428
420
313
276
396
352
269
493
417
180
837
344
-3428
-6113
-3928
-1279
-1377
-949
767
1092
524
691
939
771
761
1063
1249
958
491
412
569
539
449
465
464
426
404
382
379
372
360
419
428
346
416
491
431
606
649
282
660
1164
-454
-2596
-2359
-1220
-1240
-1762
-1997
-1376
75
750
313
181
424
373
343
492
602
862
1244
1407
1505
1735
1716
1204
549
106
-88
-131
-131
-144
-170
-197
-207
-231
-303
-316
-269
-369
-484
-411
-529
-715
-325
-286
-1484
-1976
-562
572
333
215
504
326
-29
-60
-17
-5
121
246
236
193
225
268
243
183
171
238
292
243
192
225
245
249
262
146
85
286
218
-26
424
57
-3310
-6559
-5114
-1548
-917
-2224
-2459
-1757
-695
493
806
419
435
686
695
810
1140
1171
720
302
307
435
405
398
436
346
273
383
466
400
386
481
502
450
473
522
516
530
566
563
563
576
560
561
581
525
408
320
290
325
312
71
-288
-502
-556
-498
-290
-56
32
59
181
346
413
385
371
340
254
264
318
226
206
285
94
12
281
-260
-1733
-2351
-1697
-931
-336
133
199
141
210
168
97
152
129
43
86
160
188
252
293
289
363
461
435
367
431
553
506
428
587
589
273
441
654
-524
-1792
-960
473
418
34
315
276
52
433
480
143
1047
1728
-235
-1705
493
2659
1597
112
322
433
-279
-6
779
-1147
-4635
-4319
-567
844
-1176
-2971
-2751
-1189
248
298
-206
131
184
-968
-1324
-43
834
822
987
170
-2237
-2609
651
1923
-1943
-4742
-2805
-964
-881
430
1775
1343
1133
1523
1190
910
1169
1119
959
1069
1040
974
1035
649
-61
49
998
1207
565
1061
1850
-405
-3580
-2364
1279
1504
-1390
-3340
-2789
-737
848
952
603
619
588
474
503
434
287
303
328
234
181
215
263
268
196
162
298
465
480
427
453
513
504
446
395
344
289
275
284
251
213
212
174
127
166
139
17
71
64
-178
82
431
-789
-2477
-1775
349
663
-242
248
760
-1235
-3082
-1582
593
609
73
141
247
279
-807
-3237
-3884
-1458
698
762
594
915
666
74
33
286
326
280
295
284
247
233
249
315
371
359
402
458
411
482
546
302
415
799
156
-484
210
-169
-2104
-1788
579
1179
415
463
646
394
385
454
314
319
429
415
442
450
332
464
625
259
251
718
-706
-3522
-3414
-385
1106
472
271
522
330
271
458
443
492
614
337
-36
37
262
252
175
207
260
234
174
213
258
148
148
272
40
1
595
-533
-4479
-6751
-4458
-1821
-1588
-827
1054
1458
865
933
993
648
562
624
564
563
572
541
595
622
561
585
651
686
838
981
993
1186
1394
1333
1738
2193
606
-2284
-3354
-2482
-1432
-413
244
-26
-222
54
-188
-428
16
-538
-2318
-2470
-703
142
-314
-405
-159
-193
-179
6
102
207
427
493
427
594
640
277
447
836
-369
-1916
-1079
645
722
281
492
451
103
117
241
203
203
270
331
353
313
321
408
434
401
419
436
370
312
344
332
249
295
278
36
195
559
-445
-2533
-3142
-1617
-42
257
-39
-58
154
250
215
166
126
101
100
145
254
329
282
217
248
328
370
394
432
441
449
530
536
439
471
411
120
196
314
-390
-932
-773
-1377
-2086
-982
439
370
69
267
131
-174
-134
-31
-6
62
94
95
172
260
296
347
411
386
310
314
278
54
-47
171
252
113
219
300
100
298
444
-764
-1933
-763
978
-15
-2488
-2729
-839
548
905
744
444
1025
1136
-1432
-3389
-1246
1404
1329
583
652
1044
881
-823
-2211
-851
930
754
380
571
454
575
611
132
711
1002
-1739
-4017
-2347
-404
-417
81
950
706
398
562
603
571
453
530
1018
689
-466
-375
758
916
466
588
724
513
553
656
351
247
559
10
-1602
-2418
-1830
-1202
-781
144
920
812
554
639
668
692
868
845
727
813
658
59
-260
253
915
535
-7
910
771
-2537
-4105
-1310
192
-1498
-2025
-1098
-793
-239
765
1016
622
417
953
1004
-1440
-4165
-2975
780
2225
241
-1801
-1004
1121
1423
424
551
1246
450
-1540
-2847
-2297
-145
1275
25
-1521
-606
803
612
202
607
1136
963
-87
-618
400
1376
1163
856
980
948
707
595
628
471
200
442
619
-622
-2371
-2477
-1074
155
525
439
412
519
487
318
293
395
412
383
388
357
341
398
349
249
340
453
569
895
862
255
42
-71
-1371
-3019
-3386
-2545
-1110
210
513
160
92
175
142
192
228
167
223
360
410
443
502
513
506
527
523
474
397
316
243
130
29
74
125
44
83
153
-170
-454
-74
390
351
372
753
982
1063
1468
1982
1994
1360
467
-46
-83
-242
-394
-159
-373
-698
137
-434
-4137
-5498
-2057
-218
-1934
-2193
-884
-837
-766
109
217
-121
38
178
143
243
316
352
450
421
297
306
383
375
328
358
392
250
150
306
254
84
498
514
-844
-1543
-316
644
375
242
333
277
396
245
124
785
175
-2458
-2984
-265
1207
442
440
813
262
520
1088
-428
-1621
-224
65
-1831
-1802
-5
368
62
405
459
194
255
293
172
197
276
293
345
403
395
405
495
554
560
676
782
683
708
873
713
666
898
430
188
1107
29
-3506
-4167
-1808
-1335
-1691
-86
1027
471
367
713
518
307
298
206
223
330
347
431
531
474
539
705
519
411
787
814
628
913
200
-1480
-1286
-233
-1415
-2910
-2311
-1166
-388
336
395
103
281
455
349
380
464
446
487
546
569
659
765
795
793
762
712
665
507
325
340
302
168
331
283
-188
193
555
-1513
-3796
-2753
-399
505
505
-596
-2350
-1907
221
836
318
414
640
518
274
-48
8
544
877
862
854
885
589
-33
176
961
-411
-2888
-1866
792
-379
-3195
-3102
-1738
-853
521
712
-1381
-2203
-305
1006
575
394
764
758
660
837
943
851
734
644
572
529
494
430
389
385
315
279
403
378
243
447
264
-1109
-2092
-1109
383
588
115
36
194
214
205
280
336
356
418
498
725
1259
1547
971
156
12
177
78
74
212
35
-4
237
-636
-2645
-3549
-2538
-989
48
373
208
101
207
275
299
353
392
427
475
516
514
448
390
367
303
250
244
202
200
214
102
130
251
-13
-125
260
-109
-1172
-1233
-657
-690
-600
34
256
84
164
227
67
103
331
483
823
1344
1315
596
0
53
304
58
-154
453
169
-2356
-3811
-1620
686
-160
-2279
-3276
-2811
-1148
481
780
408
418
553
509
498
503
438
403
391
350
345
390
421
416
383
350
346
359
360
320
281
317
309
244
365
377
40
192
609
-389
-1860
-1278
311
545
110
199
269
36
43
451
777
539
43
-64
138
188
138
285
390
139
131
484
156
-21
964
-28
-3615
-3901
-491
12
-2025
-1616
-89
92
394
970
717
427
563
482
275
220
131
89
213
285
250
292
397
463
525
632
798
1006
1243
1570
1871
2098
2628
2823
1274
-986
-1856
-1775
-1461
-692
-575
-1242
-888
57
-81
-593
-485
-310
-370
-387
-351
-325
-303
-311
-266
-102
66
195
366
479
483
585
597
375
501
630
83
352
1096
-1462
-5449
-4457
-642
-690
-2957
-2897
-1377
-160
712
833
467
464
592
513
465
456
422
467
533
524
517
555
558
512
512
519
450
404
396
378
483
581
554
829
1083
477
-59
240
-419
-2252
-2399
-600
440
234
48
80
