# session 153
56
103
49
91
223
307
494
682
403
-131
-263
-86
-61
-130
-115
-96
-111
-98
-74
-76
-74
-51
-23
6
52
98
134
185
256
317
357
388
397
369
322
267
189
98
24
-28
-60
-62
-53
-65
-86
-83
-59
-52
-64
-46
13
39
-9
-58
-60
-68
-98
-94
-73
-86
-95
-81
-98
-95
-22
57
204
422
358
-59
-324
-247
-162
-177
-168
-164
-190
-179
-151
-152
-149
-125
-109
-97
-77
-55
-25
15
57
113
175
196
172
144
120
83
33
-25
-73
-92
-87
-75
-67
-67
-69
-62
-35
-1
6
-8
5
41
49
21
-12
-41
-61
-65
-66
-79
-101
-102
-94
-117
-116
-32
59
131
192
71
-233
-368
-246
-164
-194
-189
-154
-150
-156
-160
-162
-152
-146
-139
-109
-74
-55
-23
31
87
146
217
275
295
290
278
245
166
73
11
-24
-57
-77
-72
-65
-74
-74
-47
-33
-53
-49
13
76
84
48
0
-38
-52
-40
-19
-18
-23
-3
-12
-31
77
232
339
603
856
540
-84
-249
-61
-39
-105
-68
-44
-69
-69
-65
-67
-44
-21
-24
-16
16
44
75
132
191
230
260
289
311
310
262
171
77
20
-9
-48
-83
-78
-75
-120
-144
-108
-86
-101
-95
-40
73
214
314
411
577
743
923
1239
1507
1347
750
78
-368
-534
-561
-579
-590
-579
-580
-598
-610
-624
-654
-688
-716
-750
-798
-837
-846
-821
-767
-673
-534
-361
-193
-59
38
91
84
57
54
50
22
19
48
47
22
35
73
77
61
71
92
81
48
39
57
56
19
1
58
146
175
146
116
91
58
56
88
85
52
65
86
64
111
227
292
443
653
471
-43
-247
-95
-33
-85
-79
-62
-61
-43
-38
-41
-22
-9
-9
9
34
53
79
111
144
201
267
295
289
277
254
212
155
90
35
-4
-31
-37
-30
-37
-51
-49
-21
17
25
6
28
94
113
68
34
29
11
-12
-14
-16
-30
-24
-22
-47
-26
40
127
366
607
398
-116
-321
-202
-152
-198
-198
-183
-189
-192
-190
-178
-170
-179
-172
-139
-111
-83
-35
6
37
88
141
164
165
161
137
80
9
-42
-68
-84
-91
-86
-82
-86
-94
-94
-73
-36
-20
-34
-28
14
35
6
-38
-67
-87
-106
-120
-129
-143
-144
-129
-153
-173
-93
16
92
203
187
-127
-400
-324
-168
-164
-172
-134
-134
-144
-127
-115
-110
-97
-82
-65
-42
-23
0
46
103
156
207
252
283
292
275
233
179
116
53
13
-9
-29
-28
-9
-2
-8
-3
14
36
47
53
92
143
130
72
43
30
1
-10
6
-3
-23
-4
-8
-47
11
144
273
548
802
516
-93
-287
-115
-57
-85
-54
-49
-67
-53
-49
-53
-42
-46
-44
-10
18
34
67
106
156
223
265
274
289
291
239
161
82
-3
-67
-88
-99
-121
-137
-147
-178
-215
-204
-165
-171
-214
-214
-147
-80
-79
-120
-148
-166
-180
-166
-148
-159
-141
-102
-141
-156
0
154
206
307
287
-71
-364
-273
-135
-162
-171
-127
-128
-139
-124
-112
-100
-82
-67
-45
-21
-2
37
103
159
201
263
328
340
309
274
229
163
92
26
-32
-57
-51
-54
-75
-101
-119
-99
-49
-37
-78
-93
-44
9
6
-31
-49
-63
-92
-88
-60
-72
-72
-22
-40
-94
-1
131
211
475
721
407
-159
-290
-145
-139
-176
-144
-141
-153
-137
-131
-127
-108
-93
-81
-53
-17
15
52
100
154
200
231
255
276
273
238
186
127
63
19
7
3
-5
-7
-16
-41
-56
-45
-19
-5
-13
-4
40
71
61
46
31
-13
-50
-43
-49
-88
-86
-59
-69
-30
94
217
472
861
841
238
-270
-302
-228
-262
-268
-240
-251
-261
-248
-246
-259
-253
-220
-189
-186
-183
-156
-117
-74
-33
1
40
90
133
143
127
101
74
41
4
-14
-9
-5
-17
-41
-66
-75
-57
-33
-21
-20
-6
29
55
39
-3
-31
-40
-46
-37
-19
-24
-30
-17
-33
-43
30
121
198
302
238
-94
-316
-216
-96
-116
-119
-83
-91
-110
-105
-103
-108
-106
-96
-75
-47
-18
21
77
127
170
233
303
348
358
334
284
229
169
94
35
27
35
18
-10
-28
-42
-54
-56
-56
-63
-64
-42
-10
7
-3
-45
-87
-94
-77
-61
-54
-62
-53
-30
-49
-43
69
193
364
625
566
25
-354
-235
-79
-111
-127
-100
-104
-107
-111
-119
-104
-94
-99
-78
-49
-45
-18
59
124
162
229
300
304
278
269
223
114
17
-40
-92
-140
-160
-167
-177
-171
-151
-158
-180
-162
-130
-137
-145
-105
-51
-32
-59
-99
-116
-120
-118
-98
-94
-104
-73
-65
-99
-20
145
244
361
415
106
-308
-331
-142
-110
-136
-102
-96
-113
-105
-99
-86
-56
-43
-30
15
50
52
76
144
213
272
331
352
331
305
273
215
140
60
-2
-30
-58
-98
-110
-98
-100
-105
-93
-86
-95
-101
-86
-48
-4
15
-11
-62
-84
-75
-71
-70
-70
-70
-44
-46
-89
-38
82
165
387
665
466
-102
-330
-181
-116
-148
-123
-106
-115
-98
-89
-90
-68
-55
-49
-14
21
29
51
103
150
182
214
248
268
261
236
203
147
74
21
3
-3
-12
-26
-40
-44
-48
-67
-83
-77
-67
-67
-51
-9
8
-34
-87
-98
-95
-103
-101
-99
-121
-122
-102
-105
-62
55
209
515
868
739
110
-320
-302
-230
-257
-249
-220
-216
-209
-200
-192
-175
-154
-141
-136
-124
-99
-77
-59
-32
-3
19
51
91
111
106
93
73
40
18
10
-5
-27
-31
-18
-17
-36
-46
-24
1
-5
-14
12
46
54
49
34
3
-24
-33
-28
-15
-24
-47
-35
-44
-92
-69
11
99
309
458
180
-252
-313
-157
-141
-169
-129
-113
-121
-96
-71
-61
-43
-18
9
39
62
84
118
158
200
253
308
342
348
330
292
240
180
117
63
28
7
-14
-32
-32
-38
-63
-68
-42
-43
-73
-64
-8
31
30
9
-26
-58
-59
-44
-44
-57
-61
-41
-36
-70
-42
76
183
341
532
374
-128
-372
-226
-130
-169
-154
-127
-148
-155
-140
-136
-130
-109
-89
-88
-97
-72
-6
58
105
149
194
238
275
264
192
104
32
-30
-89
-144
-186
-183
-148
-137
-145
-141
-139
-132
-100
-96
-146
-163
-95
-19
-14
-62
-99
-108
-111
-106
-75
-61
-80
-65
-42
-77
-35
130
220
252
319
155
-250
-395
-212
-121
-166
-141
-96
-118
-144
-129
-98
-80
-79
-73
-47
-7
36
73
117
200
309
383
414
426
414
376
323
247
164
103
70
56
38
2
-18
-6
-8
-44
-62
-37
-18
-36
-35
27
84
76
39
16
-3
-25
-22
-2
-13
-30
-2
3
-31
12
107
235
546
790
475
-97
-261
-133
-122
-159
-121
-111
-165
-195
-165
-141
-162
-155
-99
-93
-124
-93
-33
-9
11
55
104
149
169
143
96
61
20
-40
-100
-133
-146
-150
-140
-120
-111
-123
-128
-103
-67
-53
-59
-40
16
53
38
-5
-36
-46
-53
-55
-43
-46
-58
-50
-68
-98
-40
58
182
436
534
143
-306
-320
-181
-209
-252
-220
-211
-221
-207
-190
-190
-196
-172
-128
-108
-92
-52
-8
46
126
187
215
245
265
244
200
144
82
33
-8
-47
-52
-24
-6
-9
-14
-8
13
27
23
23
29
44
86
117
81
23
13
24
15
13
24
12
10
35
22
0
57
142
251
417
389
34
-236
-164
-56
-88
-103
-68
-59
-60
-54
-55
-48
-35
-31
-14
18
44
80
133
168
194
244
296
313
309
295
252
181
121
83
47
1
-36
-37
-20
-39
-87
-109
-96
-75
-67
-79
-72
-23
9
-16
-61
-92
-117
-139
-147
-141
-142
-144
-129
-139
-170
-127
-39
62
311
514
240
-267
-399
-246
-206
-244
-225
-200
-198
-198
-196
-179
-160
-160
-147
-113
-90
-68
-25
24
74
135
192
227
247
262
245
182
105
40
-19
-57
-67
-73
-87
-90
-96
-118
-121
-93
-92
-125
-115
-64
-34
-10
10
-29
-78
-64
-42
-45
-41
-33
-5
18
-31
-32
119
266
385
516
360
-86
-283
-140
-60
-90
-82
-85
-90
-41
-9
-11
5
13
6
25
52
65
96
150
200
247
295
330
340
316
263
204
133
45
-16
-41
-67
-86
-81
-79
-91
-100
-100
-79
-46
-44
-59
-24
46
65
21
-17
-22
-30
-52
-52
-40
-50
-45
-38
-81
-72
48
161
339
611
535
12
-307
-187
-102
-194
-198
-123
-123
-156
-153
-158
-188
-176
-112
-82
-93
-62
-1
35
68
121
172
202
197
170
157
133
60
-13
-51
-87
-119
-112
-86
-81
-84
-87
-97
-90
-59
-56
-72
-35
34
48
15
-9
-21
-38
-52
-49
-45
-53
-49
-48
-82
-81
-8
79
254
476
356
-115
-372
-261
-166
-194
-196
-178
-184
-187
-182
-176
-161
-150
-137
-110
-82
-57
-22
29
88
144
200
257
280
257
234
211
139
63
32
-4
-56
-68
-48
-39
-42
-59
-88
-89
-48
-4
0
-8
26
86
101
64
31
20
6
4
26
31
14
34
52
18
32
116
185
340
547
419
-22
-238
-135
-71
-101
-89
-70
-80
-71
-56
-60
-54
-33
-26
-25
-1
38
64
93
147
198
226
254
274
262
237
213
168
107
65
42
23
11
7
-3
-17
-33
-58
-70
-50
-40
-66
-74
-33
2
-14
-61
-99
-117
-125
-129
-129
-137
-139
-122
-135
-161
-125
-56
80
360
459
78
-355
-377
-231
-221
-245
-220
-205
-210
-205
-185
-162
-149
-140
-119
-91
-63
-33
7
55
95
133
191
237
240
227
199
132
54
-2
-52
-88
-89
-94
-124
-136
-125
-130
-131
-108
-108
-140
-128
-55
6
6
-38
-82
-95
-98
-100
-88
-96
-119
-78
-41
-88
-60
99
218
316
405
200
-228
-359
-171
-73
-102
-92
-77
-82
-60
-34
-28
-20
-6
18
56
91
121
153
199
273
357
415
439
432
386
316
250
179
83
-13
-66
-79
-85
-91
-86
-81
-83
-66
-28
-10
-20
-2
82
197
299
372
451
587
742
885
1132
1498
1627
1222
506
-65
-317
-378
-399
-419
-426
-439
-463
-479
-496
-521
-546
-592
-649
-676
-703
-754
-774
-743
-682
-569
-429
-319
-191
-34
34
9
7
13
-20
-40
-27
-28
-37
-30
-16
-2
0
-12
-12
11
25
12
-10
-27
-28
-11
-15
-32
-2
55
67
49
42
19
-21
-28
3
17
-12
-19
10
-10
-26
87
201
276
501
617
222
-259
-258
-70
-85
-126
-70
-65
-106
-94
-69
-88
-105
-78
-39
-36
-43
-9
45
89
142
203
243
280
325
350
331
260
164
95
53
-2
-53
-66
-63
-55
-33
-26
-40
-29
9
23
12
23
63
90
67
10
-26
-32
-39
-42
-33
-31
-23
0
-15
-33
24
103
242
521
611
225
-191
-202
-82
-98
-119
-96
-98
-97
-89
-105
-102
-70
-60
-60
-46
-33
-10
40
88
127
168
193
199
202
187
142
96
58
6
-39
-51
-71
-108
-105
-73
-89
-125
-110
-80
-83
-90
-73
-51
-37
-49
-79
-95
-98
-110
-113
-96
-99
-109
-82
-68
-90
-58
21
96
232
304
66
-260
-290
-159
-137
-160
-146
-149
-154
-138
-139
-149
-133
-110
-102
-88
-59
-28
7
55
105
148
196
243
260
250
228
179
101
37
0
-33
-57
-59
-55
-67
-89
-103
-97
-68
-46
-59
-70
-34
16
17
-25
-57
-68
-94
-110
-72
-52
-84
-66
-18
-44
-19
142
281
418
571
401
-65
-248
-76
5
-48
-42
-24
-42
-34
-21
-25
-14
2
-1
8
37
60
94
152
200
238
298
356
380
377
336
261
189
116
30
-28
-50
-70
-80
-72
-83
-106
-97
-76
-77
-89
-82
-36
29
46
5
-29
-43
-73
-89
-61
-56
-93
-80
-48
-88
-68
97
226
293
344
148
-249
-379
-223
-170
-234
-225
-189
-202
-220
-213
-196
-186
-179
-162
-140
-122
-99
-60
-6
63
136
190
228
257
252
194
119
55
-13
-80
-118
-136
-148
-149
-146
-147
-139
-119
-94
-75
-82
-98
-66
5
38
19
-18
-54
-71
-52
-33
-51
-80
-60
-21
-35
-36
71
223
419
647
559
60
-286
-211
-128
-202
-210
-149
-144
-170
-179
-172
-151
-133
-124
-105
-77
-60
-45
-10
38
81
126
185
230
230
201
172
141
99
43
5
6
3
-25
-38
-36
-32
8
59
80
133
236
365
588
858
1018
1187
1478
1542
1101
455
-15
-260
-345
-339
-346
-399
-434
-424
-418
-438
-464
-493
-527
-548
-555
-569
-578
-549
-468
-342
-208
-96
9
107
144
117
89
74
49
23
10
-7
-32
-51
-49
-32
-29
-43
-48
-43
-58
-79
-72
-68
-97
-105
-72
-65
-91
-91
-60
-35
-28
-17
25
76
91
68
45
35
25
25
35
26
11
28
28
-6
33
122
167
266
359
150
-216
-285
-128
-93
-145
-135
-114
-118
-110
-100
-102
-92
-67
-45
-31
-23
-5
36
93
148
195
233
262
286
301
296
261
204
149
95
28
-25
-42
-43
-50
-59
-75
-92
-74
-33
-22
-40
-25
28
52
19
-27
-47
-49
-55
-54
-44
-50
-49
-24
-41
-68
5
119
259
495
529
100
-321
-301
-144
-155
-195
-172
-148
-136
-140
-151
-130
-103
-106
-99
-60
-26
-6
14
52
116
183
233
278
298
271
226
177
109
38
-18
-59
-79
-82
-86
-94
-108
-122
-119
-102
-95
-95
-69
-14
36
34
-20
-64
-64
-68
-80
-65
-73
-102
-71
-63
-108
-16
164
253
382
460
133
-302
-308
-118
-101
-105
-48
-67
-94
-41
20
