# session 227
-7
9
30
30
39
72
79
64
50
26
2
-31
-63
-65
-89
-82
47
58
-4
296
171
-1894
-5076
-6341
-4311
-1027
765
799
555
601
556
435
434
440
387
366
382
351
303
339
421
592
1004
1285
886
214
15
133
119
64
94
92
62
79
94
68
45
49
67
86
84
66
83
125
119
71
72
130
165
146
106
72
48
20
-14
-43
-62
-60
-51
-74
-109
-102
-64
-20
48
126
248
513
805
941
1097
1369
1354
848
252
-103
-260
-310
-316
-341
-374
-391
-410
-426
-438
-474
-514
-536
-573
-632
-667
-655
-593
-484
-355
-217
-86
-12
36
88
37
-40
21
-32
-204
30
78
-1376
-3446
-3659
-1743
122
579
332
309
436
434
415
439
421
418
493
600
748
956
1116
1177
1250
1315
1251
1116
975
757
527
367
134
-172
-299
-236
-205
-247
-275
-287
-313
-353
-403
-456
-508
-552
-579
-599
-607
-582
-526
-431
-322
-244
-130
14
28
73
265
149
-26
390
54
-2033
-3123
-1341
540
517
161
343
346
218
235
158
68
149
224
202
174
146
111
95
94
97
96
107
166
231
228
201
216
217
196
228
264
230
238
310
310
333
502
670
869
1147
1027
410
46
169
241
163
189
225
175
168
199
171
141
167
192
203
206
201
264
261
68
245
757
20
-2195
-3479
-2570
-850
442
905
202
-737
-322
663
523
305
894
174
-1810
-1686
370
1100
603
809
1390
1547
1615
1873
2174
2179
1598
770
322
242
137
81
182
76
-55
178
1
-402
312
177
-2885
-4807
-2586
-650
-1993
-3630
-3649
-3113
-2135
-222
1113
-348
-3797
-5506
-3421
152
1597
991
1134
1676
224
-1421
-302
1547
1509
989
1210
1287
1111
1146
1130
1051
1129
1081
914
986
1010
866
1018
972
594
1259
1135
-3051
-6611
-3712
27
-692
-807
618
-696
-1141
1115
-518
-4279
-2221
2349
2827
1588
1584
1365
701
648
933
1063
1059
986
929
919
922
911
854
797
802
804
782
800
808
794
864
929
903
949
957
768
746
728
323
487
943
-810
-3569
-3143
-604
426
616
109
-3154
-6184
-4366
-210
1415
797
563
1133
752
-1498
-3074
-1542
833
1228
773
915
1012
898
1029
1154
1282
1632
1581
922
509
550
608
685
582
376
831
533
-2912
-6709
-5899
-2210
-594
-1083
-1440
-1177
-84
1253
1468
1095
1251
1432
1291
1283
1317
1171
1046
989
895
819
795
769
710
644
653
692
659
697
813
761
861
1307
1363
1427
2344
1586
-2758
-6170
-5005
-3712
-5701
-6271
-2523
331
-1229
-3345
-2767
-1138
-66
726
1059
728
553
724
483
275
811
584
-1037
-1335
520
1678
1347
1267
1516
1388
1246
1219
1114
1130
1185
1073
1053
1118
1030
1043
1073
784
929
1337
-638
-5072
-6822
-3062
1323
1158
-1161
-1144
-3
-268
-333
911
1556
1182
1095
1232
1116
1048
1076
1034
1006
999
972
941
899
930
1020
1089
1340
1646
1382
711
364
372
498
530
328
468
724
104
130
1278
-502
-4387
-3759
-373
-958
-3252
-3019
-2462
-2406
-783
1345
1574
-646
-4298
-6671
-5375
-1374
1690
1004
-2093
-3226
-1002
1313
1566
1148
1203
1254
1149
1152
1189
1217
1290
1292
1183
1150
1210
1167
1164
1370
1382
1270
1617
1746
1198
1172
998
-954
-2108
-400
233
-2279
-3608
-1617
447
679
447
588
664
581
527
440
315
266
250
196
160
216
332
405
433
533
677
721
699
702
711
719
625
435
534
676
-501
-3250
-4784
-2440
1029
541
-2254
-1918
31
-996
-3147
-2916
-1165
588
1447
232
-1378
-628
958
954
658
998
816
779
1364
389
-1504
-764
1563
1822
738
573
832
750
697
746
737
676
640
691
568
440
772
699
128
829
1059
-2418
-5640
-3589
9
364
-1267
-2878
-3485
-1890
539
1309
898
844
980
873
786
784
731
696
710
676
637
662
664
646
705
712
640
632
544
495
697
502
198
872
635
-1941
-3149
-1235
580
1418
1147
-2037
-4461
-1770
1248
149
-1705
-2307
-2656
-1612
451
924
347
490
700
462
442
601
626
677
741
720
729
779
800
823
830
781
699
576
436
342
258
182
153
110
86
111
48
111
309
10
-140
682
-258
-4624
-7008
-3277
1109
465
-1994
-1580
282
752
364
379
541
474
398
480
640
893
1291
1412
878
255
162
280
241
196
222
236
245
241
215
190
168
176
203
202
209
187
132
226
287
178
474
765
-272
-1516
-961
-275
-1698
-3116
-1964
100
666
327
333
446
364
374
463
459
469
556
632
671
704
757
822
885
992
1153
1299
1487
1788
1945
1581
837
359
291
134
52
330
132
-238
514
283
-2916
-4922
-2459
569
533
-1188
-2233
-1662
-312
157
-86
69
390
464
577
718
714
694
704
671
632
620
607
609
628
612
611
667
637
594
732
736
544
688
728
339
768
997
-1783
-5333
-5987
-5815
-5946
-3504
-235
217
24
823
-139
-2822
-3383
-631
1623
-167
-3841
-5616
-5293
-3092
407
1425
-1175
-2850
-1144
1291
2187
2051
1904
1882
1805
1789
1855
1778
1665
1727
1756
1660
1664
1615
1364
1331
1623
1771
1704
1623
1500
1423
1350
1047
923
1076
160
-2205
-3788
-2891
-670
901
1109
467
84
568
1338
1690
1728
1811
2124
2559
2570
1909
1112
636
378
237
242
279
240
181
150
139
114
-2
-145
-173
-236
-396
-332
-308
-668
-499
112
-794
-2783
-3540
-3481
-3208
-1400
551
159
-909
-728
-480
-517
-20
563
683
239
-559
-566
323
643
383
454
494
381
491
375
280
722
152
-2084
-3954
-4854
-5118
-3208
181
1462
671
647
1070
606
577
1062
-414
-2883
-2525
-67
871
445
661
1317
1500
1119
516
262
452
568
470
422
440
411
383
412
435
420
425
456
471
466
434
439
513
504
468
601
630
530
702
629
178
561
810
-1216
-3566
-3580
-2561
-1611
-279
377
-46
-133
199
193
151
278
323
357
391
298
224
258
271
273
324
318
274
335
385
313
343
509
633
885
1178
875
139
-116
104
137
22
81
161
86
14
52
57
-63
-182
-216
-185
-120
-124
-134
55
137
-21
265
594
-263
-1195
-525
429
215
-127
54
79
-83
-71
-14
-10
-19
-53
-52
-8
-12
-24
38
132
177
121
34
32
16
-111
-122
-74
-645
-1865
-2399
-1453
-177
216
118
234
434
369
58
-156
-25
192
185
117
171
233
242
248
249
263
316
371
406
398
387
480
526
440
609
811
408
217
535
-1291
-5554
-6761
-2764
123
-1591
-2737
-473
1334
932
594
995
999
465
271
819
1291
1070
868
1113
1264
1257
1447
1653
1751
2072
2471
2280
1482
775
449
282
218
244
211
167
160
97
99
101
-130
-159
-21
-469
-568
109
-1116
-3861
-3840
-1950
-1604
-799
688
-1521
-4992
-3119
1274
1093
-2039
-2304
29
1231
930
799
950
886
836
912
906
831
816
857
849
776
716
682
716
772
652
663
986
778
381
1050
393
-3827
-6324
-2762
838
-497
-1998
-305
1155
682
393
1210
1548
-316
-2958
-2847
-243
1225
906
745
948
836
727
817
812
749
757
743
712
727
722
716
742
690
671
809
790
702
903
776
365
888
893
-1932
-4946
-4561
-2306
-851
-67
588
502
-654
-1501
-602
841
1165
1099
1520
1969
2163
1980
1212
384
63
11
-49
-72
-96
-144
-127
-96
-177
-265
-243
-310
-465
-394
-382
-617
-402
-148
-612
-196
729
-1485
-4951
-4416
-2276
-2456
-1999
291
964
220
366
688
472
467
591
493
459
499
424
370
412
428
388
344
315
326
368
373
336
315
303
272
245
244
283
338
356
358
362
300
274
360
292
116
174
10
-739
-1004
-246
314
155
213
630
595
76
-245
-173
-39
-35
-72
-51
-8
-9
-16
27
54
45
93
157
143
150
229
288
373
533
638
691
752
731
731
785
611
544
846
387
-978
-1375
-546
215
646
-126
-2366
-2851
-614
335
-611
108
1790
1577
1357
2727
2094
-1311
-2331
36
1170
293
93
447
258
97
201
184
124
95
22
-28
-82
-176
-209
-196
-205
-173
-58
85
223
365
504
568
536
512
459
360
385
167
-628
-995
-530
-324
71
724
-1387
-5136
-4265
64
185
-4017
-6531
-5186
-1564
1254
523
-1938
-2655
-2223
-2175
-2126
-2303
-2380
-697
1690
2222
1612
1620
1784
1587
1525
1561
1419
1359
1389
1229
1199
1484
1452
1366
1921
1436
-1078
-2290
-391
1376
1258
1073
1581
2000
1919
1860
2502
2173
-864
-3509
-2187
1231
2800
1126
-1345
-1061
686
757
685
985
-1171
-3889
-3883
-3504
-3732
-1715
1225
1715
988
1065
1186
939
906
954
910
968
1047
1147
1437
1742
1922
2153
2326
2060
1366
632
156
-31
-111
-225
-310
-315
-328
-397
-464
-506
-560
-627
-689
-770
-850
-851
-804
-812
-826
-724
-540
-392
-301
-231
-196
-230
-290
-308
-291
-275
-270
-274
-289
-299
-274
-206
-147
-150
-177
-185
-199
-225
-230
-224
-221
-223
-252
-276
-245
-208
-204
-170
-111
-99
-107
-113
-165
-232
-256
-265
-278
-293
-317
-316
-306
-330
-301
-190
-83
115
363
236
-237
-442
-285
-178
-140
-11
84
66
50
66
64
52
61
90
125
169
204
207
204
243
310
364
397
407
411
422
411
363
312
265
202
132
86
65
56
53
50
66
120
173
178
178
229
280
272
243
235
215
176
181
224
225
211
242
243
199
223
295
404
656
779
413
-62
-115
39
54
30
54
43
25
53
75
81
109
131
110
92
124
179
227
267
294
320
358
374
363
346
298
241
210
145
102
147
93
35
193
91
-156
339
206
-2522
-5622
-6194
-5621
-5538
-5294
-5125
-4897
-2763
452
1737
1299
1190
1397
1298
1200
1237
1288
1379
1495
1619
1580
1193
816
813
908
857
816
822
801
793
788
745
725
760
783
763
755
797
852
880
912
974
1039
1063
1048
1052
1086
1055
965
907
817
718
722
586
344
544
516
-1325
-4435
-6056
-4545
-1301
857
1042
758
905
962
827
830
845
776
776
793
741
722
690
516
364
385
424
437
413
45
-613
-994
-1032
-1054
-996
-791
-640
-557
-474
-417
-355
-346
-363
-209
-136
-229
60
214
-285
79
786
-1218
-3978
-2793
516
1282
-320
-1615
-1313
-21
567
203
97
316
283
211
267
278
291
345
375
438
596
819
1056
1274
1543
1876
1992
1592
795
18
-444
-595
-604
-603
-629
-670
-704
-718
-725
-747
-797
-862
-920
-978
-1034
-1076
-1105
-1090
-1002
-921
-892
-830
-724
-649
-598
-589
-695
-828
-841
-790
-779
-742
-603
-436
-340
-309
-278
-208
-112
-15
78
163
227
283
342
384
410
465
539
586
628
710
800
847
848
831
819
825
857
888
859
812
835
870
884
990
1126
1214
1459
1710
1438
878
729
895
930
875
866
881
920
907
881
1012
977
256
-719
-833
124
1117
1343
1163
1124
1116
957
784
657
494
303
134
-31
-177
-225
-154
-41
50
96
57
-90
-271
-406
-511
-646
-823
-995
-1102
-1155
-1209
-1265
-1285
-1273
-1251
-1219
-1186
-1148
-1079
-1045
-1135
-1216
-1124
-987
-892
-735
-732
-1125
-1507
-1480
-1340
-1379
-1457
-1492
-1555
-1614
-1634
-1679
-1755
-1789
-1795
-1829
-1808
-1596
-1215
-821
-519
-217
173
250
-321
-668
53
833
834
1202
2184
2188
1255
963
1279
1320
1252
1348
1393
1410
1505
1549
1528
1560
1645
1684
1622
1564
1684
1843
1662
1150
731
578
472
272
95
58
97
218
529
706
295
-311
-446
-278
-236
-263
-246
-235
-215
-186
-181
-161
-127
-133
-146
-106
-53
-26
9
72
148
231
309
337
288
195
116
59
-13
-102
-159
-174
-185
-190
-175
-154
-128
-73
8
69
78
72
116
198
250
241
196
144
77
9
-29
-86
-195
-297
-443
-664
-781
-759
-710
-621
-677
-967
-849
-31
512
35
-841
-1272
-1272
-1248
-1274
-1209
-1077
-970
-859
-725
-621
-535
-410
-274
-182
-96
27
145
213
241
258
288
322
319
286
269
277
292
317
361
427
473
481
596
889
1113
1195
1466
1822
1587
676
-174
-499
-478
-383
-299
-226
-163
-128
-130
-131
-118
-117
-124
-125
-139
-145
-94
-18
40
135
294
429
506
573
611
581
535
498
419
308
222
157
109
78
38
33
115
173
125
90
131
145
110
95
94
79
70
74
87
107
124
136
152
173
202
242
269
298
376
481
530
515
497
490
485
507
539
534
530
559
534
417
231
-9
-130
-87
-315
-982
-1520
-1630
-1690
-1911
-2131
-2298
-2450
-2519
-2430
-2203
-1918
-1675
-1515
-1332
-1016
-693
-552
-553
-526
-394
-237
-131
0
127
79
108
376
-21
-1647
-2974
-2298
-429
659
671
587
704
727
692
736
772
758
760
797
834
820
769
748
738
707
728
751
704
761
818
645
674
704
-517
-2081
-1442
595
1209
681
698
942
835
790
860
816
790
829
822
802
794
766
747
747
748
755
764
781
814
829
821
821
792
735
703
614
485
525
550
367
479
630
-400
-1837
-1538
-117
277
-163
-229
-86
-82
-18
50
12
21
64
45
61
106
101
142
205
150
146
263
204
40
31
-92
-422
-499
-298
-221
-258
-223
-187
-203
-198
-178
-178
-175
-157
-146
-132
-112
-119
-126
-69
-3
-11
-28
6
7
-73
-169
-247
-325
-380
-392
-397
-409
-409
-420
-429
-395
-403
-487
-462
-291
-115
123
435
610
729
989
1046
505
-344
-957
-1192
-1212
-1163
-1136
-1134
-1091
-1083
-1137
-1049
-982
-1194
-1128
-826
-1615
-2987
-2662
-1049
-426
-655
-467
-132
-67
30
149
132
130
177
188
214
256
258
288
325
293
349
419
278
341
573
218
193
1037
-108
-3374
-3768
-763
891
370
-458
-1573
-1901
-316
1098
996
826
1094
1092
987
1109
1207
1114
972
968
1086
1203
1381
1588
1716
1931
2109
1792
1297
1253
1397
1339
1240
