# session 130
-15
111
261
498
741
936
1146
1166
748
157
-206
-368
-486
-542
-540
-547
-570
-586
-591
-588
-599
-633
-666
-698
-759
-830
-850
-803
-720
-607
-450
-277
-137
-30
57
111
123
109
84
63
56
51
44
50
66
77
75
70
78
86
70
56
75
81
42
23
61
70
20
-5
11
10
-8
0
11
-4
-27
-41
-43
-23
1
4
5
22
31
16
-2
-11
-21
-32
-28
-17
-5
34
92
106
119
217
330
441
618
617
225
-148
-123
29
38
22
42
32
20
32
33
32
40
37
34
51
73
87
108
144
188
233
278
316
340
351
344
311
267
221
158
82
22
-22
-51
-52
-53
-81
-89
-70
-80
-102
-90
-80
-87
-73
-51
-35
0
26
7
-33
-67
-83
-79
-80
-87
-88
-97
-97
-92
-112
-76
44
164
375
615
410
-186
-449
-266
-167
-240
-249
-222
-232
-225
-215
-238
-262
-263
-249
-217
-186
-178
-166
-107
-12
78
146
201
251
285
284
246
170
56
-49
-97
-116
-151
-179
-183
-182
-179
-165
-146
-144
-164
-175
-146
-119
-142
-154
-88
-9
11
-13
-54
-86
-80
-68
-70
-57
-43
-39
-21
-37
-49
76
241
331
457
463
82
-310
-270
-82
-76
-113
-88
-77
-86
-87
-69
-38
-32
-43
-16
27
45
56
86
135
201
285
376
446
469
465
458
415
315
210
137
72
7
-25
-25
-37
-64
-71
-67
-80
-94
-78
-56
-50
-47
-49
-42
12
79
75
21
0
-1
-25
-37
-10
5
-21
-30
-14
-34
-19
92
188
335
632
659
154
-281
-227
-103
-166
-191
-135
-128
-139
-133
-144
-152
-134
-119
-124
-127
-101
-51
-12
5
30
82
140
182
207
213
194
151
93
24
-44
-88
-109
-123
-132
-133
-142
-154
-157
-166
-188
-197
-191
-188
-189
-183
-159
-112
-78
-82
-103
-130
-158
-161
-142
-130
-123
-112
-93
-79
-92
-74
22
109
215
411
402
-6
-347
-290
-168
-199
-207
-162
-167
-181
-166
-166
-175
-158
-131
-120
-107
-76
-32
16
66
122
190
257
304
338
354
344
322
293
238
172
134
109
82
70
60
38
38
61
60
66
139
209
252
436
733
883
977
1193
1140
570
11
-153
-177
-239
-260
-259
-283
-299
-310
-340
-374
-411
-446
-466
-492
-525
-530
-498
-448
-374
-266
-137
-4
114
193
222
210
179
153
132
107
83
72
68
59
49
41
41
43
33
14
12
22
17
-3
-9
-4
-4
-5
-3
-6
-17
-31
-45
-51
-49
-49
-54
-67
-86
-85
-67
-73
-86
-55
-3
11
-27
-81
-107
-106
-116
-121
-103
-114
-138
-120
-123
-139
-35
132
276
496
576
167
-345
-386
-184
-155
-196
-165
-150
-171
-176
-173
-163
-144
-126
-107
-93
-93
-78
-30
26
90
173
255
317
369
405
411
385
338
287
223
131
43
-9
-44
-71
-78
-79
-90
-95
-92
-91
-90
-77
-59
-63
-86
-88
-48
6
27
-5
-43
-44
-50
-89
-96
-54
-29
-22
-2
-23
-43
84
271
379
508
532
168
-254
-260
-87
-75
-100
-76
-98
-125
-109
-104
-109
-96
-91
-81
-38
0
10
41
110
174
241
327
389
411
424
413
342
233
127
48
2
-40
-97
-127
-118
-117
-130
-121
-106
-121
-144
-140
-118
-109
-119
-119
-83
-32
-19
-59
-100
-108
-110
-120
-115
-114
-135
-126
-86
-109
-134
-39
70
167
447
660
325
-223
-346
-211
-219
-266
-238
-239
-255
-230
-211
-206
-191
-189
-189
-161
-129
-102
-59
-11
35
104
186
239
275
310
309
268
222
163
83
28
10
-19
-54
-54
-34
-41
-70
-80
-62
-58
-76
-81
-65
-52
-47
-26
15
39
26
3
-14
-31
-34
0
57
113
200
328
420
450
492
512
453
462
540
358
-61
-280
-243
-235
-283
-275
-262
-299
-329
-306
-270
-280
-327
-358
-358
-343
-334
-327
-297
-254
-220
-180
-125
-76
-31
19
57
83
110
129
133
132
130
128
139
151
148
166
208
233
256
307
391
567
802
926
1010
1228
1300
906
338
1
-139
-219
-246
-257
-287
-304
-315
-346
-376
-393
-415
-443
-474
-513
-547
-557
-542
-494
-397
-263
-115
36
164
242
273
267
222
158
113
84
55
22
-16
-44
-43
-52
-90
-108
-105
-121
-147
-165
-170
-161
-163
-181
-182
-168
-170
-169
-153
-151
-160
-148
-127
-131
-147
-149
-137
-128
-133
-141
-110
-45
-1
-5
-36
-66
-79
-84
-89
-78
-65
-53
-33
-54
-66
60
229
371
625
727
274
-278
-297
-84
-95
-156
-101
-75
-102
-88
-54
-37
-22
-5
27
81
123
144
173
207
253
331
413
453
471
480
460
422
383
325
242
166
119
89
65
51
47
47
54
64
58
38
29
32
31
22
5
-3
18
46
40
2
-39
-65
-82
-95
-90
-78
-86
-80
-62
-84
-66
51
176
346
538
385
-104
-349
-226
-145
-180
-165
-139
-148
-145
-139
-144
-136
-128
-125
-106
-87
-72
-29
24
53
90
158
218
243
251
251
232
184
99
5
-54
-81
-119
-152
-149
-140
-156
-158
-134
-127
-158
-195
-210
-199
-189
-203
-209
-177
-144
-148
-176
-205
-221
-224
-228
-233
-229
-231
-230
-208
-211
-222
-156
-41
62
141
45
-275
-486
-393
-258
-259
-277
-259
-256
-266
-259
-239
-223
-214
-194
-163
-135
-97
-38
20
80
157
235
303
373
430
448
447
439
400
329
260
205
169
168
185
190
187
190
188
186
186
173
177
214
209
150
155
227
241
188
139
106
90
84
70
75
96
87
94
122
83
77
228
383
507
662
520
-14
-338
-213
-87
-126
-127
-89
-88
-79
-56
-41
-29
-17
-11
-19
-42
-52
-29
10
52
104
164
222
271
304
305
259
181
98
8
-85
-144
-172
-203
-221
-214
-224
-240
-207
-170
-155
-90
23
141
355
670
952
1257
1604
1592
986
187
-345
-569
-635
-645
-650
-665
-690
-715
-726
-743
-779
-808
-817
-835
-870
-900
-903
-860
-770
-642
-487
-319
-155
-21
67
113
126
100
52
31
36
25
7
7
8
4
11
16
12
13
13
4
2
17
33
39
39
36
37
46
63
76
70
46
34
45
51
28
14
67
148
180
162
136
119
114
109
95
88
76
71
106
110
73
157
328
444
619
736
398
-127
-215
-19
7
-48
-13
10
-10
-4
10
9
18
34
40
44
54
72
105
151
188
226
286
345
367
365
363
342
292
235
178
107
37
-7
-35
-56
-68
-76
-78
-73
-78
-91
-83
-63
-73
-96
-74
-16
11
-15
-66
-114
-135
-137
-142
-145
-147
-148
-125
-130
-175
-117
28
155
387
590
296
-268
-418
-243
-204
-246
-217
-209
-221
-196
-178
-180
-173
-164
-144
-114
-103
-93
-62
-26
13
67
119
163
201
222
214
172
98
10
-66
-116
-145
-172
-189
-184
-169
-151
-127
-109
-60
46
144
265
532
837
1028
1233
1434
1264
671
70
-285
-448
-500
-505
-520
-540
-551
-571
-594
-597
-597
-624
-655
-662
-667
-683
-675
-618
-523
-397
-242
-67
87
181
234
268
256
207
186
189
163
132
137
147
130
112
111
109
98
85
73
59
46
46
52
44
25
20
20
15
18
20
6
-1
24
50
45
29
51
104
131
109
74
58
56
45
26
14
6
14
41
36
23
95
228
379
533
469
83
-223
-164
-17
-7
-27
-18
-18
-14
-13
-31
-24
7
11
4
28
65
87
111
154
196
229
275
332
366
367
348
320
286
236
175
128
93
45
-4
-20
-19
-35
-53
-55
-62
-69
-50
-30
-48
-64
-35
-6
-40
-111
-155
-167
-191
-219
-220
-220
-240
-235
-221
-247
-224
-107
9
143
251
55
-354
-488
-319
-219
-245
-245
-225
-220
-214
-216
-225
-219
-209
-205
-188
-156
-124
-89
-45
-1
60
149
236
282
296
302
289
226
117
15
-41
-77
-119
-146
-151
-151
-149
-149
-164
-167
-141
-125
-127
-101
-38
18
34
-1
-56
-82
-73
-58
-41
-48
-87
-74
-29
-58
-51
111
259
349
471
369
-52
-294
-160
-29
-36
-20
11
-5
-28
-35
-25
-8
-12
-26
-28
-13
17
48
76
134
229
315
377
437
485
484
439
372
290
196
98
23
-7
-14
-31
-45
-43
-42
-40
-14
51
139
223
375
685
1012
1206
1448
1747
1613
878
90
-318
-446
-483
-489
-501
-521
-522
-515
-524
-553
-580
-593
-621
-679
-730
-755
-779
-794
-745
-626
-484
-337
-176
-27
69
101
87
63
42
11
-16
-19
-16
-22
-13
8
17
12
9
14
19
1
-26
-31
-30
-47
-55
-33
-27
-57
-78
-77
-91
-104
-83
-67
-66
-23
32
31
5
3
-7
-37
-37
2
14
-7
-13
-21
-8
93
200
305
549
665
275
-232
-285
-108
-97
-148
-116
-97
-126
-132
-101
-77
-67
-48
-18
5
8
1
23
84
140
190
254
309
340
355
343
318
291
235
162
115
85
51
23
8
3
8
6
-11
-20
-7
15
26
24
32
68
93
66
12
-21
-28
-33
-39
-52
-76
-67
-24
-47
-109
-68
46
190
410
446
70
-301
-289
-168
-175
-184
-157
-158
-148
-128
-128
-109
-74
-65
-61
-37
-16
11
65
118
150
184
222
246
261
262
232
177
110
34
-37
-82
-107
-121
-122
-121
-128
-132
-132
-139
-140
-119
-97
-103
-117
-95
-57
-60
-109
-156
-178
-187
-194
-185
-174
-182
-177
-161
-179
-166
-62
60
218
387
244
-214
-440
-289
-174
-202
-189
-162
-188
-193
-166
-160
-160
-143
-121
-103
-75
-30
21
64
120
197
270
330
386
424
434
416
360
268
181
119
68
36
27
16
4
20
44
46
57
111
195
270
338
509
828
1094
1221
1457
1768
1638
914
112
-324
-449
-488
-526
-521
-486
-500
-548
-551
-526
-534
-579
-634
-667
-674
-695
-725
-710
-647
-561
-434
-276
-130
-9
93
162
174
136
94
69
52
37
14
-20
-25
10
17
-26
-39
-4
2
-24
-26
-12
-16
-26
-28
-29
-25
-23
-44
-74
-74
-61
-89
-126
-89
-8
16
-21
-58
-77
-95
-113
-110
-99
-102
-87
-74
-110
-76
81
198
369
695
676
93
-329
-222
-90
-146
-155
-119
-133
-140
-132
-142
-144
-137
-129
-111
-97
-92
-67
-17
40
95
148
210
273
300
298
301
294
256
201
138
77
42
21
-13
-33
-25
-25
-35
-23
9
71
171
260
368
608
910
1134
1353
1595
1594
1155
463
-114
-399
-489
-516
-515
-520
-554
-563
-537
-540
-573
-601
-632
-661
-678
-696
-697
-654
-586
-499
-371
-224
-84
32
96
122
133
108
77
109
185
293
437
521
579
820
1129
1210
1111
908
474
-15
-238
-269
-300
-314
-303
-324
-347
-345
-363
-402
-420
-428
-447
-466
-479
-471
-410
-319
-254
-204
-128
-34
48
97
113
117
120
108
86
79
75
51
30
26
12
-7
-6
-21
-63
-75
-60
-76
-97
-83
-70
-81
-82
-61
-42
-35
-28
-15
-6
1
11
17
18
26
32
25
18
18
11
-5
-16
-17
-14
-20
-30
-28
-23
-31
-34
-32
-50
-65
-38
-12
-26
-27
29
82
81
62
61
60
46
51
69
62
56
69
52
60
171
302
418
521
380
-34
-270
-159
-58
-100
-114
-93
-106
-109
-98
-105
-104
-77
-50
-35
-10
29
67
100
138
184
234
279
314
336
339
318
287
244
177
106
63
27
-27
-68
-77
-81
-97
-108
-108
-102
-96
-96
-97
-99
-97
-68
-26
-19
-44
-72
-103
-124
-126
-119
-119
-133
-129
-99
-109
-128
-35
113
245
402
363
-63
-424
-339
-157
-165
-184
-149
-155
-155
-124
-127
-141
-129
-117
-105
-73
-47
-43
-26
30
115
201
269
330
385
410
383
295
172
74
15
-46
-119
-162
-162
-138
-117
-124
-138
-113
-56
-6
49
135
286
539
818
979
1107
1377
1532
1145
398
-143
-339
-411
-447
-435
-427
-446
-460
-463
-478
-513
-550
-580
-615
-666
-710
-727
-740
-752
-719
-623
-477
-306
-165
-57
64
162
165
124
111
103
83
68
53
40
39
36
36
45
49
44
42
45
46
49
56
59
57
61
67
40
-8
-18
-7
-32
-54
-12
51
58
14
-25
-24
-10
-16
-19
-7
2
16
9
3
96
229
340
609
862
558
-72
-271
-98
-56
-108
-84
-77
-109
-111
-106
-104
-83
-67
-67
-56
-29
-2
24
52
84
135
205
255
273
289
295
277
251
219
156
79
17
-18
-30
-39
-55
-62
-56
-54
-33
42
129
198
341
598
862
1114
1364
1360
905
271
-190
-432
-527
-534
-535
-550
-551
-547
-551
-548
-542
-545
-564
-590
-605
-602
-598
-578
-516
-427
-321
-183
-44
43
89
129
131
72
35
72
143
247
364
415
511
795
1032
991
830
605
211
-157
-282
-292
-305
-294
-285
-307
-316
-293
-275
-304
-353
-371
-379
-406
-418
-392
-343
-266
-178
-115
-53
50
144
167
154
169
193
183
156
147
153
149
125
107
120
129
106
88
94
90
68
57
55
46
35
29
30
39
45
46
52
57
49
41
39
30
17
14
18
18
13
2
-7
-10
-15
-20
-20
-25
-33
-34
-40
-56
-63
-67
-85
-98
-92
-90
-93
-70
-27
-9
-29
-54
-71
-90
-98
-94
-100
-98
-77
-94
-108
-13
123
275
513
537
73
-394
-382
-214
-231
-269
-231
-229
-254
-247
-229
-214
-186
-160
-147
-129
-94
-53
-5
56
115
170
250
343
403
425
431
418
383
342
299
246
181
113
75
77
82
78
76
64
62
100
