# session 196
87
292
378
400
451
512
521
502
508
502
443
374
323
265
218
198
162
142
190
202
133
127
182
161
130
161
158
129
129
124
152
185
173
275
269
-76
14
411
-556
-2118
-1644
-49
94
-511
-420
-273
-371
-149
138
190
325
379
28
-268
-154
1
-19
-33
-17
-6
58
104
51
22
71
70
20
21
19
20
115
153
136
300
297
96
568
590
-2098
-4913
-3161
773
987
-1398
-1482
246
664
137
135
274
184
203
269
244
262
305
299
299
303
282
274
288
294
315
358
386
410
454
437
346
363
452
378
350
509
417
337
749
501
-796
-984
361
997
620
458
190
-444
-615
-374
-354
-410
-308
-224
-205
-161
-116
-93
-61
-24
0
20
42
44
46
92
125
109
134
226
312
351
338
387
506
469
481
726
518
158
680
623
-806
-1027
-804
-3126
-4641
-2434
-915
-1480
-515
1058
768
295
666
711
547
662
688
659
752
755
695
664
596
604
637
574
658
661
389
705
939
-959
-3090
-1856
918
1608
1142
1418
1442
428
151
1260
666
-2114
-2256
91
-584
-2618
-1583
-879
-2401
-1818
133
-357
-1252
-670
-483
-444
402
733
436
593
842
786
804
870
861
883
846
747
722
681
594
555
473
413
518
402
20
79
349
245
552
680
-1901
-5466
-4665
-252
1346
-1006
-2696
-2505
-2584
-2359
-535
1082
1086
774
909
908
782
823
858
829
811
766
775
875
971
1155
1354
1123
558
335
496
520
413
502
592
413
353
551
300
-407
-524
105
594
506
224
440
764
-356
-2484
-3119
-1888
-521
294
662
557
343
283
193
81
50
9
-37
-28
-19
-28
-15
10
17
4
2
40
69
43
22
23
0
4
56
63
60
115
107
39
49
20
-24
136
140
-101
198
488
-627
-1817
-989
427
292
-183
544
750
-1116
-2616
-1481
202
295
-51
128
220
157
201
186
158
215
204
161
207
236
218
257
295
269
286
371
409
415
473
553
594
603
615
622
568
523
530
395
244
345
149
-375
-23
499
-830
-2407
-1512
110
18
-548
-351
-192
-308
-258
-182
-188
-102
2
-22
-93
-110
-97
-106
-114
-78
-30
-29
-41
-9
12
-43
-65
81
281
405
649
878
351
-508
-213
332
-996
-2499
-1471
236
202
-260
-56
-76
-301
-177
-68
-155
-143
-81
-87
-57
-9
-10
-1
44
82
123
184
231
243
250
262
244
188
138
114
74
5
5
88
115
102
123
77
94
257
104
-70
480
367
-1707
-3219
-1717
782
1098
-798
-2029
-772
769
457
203
883
35
-1739
-1207
631
912
418
650
938
907
1057
1149
798
401
401
582
564
525
631
509
422
825
337
-1808
-2926
-1322
553
833
650
867
994
788
787
1233
694
-2032
-4483
-3350
-47
1641
1394
1183
1353
1312
1171
1087
976
911
895
839
789
761
720
702
695
668
647
575
497
585
601
388
540
764
-839
-4375
-6421
-4446
-702
1172
1115
990
1044
1014
1029
758
814
1467
92
-3278
-3761
-1220
-499
-1074
60
1037
446
272
700
575
400
532
514
466
547
543
519
553
524
501
529
491
462
489
486
572
603
377
582
1036
-458
-4048
-6185
-5527
-5274
-6045
-3496
1700
1770
-3305
-4091
-30
455
-2585
-3112
-1383
-187
662
1514
1874
1204
-195
-361
1070
1760
1288
1241
1509
1374
1241
1264
1180
1123
1142
1079
1018
1035
1016
991
1020
981
925
1057
1206
1229
1461
1688
1203
548
633
769
558
785
765
142
746
1215
-1177
-2561
-298
-173
-3184
-2784
354
807
-158
162
425
145
270
430
349
443
549
474
469
521
468
412
390
293
185
157
141
111
112
112
85
36
-18
7
55
-29
-30
119
-5
-102
248
160
-98
726
132
-3948
-6333
-3527
-1222
-2821
-3582
-1414
183
49
-76
83
42
132
383
494
686
918
649
103
3
207
216
149
187
189
141
159
209
231
242
257
274
288
310
347
380
404
427
443
473
518
530
518
542
583
591
595
596
514
328
129
-9
-94
-142
-152
-152
-148
-114
-61
-34
-29
-15
-10
-24
-7
31
14
-29
-6
68
123
116
65
73
120
36
-71
20
147
160
187
215
233
288
211
286
823
469
-1775
-3538
-2432
-194
570
280
241
337
255
206
224
204
190
198
200
223
257
272
280
299
316
316
320
344
362
376
411
436
457
489
419
365
509
407
84
460
434
-2195
-5241
-4496
-1122
815
770
363
501
1012
202
-2045
-2371
-85
1117
520
554
828
470
917
759
-2813
-5906
-3493
325
226
-784
411
1297
795
716
989
811
750
954
1028
1200
1409
1106
551
403
504
477
427
428
432
445
370
354
554
60
-1809
-3563
-3466
-1854
-20
902
657
702
1317
120
-2396
-2236
340
1386
781
722
968
819
766
813
677
577
575
526
488
486
455
429
432
411
360
332
352
369
338
309
303
279
291
375
378
316
376
395
267
333
412
200
324
546
39
190
1078
-426
-3199
-2997
-1250
-773
-443
-225
-724
-988
-1760
-2848
-1701
459
657
79
334
475
246
265
328
276
319
354
303
299
318
303
315
330
294
290
368
427
427
444
477
480
478
440
372
391
318
72
169
353
-69
57
747
-1268
-5131
-5157
-2142
-1718
-2611
-1049
681
360
-23
311
336
244
369
351
255
290
309
262
250
263
257
279
357
378
340
444
647
768
961
1178
910
295
119
385
461
350
372
359
239
316
426
200
5
185
334
262
264
329
295
277
329
360
364
356
340
381
463
476
450
472
476
455
477
399
233
290
349
102
172
500
-640
-3696
-6140
-5306
-1829
825
842
56
105
295
156
158
254
243
278
295
191
153
247
299
259
218
224
298
388
370
325
397
473
574
788
830
696
458
-165
-168
845
-67
-2914
-2947
-922
-1488
-2401
-463
1024
352
86
489
364
243
390
350
292
371
373
314
319
374
428
452
483
507
425
334
374
369
237
219
246
128
110
155
38
137
210
-179
264
939
-1530
-5195
-4659
-2083
-2048
-2040
19
1000
325
262
588
460
440
555
475
471
546
460
424
517
467
404
579
713
759
1077
1264
754
203
230
354
357
436
386
369
560
392
257
665
-102
-2170
-2242
-99
828
258
217
472
327
297
392
295
257
353
369
366
424
429
365
326
314
271
201
157
148
128
101
105
101
70
70
92
125
167
117
93
256
289
201
405
405
106
460
569
-453
-692
-921
-3647
-5156
-2657
-1232
-2210
-1095
998
825
310
788
925
909
1068
692
253
414
557
391
388
496
417
371
441
378
411
605
5
-1967
-4388
-5467
-3867
-666
1367
1500
1041
889
1371
1312
-1054
-3451
-2208
724
1478
818
755
863
705
687
722
664
656
624
523
503
516
480
486
490
371
266
305
346
328
328
310
295
348
330
281
340
262
205
504
376
-23
658
754
-1402
-2486
-960
-162
-815
-1593
-2651
-2425
-158
1051
355
67
311
155
65
198
180
145
203
216
180
145
135
153
137
102
120
139
136
200
285
309
360
437
448
538
653
507
470
680
372
167
867
91
-2561
-2452
344
304
-1679
-1523
-1325
-2231
-1074
996
898
263
597
645
405
573
662
519
495
499
437
386
349
395
476
418
343
380
358
340
493
579
659
1002
1012
423
103
81
5
334
300
-358
428
840
-2870
-5930
-2896
731
163
-536
426
453
-50
205
335
145
214
297
240
271
350
399
456
486
469
435
382
306
199
106
79
72
57
88
104
33
8
83
61
-58
-14
93
-28
-128
-42
-110
-64
233
-133
-536
133
-540
-3433
-3866
-717
990
173
-18
452
275
158
435
507
516
709
688
287
-42
-3
135
112
58
65
39
40
113
81
12
97
102
49
229
150
-118
316
365
-357
623
1130
-3023
-5969
-2404
-287
-3282
-3149
774
1614
342
606
890
414
469
650
459
443
548
511
522
575
545
524
537
537
539
530
527
573
610
593
540
464
446
444
346
434
586
195
80
792
-119
-3040
-3439
-333
1354
235
-295
388
410
-29
72
321
272
202
257
296
266
217
213
265
311
330
358
376
359
374
426
412
370
396
424
423
441
429
413
434
416
475
554
306
204
553
0
-2004
-4053
-4864
-3140
366
719
-2808
-3534
-131
1421
346
272
827
525
313
529
511
407
458
453
397
425
448
403
421
523
554
549
591
550
564
777
701
329
476
945
854
501
496
645
705
588
480
745
312
-2136
-4499
-3590
-629
908
744
596
704
644
631
724
722
694
715
710
704
745
797
840
836
790
805
786
638
682
805
507
491
953
-267
-3493
-5658
-5820
-5768
-6009
-6201
-5600
-2886
550
1870
1596
1295
1100
1562
1258
-2064
-4390
-1881
-66
-2197
-2230
1095
2256
1264
1307
1616
1313
1280
1434
1500
1562
1272
840
864
1052
1000
952
1026
1085
1141
1173
1069
917
862
821
711
658
669
639
704
800
668
700
908
464
240
1124
181
-3597
-4831
-1425
1257
780
199
504
458
288
391
388
309
313
278
224
217
222
251
275
235
203
240
302
325
283
222
196
202
220
199
121
62
-57
-212
-48
136
-117
-7
404
20
337
1526
-715
-4752
-3483
-164
-2052
-4212
-1347
1010
-2
-417
240
91
-84
185
198
148
220
136
62
136
137
76
97
141
166
221
302
379
437
438
375
308
273
246
180
69
-30
-57
-42
-59
-109
-124
-77
-42
-96
-197
-233
-205
-183
-162
-124
-109
-116
-98
-71
-76
-88
-61
-11
19
29
70
134
126
74
124
227
300
479
642
423
19
-59
149
284
241
157
139
80
-27
-4
-43
-209
-66
-7
-398
-98
353
-1241
-2956
-1591
434
174
-444
-9
192
63
249
368
293
336
386
354
348
319
242
208
204
196
216
241
235
217
195
159
129
95
31
-15
2
22
-19
-84
-125
-148
-167
-185
-198
-183
-149
-139
-120
-41
39
99
240
393
425
533
574
-143
-1165
-1062
-95
268
51
52
123
28
-13
13
16
48
58
6
-18
2
24
55
74
63
61
83
105
129
157
183
216
230
206
178
142
51
-58
-128
-184
-243
-269
-280
-320
-364
-363
-320
-239
-100
78
259
529
1034
1596
1757
1453
938
224
-310
-132
-49
-441
93
473
-1928
-4208
-2343
475
459
-245
99
154
-163
-125
-131
-311
-331
-312
-348
-297
-185
-77
66
227
377
512
590
590
560
525
489
455
399
330
287
241
164
103
88
77
29
-59
-130
-123
-88
-97
-110
-94
-102
-131
-123
-72
-14
15
-8
-27
2
1
-57
-69
-21
-11
-52
-95
-153
-222
-258
-272
-291
-281
-248
-225
-182
-147
-163
-112
26
91
161
290
135
-306
-490
-338
-250
-272
-250
-236
-254
-237
-195
-149
-97
-71
-71
-60
-41
-28
-16
-11
-14
-1
20
40
85
139
135
118
162
184
123
103
153
128
30
-7
-1
-38
-86
-101
-106
-109
-77
-10
62
124
182
227
250
295
373
403
364
355
416
477
539
665
804
856
931
1181
1380
1179
678
254
44
-54
-110
-138
-150
-146
-129
-121
-118
-95
-75
-98
-132
-132
-139
-200
-289
-380
-475
-552
-592
-588
-545
-498
-465
-403
-311
-259
-271
-284
-260
-231
-227
-240
-263
-273
-236
-176
-151
-147
-116
-81
-75
-87
-105
-125
-126
-114
-141
-203
-214
-153
-97
-87
-97
-100
-80
-50
-56
-85
-92
-83
-67
-35
-45
-93
-47
60
90
129
178
5
-271
-287
-136
-102
-131
-107
-83
-81
-67
-47
-31
-17
-11
-8
4
36
60
37
21
78
140
136
148
235
311
337
384
480
556
565
563
593
605
561
498
459
434
391
343
310
257
187
169
145
21
-65
25
141
133
68
19
-20
-40
-48
-67
-75
-85
-140
-178
-153
-167
-203
-121
2
83
207
180
-212
-554
-488
-342
-379
-430
-422
-425
-410
-367
-336
-327
-325
-312
-278
-244
-216
-192
-182
-174
-150
-113
-70
-24
40
124
145
104
149
199
98
55
69
-141
-167
103
-429
-1510
-1252
65
524
300
586
1093
1247
1400
1910
2397
2159
1188
318
36
12
-54
-111
-139
-185
-236
-277
-313
-342
-370
-393
-401
-415
-461
-514
-537
-542
-538
-503
-442
-371
-265
-127
-14
57
122
182
193
135
64
76
136
101
19
38
85
68
58
49
44
93
51
-8
116
47
-119
206
129
-428
491
564
-4174
-8332
-4982
578
1304
96
450
711
344
402
489
342
406
519
459
413
421
426
461
498
494
457
428
438
418
372
464
628
725
939
1150
857
288
129
293
325
257
248
249
230
197
159
155
167
138
94
105
144
137
113
137
147
137
180
164
101
204
179
-110
14
239
-180
26
769
-821
-3389
-2473
234
529
-268
-3
185
-106
-64
43
-48
-34
9
-30
0
64
62
33
-7
-47
-48
-37
-32
-19
-30
-46
-24
-36
-58
39
162
268
485
543
163
-188
-122
0
-61
-101
-68
-66
-99
-129
-121
-95
-127
-187
-186
-160
-168
-184
-169
-140
-130
-126
-84
-13
41
77
111
124
116
105
67
-12
-85
-120
-148
-176
-176
-158
-154
-152
-137
-126
-117
-89
-53
-40
-25
34
115
165
174
161
135
105
80
79
92
94
120
175
166
117
159
244
360
635
801
454
-54
-154
-29
-57
-134
-112
-99
-143
-175
-176
-176
-199
-232
-225
-189
-200
-236
-199
-104
-44
-10
54
130
169
175
171
162
152
153
153
128
82
53
55
55
27
-1
-3
5
3
