# session 198
-2
9
32
52
62
74
95
123
159
200
235
264
296
320
314
293
289
278
225
161
131
113
88
77
63
26
26
68
66
30
45
67
27
-16
6
53
53
23
37
79
71
15
-30
-56
-77
-92
-103
-108
-116
-134
-125
-91
-64
9
115
184
332
513
327
-168
-370
-218
-147
-203
-198
-168
-165
-144
-121
-122
-111
-58
18
76
105
129
157
174
192
239
301
345
377
401
401
397
414
419
360
268
193
119
42
5
-21
-84
-136
-141
-149
-193
-234
-193
-105
-125
-176
-127
-189
-280
-86
-50
-219
201
154
-1692
-2912
-1446
96
-196
-567
-259
-270
-429
-248
-157
-216
2
304
351
373
425
168
-199
-194
2
20
-31
-1
23
14
18
29
35
37
37
49
76
102
128
157
175
192
234
292
344
402
446
439
418
427
418
355
285
224
142
54
5
-3
-6
-19
-34
-33
-4
26
17
-24
-64
-90
-91
-62
-32
-3
85
280
544
736
823
1061
1524
1654
1052
214
-235
-341
-376
-384
-368
-365
-365
-362
-363
-355
-350
-358
-357
-353
-366
-380
-410
-452
-444
-436
-465
-359
-185
-303
-502
-264
144
205
106
127
131
63
37
27
-29
-73
-69
-60
-67
-73
-75
-78
-74
-89
-136
-168
-169
-169
-160
-137
-117
-94
-70
-73
-87
-82
-77
-80
-77
-82
-81
-55
-42
-54
-31
26
49
37
26
14
5
4
-1
-2
2
-7
-2
17
-9
-7
100
198
306
521
535
138
-203
-157
-46
-73
-87
-64
-68
-61
-50
-69
-71
-48
-40
-40
-30
-20
-8
6
19
45
75
91
110
144
190
223
229
260
284
223
226
276
101
51
524
761
252
-132
37
111
-48
-39
31
-88
-181
-134
-143
-44
262
172
-266
-60
718
1173
1335
1382
952
265
-111
-234
-318
-323
-281
-280
-305
-316
-298
-273
-286
-317
-321
-326
-365
-412
-436
-431
-406
-376
-324
-215
-72
44
120
171
155
36
-111
-192
-216
-237
-247
-227
-201
-175
-134
-100
-89
-70
-38
-27
-25
4
29
21
12
26
43
44
22
-4
3
22
7
-28
-35
-17
-18
-24
11
33
-12
-14
33
-13
-29
52
18
114
399
132
-88
633
4
-2897
-3595
-687
711
-799
-1184
108
517
204
402
651
671
942
1125
666
101
71
259
249
190
234
238
153
119
169
189
153
124
105
94
127
193
243
270
292
325
384
452
493
522
558
547
446
295
146
11
-103
-165
-182
-222
-273
-240
-176
-203
-234
-169
-128
-175
-191
-170
-193
-208
-172
-167
-211
-211
-143
-74
-56
-86
-125
-125
-96
-88
-86
-42
17
19
12
58
65
26
89
194
238
340
295
-194
-600
-411
-130
-186
-256
-178
-137
-135
-109
-74
-29
-20
-91
-116
-26
33
3
6
59
91
122
183
241
302
389
476
508
485
455
389
256
137
86
28
-54
-109
-176
-290
-369
-371
-350
-331
-287
-235
-208
-207
-204
-158
-114
-174
-258
-198
-73
-53
-80
-67
-73
-90
-62
-45
-59
-23
15
-14
-5
38
2
17
171
310
457
580
321
-188
-337
-176
-148
-195
-164
-152
-160
-140
-124
-56
35
-9
-95
-22
81
31
-46
-3
78
110
143
200
245
320
418
422
403
440
338
229
388
302
-202
-167
349
212
-282
-254
-133
-306
-347
-237
-240
-250
-197
-163
-132
-107
-107
-70
3
46
61
78
85
75
80
106
127
151
163
125
154
241
127
49
261
175
63
758
675
-1119
-1782
-829
-1228
-1988
-647
643
213
-58
284
191
26
156
145
64
144
191
166
193
212
202
279
408
458
474
550
594
534
549
696
703
551
528
511
337
342
384
118
247
579
-533
-2121
-1557
68
232
-285
-148
5
-141
-123
-43
-106
-167
-158
-124
-108
-146
-169
-148
-193
-271
-245
-205
-268
-280
-186
-154
-168
-147
-171
-131
74
222
408
741
569
-149
-358
-151
-279
-90
170
-1317
-3349
-2773
-583
123
-302
-226
3
-81
-85
-2
6
56
133
176
256
342
377
410
463
522
566
536
462
434
398
309
269
273
222
185
239
270
233
238
287
305
305
314
313
306
294
254
205
184
166
110
53
63
93
62
13
-6
-24
-12
56
73
25
29
50
20
13
22
13
73
179
307
564
641
167
-329
-273
-75
-89
-52
-5
-40
92
133
-58
178
365
-160
137
851
-1192
-3965
-2637
372
584
-197
213
421
134
252
411
334
340
330
216
177
166
75
-9
-19
0
-11
-56
-85
-67
-39
-29
-11
21
24
4
4
19
45
103
169
199
171
122
148
233
230
131
78
76
34
-45
-112
-130
-110
-115
-133
-121
-145
-154
-19
108
151
348
511
204
-236
-273
-129
-123
-128
-85
-94
-128
-126
-117
-139
-144
-91
-88
-151
-102
-34
-90
23
167
-39
83
464
-38
-11
1166
-348
-3484
-2072
394
-2674
-5154
-1542
1415
290
-259
459
239
-51
201
174
73
191
203
177
246
245
217
255
247
195
219
274
265
257
318
357
322
310
333
297
244
250
248
217
239
277
259
247
275
272
273
335
443
648
813
573
62
-140
5
90
62
72
83
61
58
69
72
88
117
135
149
179
211
227
249
289
318
340
387
440
469
497
540
568
571
569
549
481
398
369
375
348
315
319
298
224
154
77
4
15
-16
-142
-86
-46
-309
-226
37
-462
-336
660
-1425
-5817
-5561
-983
954
-70
-150
304
11
-106
71
-21
-79
30
12
-47
4
11
-52
25
192
272
444
681
465
-114
-319
-129
-69
-134
-104
-81
-120
-100
-42
-47
-73
-48
-17
-28
-42
-22
15
49
77
109
158
187
188
248
337
322
292
293
186
162
200
-146
-239
308
-553
-3081
-3517
-1050
509
96
-83
221
136
39
157
146
95
144
158
123
110
107
106
108
97
97
137
202
235
222
215
216
181
155
184
199
177
170
163
163
194
177
142
217
364
550
732
585
79
-219
-102
21
-7
-7
25
3
-11
34
29
-26
38
98
-106
-280
-76
159
129
88
143
143
129
171
194
198
236
268
263
251
231
175
99
45
10
-32
-65
-69
-72
-88
-87
-72
-83
-100
-89
-83
-90
-71
-48
-56
-67
-73
-85
-74
-31
-11
-30
-44
-17
39
92
123
196
375
554
634
787
1071
1077
585
8
-272
-350
-395
-409
-403
-414
-424
-416
-406
-407
-414
-420
-430
-455
-490
-523
-552
-580
-601
-611
-598
-554
-495
-418
-302
-182
-77
52
162
167
137
159
181
157
92
14
7
54
40
-4
9
24
17
41
62
53
70
108
105
87
113
155
171
173
167
147
124
102
73
53
40
12
-16
-16
-4
-3
3
20
30
28
21
16
25
38
38
48
83
105
102
115
143
106
11
6
115
165
94
42
100
162
114
102
275
423
530
834
797
74
-137
253
-742
-2545
-2154
-134
549
66
73
285
178
152
245
218
182
214
225
228
268
306
312
329
388
438
452
452
460
480
483
433
371
320
253
190
140
73
32
56
56
8
3
40
28
-1
42
82
27
46
161
29
-117
263
-15
-2705
-6074
-6120
-2652
392
844
226
291
717
33
-1688
-2162
-624
713
689
481
614
622
519
506
575
688
809
1010
1158
839
269
132
330
338
238
266
277
231
263
245
141
231
322
167
271
404
-55
169
934
-917
-4050
-3217
205
1072
225
440
798
551
548
663
504
376
333
237
185
193
177
153
155
163
152
129
126
127
119
131
140
109
101
152
195
216
281
416
608
777
893
1102
1369
1281
718
148
-108
-213
-263
-198
-172
-227
-159
-166
-348
-187
-73
-552
-249
394
-2070
-5971
-5256
-1055
574
-282
-331
48
-121
-103
138
169
231
378
400
368
356
313
265
233
198
171
158
146
144
152
150
135
136
158
149
95
72
94
97
98
134
133
86
92
122
93
66
87
95
85
99
116
124
137
134
105
75
50
22
-24
-89
-134
-122
-82
-63
-62
-35
15
30
3
-10
-5
-20
-40
-33
-8
1
-30
-56
-24
1
-22
33
189
305
408
537
426
3
-277
-154
9
-69
-147
-50
1
-69
-83
-37
3
44
31
57
147
28
-22
337
124
-1033
-1355
-191
555
110
64
748
218
-1545
-1753
-66
805
371
242
423
287
197
264
218
182
202
145
128
202
209
216
337
450
573
837
1101
1321
1638
1749
1289
552
55
-46
-47
-219
-186
11
-346
-399
382
-797
-4135
-4530
-1296
292
-658
-869
-360
-555
-772
-587
-526
-502
-316
-157
-34
100
167
190
217
206
167
151
139
101
69
65
74
85
93
86
94
153
205
174
129
151
172
143
127
131
114
105
120
134
160
188
180
154
142
135
114
72
24
-5
-21
-35
-31
-10
1
1
5
0
-8
14
47
40
18
46
109
145
149
125
71
44
67
61
20
24
39
21
28
36
7
47
157
308
640
900
554
-89
-286
-159
-146
-122
-23
-82
-216
-211
-157
-179
-210
-203
-188
-184
-187
-176
-144
-123
-126
-111
-50
21
70
107
138
153
156
159
148
113
77
48
8
-39
-76
-99
-106
-100
-95
-89
-80
-74
-60
-39
-29
-17
14
54
108
190
347
633
935
1172
1497
1692
1186
319
-78
-275
-527
-213
-105
-1384
-2287
-1146
88
-94
-384
-190
-223
-379
-354
-384
-481
-509
-540
-579
-565
-529
-474
-372
-258
-148
-29
82
160
197
196
185
190
203
206
207
214
215
201
190
192
199
217
269
370
522
686
844
1022
1126
969
638
452
450
412
270
55
-164
-169
-94
-254
-237
-25
-416
-489
406
-747
-4284
-4734
-1225
672
-110
-282
166
-58
-242
-95
-124
-153
-34
10
26
105
156
178
214
238
250
262
266
264
257
244
253
272
266
260
270
244
210
223
218
188
209
193
136
186
165
8
133
225
-406
-944
-432
209
137
-23
84
118
60
57
121
154
-14
-177
3
256
233
154
185
175
128
126
123
106
99
78
57
74
101
98
76
64
72
87
98
132
199
253
255
222
197
208
225
212
207
227
220
221
260
231
182
298
491
661
891
893
351
-194
-164
50
-16
-111
-40
-83
-194
-91
-134
-343
91
18
-2849
-6080
-4848
-896
517
72
508
44
-1821
-1693
364
1101
627
692
904
749
687
714
619
546
519
467
422
379
335
325
326
309
297
293
285
283
290
295
298
294
266
253
277
272
231
254
301
245
154
132
95
-1
-28
22
12
0
73
35
-69
69
146
55
534
782
-1269
-4730
-6415
-5242
-2309
529
993
-902
-1972
-678
778
844
579
686
695
595
640
672
628
632
666
705
759
772
763
819
900
919
895
875
843
770
662
555
464
372
305
280
239
179
169
175
135
102
111
110
79
33
-9
-8
11
-23
-75
-72
-48
-57
-77
-107
-170
-191
-154
-222
-307
-150
-249
-1352
-2646
-2485
-1012
139
369
316
440
692
728
318
-99
-71
86
51
13
57
58
36
41
39
30
31
31
31
42
56
65
76
97
131
180
228
253
270
308
338
335
328
309
228
112
39
-7
-78
-130
-130
-136
-163
-168
-163
-172
-168
-138
-115
-112
-116
-117
-101
-75
-77
-104
-97
-52
-31
-56
-86
-100
-106
-103
-100
-102
-88
-73
-77
-55
-27
-51
-14
128
224
349
581
515
37
-244
-114
-8
-42
-27
4
-5
4
12
-7
-11
-3
-6
-8
-17
-41
-40
-11
17
37
54
61
67
85
114
144
162
157
123
57
-32
-108
-140
-142
-143
-135
-117
-118
-135
-133
-109
-93
-92
-86
-70
-58
-60
-67
-68
-65
-53
-32
-17
-16
5
45
58
35
17
15
5
-1
13
14
4
21
28
21
46
9
-12
218
366
228
489
652
-831
-2578
-1870
20
389
-94
-11
145
31
41
97
43
30
57
49
51
65
67
89
131
157
181
232
291
333
358
372
369
344
300
244
179
113
59
24
2
-12
-23
-32
-36
-29
-16
-9
-3
11
21
13
8
22
31
13
-6
1
28
53
58
67
116
158
129
72
48
42
38
46
37
-4
-39
-47
-34
-35
-79
-89
-17
58
198
445
434
-5
-361
-325
-219
-237
-239
-208
-211
-213
-185
-151
-131
-117
-98
-79
-74
-65
-43
-19
2
30
59
85
116
151
183
210
227
221
198
171
132
67
1
-28
-25
-30
-55
-76
-74
-62
-52
-52
-66
-76
-60
-55
-94
-117
-84
-67
-97
-106
-106
-150
-180
-148
-129
-158
-156
-96
-51
-56
-80
-109
-125
-93
-48
-50
-67
-53
-38
-31
-26
-64
-83
3
96
182
376
423
65
-296
-271
-125
-120
-129
-87
-73
-77
-62
-40
-23
-17
-14
2
23
25
31
73
114
115
127
183
222
213
214
253
287
283
256
225
176
102
32
-5
-28
-55
-75
-98
-125
-118
-92
-114
-159
-154
-121
-118
-113
-80
-62
-71
-64
-45
-41
-42
-32
-21
-21
-28
-14
21
39
34
55
97
104
77
57
50
48
49
44
47
63
65
55
63
56
49
121
220
305
484
581
285
-118
-168
-40
-39
-69
-52
-59
-67
-51
-61
-84
-79
-61
-45
-46
-73
-89
-71
-48
-34
-10
23
53
79
111
155
190
190
181
178
144
69
-2
-58
-113
-152
-165
-176
-189
-195
-202
-215
-222
-215
-205
-207
-207
-178
-142
-112
-46
31
98
257
478
593
728
971
961
520
-80
