# session 199
5
-62
-89
-96
-121
-153
-161
-155
-152
-139
-87
-5
72
133
190
231
232
200
153
116
104
98
86
91
110
109
93
84
75
61
49
38
27
23
19
7
-2
-3
-4
-7
-7
-3
-8
-15
-16
-19
-31
-34
-25
-25
-30
-33
-40
-45
-33
-29
-46
-34
-1
-18
-53
-33
-10
-43
-57
-33
-50
-90
-76
-48
-60
-82
-94
-110
-127
-137
-133
-129
-141
-137
-91
-61
-78
-97
-88
-72
-79
-99
-81
-28
-8
-13
-6
-27
-38
47
156
274
453
425
16
-325
-265
-119
-128
-145
-109
-94
-92
-80
-66
-51
-41
-27
6
23
11
21
57
79
102
143
180
210
241
265
288
298
286
292
314
285
228
204
165
80
32
43
26
-23
-40
-33
-42
-65
-86
-93
-79
-58
-47
-19
78
281
526
723
879
947
807
638
646
530
91
-221
-175
-126
-204
-220
-185
-199
-215
-206
-197
-187
-178
-178
-173
-161
-152
-135
-103
-84
-84
-60
0
46
59
75
95
91
81
84
61
-2
-50
-49
-36
-53
-82
-78
-62
-72
-94
-112
-111
-78
-92
-119
-44
-54
-186
18
80
-1592
-4746
-6286
-4228
-775
803
527
314
495
454
338
367
365
327
340
342
328
336
339
316
293
296
317
323
314
304
280
255
259
258
219
213
275
319
311
309
294
244
217
218
207
207
214
188
166
150
139
228
360
454
706
936
570
-75
-218
-99
-127
-94
-128
-305
-313
-386
-299
259
-160
-895
1161
3362
1073
-1836
-882
445
-200
-387
94
-20
-101
131
132
92
187
189
144
156
138
89
53
15
-13
-21
-39
-62
-74
-78
-64
-42
-48
-44
-1
6
-40
-31
30
40
19
40
92
155
222
330
531
717
812
971
1129
925
417
32
-141
-239
-261
-227
-225
-239
-234
-228
-222
-215
-226
-251
-269
-286
-309
-337
-370
-395
-395
-373
-331
-269
-191
-91
32
151
239
281
282
263
221
170
159
141
81
109
144
47
114
220
-65
24
528
-646
-2950
-2715
-284
698
215
183
377
420
228
-1044
-2447
-1856
-144
525
440
405
275
515
645
-1486
-5277
-6596
-3609
341
1065
-1056
-2050
-517
1020
1113
907
1016
997
882
881
862
803
787
776
751
738
735
716
656
630
724
842
939
1091
1085
691
287
284
428
407
363
392
348
242
218
240
206
162
155
143
116
107
114
116
116
115
121
153
206
246
271
299
317
309
284
246
200
152
89
12
-54
-101
-140
-166
-171
-170
-176
-177
-168
-167
-170
-147
-112
-76
-6
72
143
316
574
741
872
1079
1042
520
-40
-245
-334
-393
-305
-395
-547
-216
-282
-1478
-2008
-887
-57
-373
-559
-372
-422
-538
-522
-538
-564
-547
-520
-444
-332
-240
-134
-3
87
104
86
73
45
-11
-34
-6
4
-23
-34
-19
-9
0
13
25
33
37
40
44
47
48
49
50
51
59
61
50
63
113
161
237
406
599
740
885
984
886
699
612
521
301
52
-130
-210
-185
-163
-198
-214
-209
-211
-180
-151
-194
-248
-258
-285
-338
-350
-330
-336
-354
-353
-349
-351
-335
-293
-242
-186
-122
-56
-3
40
79
106
121
136
156
167
170
182
203
211
204
200
199
200
205
204
197
197
197
207
222
178
156
227
117
-165
-126
87
65
220
332
-635
-2102
-2767
-2698
-1911
-333
715
571
364
521
493
367
381
358
297
308
315
295
298
294
276
279
302
308
288
280
314
340
313
265
230
206
196
188
175
183
197
194
195
175
149
225
362
497
754
913
520
-85
-216
-40
-20
-72
-49
-48
-77
-68
-48
-50
-67
-71
-60
-59
-60
-56
-60
-65
-64
-42
24
57
64
156
175
117
305
315
-39
374
500
-2608
-6517
-5523
-1086
902
257
97
409
252
148
244
191
145
197
184
155
187
193
158
146
162
169
157
163
216
268
264
232
213
201
212
232
208
186
220
226
192
215
230
194
275
435
525
694
841
509
-59
-188
-19
-25
-94
-65
-54
-57
-44
-76
-80
-39
-94
-165
-81
32
46
42
54
99
209
270
217
191
251
313
337
327
295
252
182
85
-3
-63
-91
-107
-142
-171
-160
-144
-148
-158
-165
-144
-103
-108
-135
-110
-81
-104
-112
-74
-52
-73
-83
-14
86
76
23
69
37
-66
73
126
-62
227
377
-287
170
973
-1780
-5092
-3419
-654
-1137
-1050
728
685
-228
188
531
218
281
453
351
369
457
417
428
487
455
431
460
410
325
362
439
420
405
486
558
592
646
680
737
861
815
678
774
693
375
649
687
-827
-1885
-592
770
439
-17
170
176
76
184
200
132
176
214
171
124
142
224
203
100
192
285
145
184
240
-60
236
640
-1514
-5170
-6396
-5788
-5623
-4164
-823
1253
1247
1087
1366
1707
1576
211
-1874
-2920
-1743
613
1154
-593
-1159
492
1427
914
723
954
923
886
930
885
895
974
985
927
906
991
987
931
1206
1117
-181
-1050
92
1436
1378
1056
999
799
976
776
-1278
-3127
-1983
325
908
480
510
655
586
578
586
551
589
603
521
478
502
530
516
457
524
636
414
351
918
337
-2947
-6477
-6519
-3075
452
1491
923
866
1112
726
868
1563
240
-2353
-2200
163
926
311
479
886
710
620
753
703
629
682
705
684
657
651
733
729
574
625
710
478
671
1034
-767
-4530
-6410
-5049
-2939
-1272
543
1689
1432
1214
1587
674
-1858
-3222
-1780
500
1312
970
758
772
694
681
741
692
654
737
760
684
682
667
559
594
638
463
549
728
343
487
1194
-535
-4447
-6490
-6401
-5706
-3012
675
1788
1079
1048
1232
1219
1069
-614
-3090
-2863
46
1736
1126
576
874
1000
839
779
756
752
804
793
721
680
678
677
643
609
576
499
518
655
478
-67
-320
-67
292
653
940
902
842
978
787
565
931
277
-2461
-4109
-2222
332
731
227
242
290
138
110
152
146
152
183
189
136
63
64
129
170
165
127
79
90
170
222
207
160
102
69
53
45
153
236
91
210
376
-1358
-4633
-5171
-1784
1025
1000
639
884
530
11
113
249
164
200
255
226
251
282
272
284
275
234
228
242
260
300
335
369
401
423
537
667
636
712
892
658
616
1208
245
-2884
-4078
-1524
865
828
363
473
413
282
377
422
404
458
473
421
439
519
499
427
523
608
453
449
610
411
473
1100
-89
-4259
-7410
-5465
-692
1774
1551
1552
1407
-594
-2754
-3428
-3286
-1987
440
1636
1126
900
1201
1123
949
992
971
887
873
885
891
863
826
846
844
811
841
805
733
860
854
661
1024
944
-1526
-4398
-3953
-1063
1098
1361
-1033
-4896
-4979
-117
2355
-1162
-3834
-1819
-857
-2725
-1716
1998
2863
1425
1252
1719
1551
1375
1305
1202
1326
1363
1159
1163
1182
1004
1144
1156
630
934
1336
-1102
-4912
-6656
-6884
-5372
-898
2149
581
-624
1522
2980
1495
-1014
-3070
-3663
-1825
976
2140
1748
1544
1700
1602
1466
1472
1407
1319
1319
1314
1252
1175
1142
1159
1127
1006
918
944
961
849
796
882
748
613
1024
744
-1421
-3046
-1779
167
598
834
917
-1242
-4279
-4286
-1331
905
1014
612
623
612
496
503
537
518
505
496
472
444
435
441
397
340
369
366
293
346
325
94
305
468
-1723
-5943
-7627
-4526
-348
1217
905
623
799
1063
491
-1644
-4326
-4864
-1962
968
95
-1773
-497
1508
1318
953
1528
1385
610
444
626
606
580
631
604
535
525
543
509
438
427
473
486
457
435
451
498
501
447
484
624
674
633
628
617
595
589
546
615
497
-740
-2372
-2182
-505
191
-259
-388
-230
-331
-381
-266
-224
-165
-12
97
231
510
759
912
1162
1322
926
171
-299
-396
-398
-346
-287
-331
-323
-255
-327
-280
-110
-399
-501
173
-580
-3393
-4207
-1627
275
-110
-423
-98
-86
-99
131
226
244
355
395
335
315
328
301
280
309
311
243
197
229
275
279
266
287
315
301
306
382
436
427
440
490
512
535
610
635
522
441
447
334
305
553
269
-976
-1851
-1296
-220
199
93
74
182
186
131
161
225
242
241
244
238
243
294
364
402
411
407
421
475
484
436
497
567
497
614
820
659
700
871
-71
-830
-66
-540
-2332
-2076
-2344
-5076
-4091
540
863
-1573
-468
1481
920
485
1041
989
795
1020
1064
965
983
1054
1202
1186
1128
1461
1387
970
1834
1938
-1709
-4937
-2889
1322
2758
294
-4056
-6430
-6569
-6788
-4750
-410
-38
-2607
-1787
-190
-1236
-797
1595
1871
981
1215
1359
1008
1133
1342
1221
1240
1481
1686
1794
1732
1571
1532
1516
1530
1766
1507
575
714
1426
-268
-2556
-1386
907
1006
679
633
344
1108
732
-2737
-4078
-1782
-1667
-3013
-1184
937
391
52
760
707
426
700
801
630
628
692
699
707
677
641
680
703
656
669
661
512
541
696
541
603
920
405
269
1405
75
-3754
-3773
-952
-1941
-4115
-2008
871
783
190
474
432
257
416
449
344
355
397
452
522
496
433
463
486
394
409
539
384
328
717
-106
-2330
-2149
697
594
-2344
-1625
1458
31
-3836
-3593
-634
419
30
168
457
418
396
425
407
401
368
346
424
472
424
453
554
564
570
623
624
723
760
365
387
1170
905
-221
18
-179
-2756
-3584
-691
1217
473
100
440
227
78
287
250
131
206
232
158
156
238
281
242
255
318
262
264
399
307
255
469
185
-11
793
206
-2314
-2282
248
-123
-2896
-3295
-1177
336
-752
-2974
-2346
696
1564
298
135
709
615
510
624
518
491
635
618
602
692
652
752
945
601
621
1427
-102
-4358
-5529
-1962
980
1589
1620
-206
-2699
-1190
2185
1336
-1766
-1531
705
1108
491
607
752
533
552
678
583
505
560
594
585
603
632
628
668
744
593
337
493
811
785
801
810
400
602
1196
-298
-2660
-1925
568
1004
286
440
702
633
779
953
1070
1238
1012
475
319
480
504
469
484
479
526
532
465
608
527
-262
-457
305
-984
-4753
-6379
-5384
-6007
-6042
-1630
1072
-2126
-3240
650
1581
-1016
-506
2015
2258
1444
1346
1642
1728
463
-1242
-654
1418
1980
1132
1123
2181
1621
-1760
-5204
-6732
-6222
-2691
1866
3006
1663
1434
1830
1638
1435
1315
1464
1439
-558
-3211
-2804
-185
1025
898
1084
1205
972
960
996
847
866
1004
993
1037
1230
1349
1389
1371
1248
1288
1383
1076
968
1277
874
712
1750
207
-4611
-5860
-2052
434
-259
-1721
-2924
-2149
527
1607
823
748
1132
941
769
820
836
829
789
920
977
572
739
1276
-615
-4604
-6795
-6350
-4546
-1226
1726
1598
813
1839
1268
-1670
-1762
750
146
-3083
-4305
-2953
-734
1141
1699
1277
1055
1403
1545
528
-549
191
1558
1656
1497
1864
1640
904
702
891
919
772
827
1145
886
464
1349
1068
-2985
-5166
-962
2011
-1735
-4308
-968
1199
-712
-1126
834
1357
779
952
1101
859
919
1041
924
854
828
737
672
593
496
478
456
415
435
392
365
481
321
157
693
151
-3178
-5822
-4048
-384
1386
849
-1707
-4157
-2513
1219
547
-3282
-3286
276
1924
1379
1527
2125
1892
1280
858
590
499
527
503
442
424
435
406
339
338
380
363
377
415
328
330
424
227
203
469
-27
-208
982
-112
-4059
-4444
-1018
-272
-1349
-97
1108
380
63
416
269
166
297
227
230
364
319
248
292
317
331
362
355
359
389
380
349
334
351
387
362
345
442
484
477
531
351
210
515
260
-178
903
378
-4558
-7283
-3666
-1332
-3271
-2703
635
1425
770
1219
1112
211
192
593
516
430
523
512
471
491
485
470
515
563
519
471
568
658
629
650
645
578
710
689
406
790
1059
-546
-2103
-1075
450
268
-166
47
60
-77
-12
2
-27
22
26
-9
37
145
134
35
109
128
-19
217
313
-188
366
1024
-1703
-4772
-2795
740
1107
635
736
589
1229
827
-2027
-2915
-1957
-3533
-4206
-1590
-1342
-2922
-1097
1194
587
109
736
661
425
648
642
528
621
628
588
670
689
632
666
740
789
890
996
1006
1016
1099
1141
1112
1097
1078
1029
1004
987
915
765
526
281
189
230
260
276
331
394
452
522
556
543
535
557
590
569
500
534
615
547
493
556
473
442
657
462
-290
-1295
-3029
-4276
-2430
640
386
-2430
-3399
-1490
869
1632
1018
611
934
1199
1143
1084
1018
856
656
461
303
157
-27
-151
-162
-179
-233
-295
-411
-482
-417
-416
-438
-247
-217
-324
148
-138
-3001
-5326
-3057
536
219
-1818
-1370
61
330
710
1216
452
-466
-261
51
-64
-29
46
-56
-70
-12
-49
-104
-67
33
96
238
499
438
326
914
761
-1871
-4704
-4919
-4108
-4310
-4379
-3842
-3835
-3122
-114
2507
1759
-459
-1168
-713
-681
-1126
-820
739
2168
2319
2025
2087
2110
1979
1976
1995
1925
1894
1911
1891
1851
1837
1842
1824
1792
1813
1854
1809
1754
1790
1738
1600
1602
1492
1242
1348
1292
817
1266
1672
-416
-2706
-2104
-740
-249
856
2015
1900
1393
1040
566
332
360
257
154
188
179
114
94
86
57
59
64
-3
-58
-78
-188
-189
-60
-318
-491
65
-565
-3506
-5093
-2659
82
-1367
-5445
-6514
-3181
-622
-1303
-2186
-2949
-4026
-2661
-737
-1910
-2283
574
1984
1030
981
1446
1153
1065
1288
1176
1046
1076
993
909
960
963
893
894
876
779
776
816
744
719
691
525
552
542
172
451
826
-1145
-3613
-2452
368
845
319
635
528
-62
-25
140
-45
-58
115
105
31
128
327
519
753
871
530
-42
-229
-59
6
-49
-31
-27
-74
-53
-34
-54
16
9
-99
53
54
-310
71
453
-1012
-1889
-62
-241
-4676
-6074
30
