# session 6
369
375
374
392
425
441
457
496
531
550
567
566
544
533
516
448
350
259
167
90
43
2
-26
-22
-9
32
103
178
368
712
965
1113
1418
1607
1150
298
-308
-565
-680
-714
-708
-714
-705
-681
-691
-726
-746
-768
-801
-816
-834
-885
-922
-917
-910
-899
-830
-709
-589
-481
-354
-208
-86
-14
35
64
57
39
35
30
20
20
20
14
27
47
40
40
79
92
51
37
72
82
55
46
64
75
56
19
-1
-9
-34
-48
-33
-50
-103
-108
-48
20
46
15
-29
-37
-41
-54
-44
-45
-57
-39
-41
-33
106
264
368
564
611
179
-264
-223
-56
-90
-112
-49
-38
-48
-35
-41
-36
-7
-17
-57
-49
-3
8
-4
15
42
39
59
128
176
179
196
236
249
244
246
227
177
136
107
49
-22
-42
-20
-32
-63
-52
-33
-63
-84
-38
34
70
69
67
64
31
-21
-70
-96
-76
-59
-90
-100
-88
-109
-56
112
232
317
381
166
-242
-363
-191
-98
-122
-143
-155
-133
-94
-115
-155
-136
-98
-78
-53
-36
-37
-30
-3
42
84
87
100
192
279
265
234
287
340
280
161
88
47
-11
-61
-85
-114
-135
-114
-99
-132
-123
-18
102
209
354
559
859
1244
1503
1397
916
308
-87
-169
-172
-250
-302
-286
-291
-323
-345
-368
-387
-398
-426
-481
-537
-586
-633
-676
-704
-717
-718
-700
-646
-557
-451
-329
-183
-41
63
129
164
157
116
83
73
66
52
42
41
49
58
58
54
49
41
35
41
43
27
18
26
21
0
-10
-8
-10
-6
6
2
-11
11
74
122
114
81
62
44
35
54
61
54
85
91
44
126
316
427
654
1000
826
114
-245
-70
27
-47
-36
-10
-45
-53
-45
-61
-62
-48
-59
-79
-80
-74
-74
-73
-56
-32
-15
-2
17
52
96
130
143
150
160
160
138
91
32
-19
-56
-95
-141
-174
-181
-177
-177
-170
-146
-120
-110
-107
-87
-39
4
6
-27
-64
-88
-107
-117
-110
-108
-117
-106
-100
-110
-45
77
176
351
492
234
-233
-345
-164
-91
-111
-87
-78
-91
-80
-68
-53
-22
-2
8
32
48
49
67
100
113
105
118
164
208
231
263
307
327
304
268
245
193
80
-27
-61
-67
-93
-121
-139
-145
-131
-126
-139
-133
-109
-104
-107
-86
-44
-7
3
-23
-64
-87
-88
-81
-73
-73
-71
-63
-78
-71
18
122
225
365
317
-52
-333
-255
-119
-133
-157
-141
-136
-122
-103
-101
-91
-71
-62
-47
-20
-2
4
12
31
58
86
109
134
175
213
232
251
274
271
239
200
147
78
24
-9
-47
-85
-98
-101
-116
-131
-137
-136
-119
-96
-94
-96
-69
-26
-11
-37
-69
-74
-80
-95
-87
-78
-91
-88
-88
-104
-44
63
135
268
348
80
-309
-355
-195
-166
-207
-194
-180
-176
-151
-124
-103
-84
-77
-84
-91
-80
-47
-2
39
70
95
120
148
176
201
226
255
281
294
282
241
186
129
77
41
32
24
-1
-12
-10
-34
-65
-51
-4
57
139
250
451
741
933
993
1186
1472
1369
756
114
-205
-293
-313
-315
-327
-353
-375
-390
-404
-420
-437
-455
-489
-551
-610
-640
-666
-698
-707
-682
-644
-590
-500
-377
-249
-134
-16
108
187
188
154
134
123
112
90
58
37
36
29
25
39
35
7
8
42
48
30
31
39
26
21
31
18
3
29
35
-12
-6
83
138
131
113
74
31
34
52
39
23
36
44
0
-5
135
297
429
653
689
207
-302
-295
-105
-106
-141
-123
-146
-151
-110
-112
-136
-115
-91
-99
-102
-85
-72
-64
-49
-25
3
26
51
85
114
128
137
146
154
159
132
76
34
13
-27
-81
-117
-129
-133
-139
-144
-144
-133
-104
-66
-49
-49
-19
44
85
76
40
10
-7
-17
-3
13
-8
-7
35
27
43
185
307
409
612
573
86
-270
-152
-1
-60
-98
-68
-86
-114
-102
-99
-113
-103
-76
-64
-71
-72
-36
19
41
31
41
89
148
188
212
236
260
269
246
185
110
57
21
-27
-73
-89
-85
-82
-82
-83
-84
-93
-103
-86
-39
-13
-17
5
57
80
52
7
-23
-30
-21
-4
0
-7
10
23
13
91
296
519
734
833
531
-13
-262
-182
-138
-173
-163
-147
-159
-164
-160
-158
-154
-148
-144
-149
-159
-171
-202
-234
-242
-247
-265
-271
-253
-238
-240
-240
-227
-203
-179
-180
-213
-241
-255
-279
-304
-320
-334
-342
-344
-354
-368
-386
-401
-388
-360
-368
-398
-383
-340
-349
-397
-410
-398
-415
-433
-425
-420
-390
-277
-85
214
630
1018
1327
1653
1860
1750
1557
1589
1685
1531
1140
763
549
457
426
416
360
283
278
268
139
-16
-91
-140
-185
-180
-147
-128
-109
-90
-107
-139
-132
-88
-57
-68
-118
-183
-241
-303
-381
-457
-512
-550
-580
-607
-636
-665
-685
-688
-678
-671
-676
-656
-589
-559
-602
-588
-466
-376
-353
-305
-285
-358
-390
-327
-250
-120
75
234
392
505
336
45
83
364
506
530
606
683
734
808
871
907
966
988
862
646
467
338
238
180
145
126
159
241
311
330
317
306
293
253
186
98
0
-78
-137
-211
-279
-301
-297
-286
-259
-216
-148
-59
56
292
614
820
1008
1417
1660
1179
259
-396
-636
-716
-748
-731
-714
-732
-761
-776
-785
-798
-821
-842
-855
-885
-929
-942
-935
-923
-852
-723
-626
-557
-451
-327
-214
-101
0
57
76
71
47
29
35
44
35
26
36
55
71
81
76
54
35
44
70
70
42
44
80
85
68
83
110
114
144
216
265
274
301
346
400
503
597
612
713
976
1188
1319
1384
998
143
-443
-476
-405
-369
-226
-118
-132
-132
-118
-155
-179
-169
-194
-246
-261
-256
-270
-291
-305
-323
-332
-312
-278
-242
-201
-152
-90
-18
38
78
130
175
175
153
139
128
119
114
101
91
102
113
111
105
94
82
85
86
71
59
56
41
22
21
28
21
17
54
123
164
137
86
69
68
57
59
57
48
80
93
61
141
306
440
722
989
653
-37
-241
-46
-39
-144
-116
-88
-136
-146
-124
-142
-168
-160
-158
-176
-158
-115
-106
-108
-82
-60
-58
-32
19
40
24
36
85
105
80
38
-13
-60
-72
-51
-37
-62
-105
-131
-151
-174
-195
-214
-223
-212
-211
-236
-246
-223
-209
-236
-285
-321
-338
-344
-345
-361
-385
-375
-353
-345
-263
-115
-10
138
285
65
-419
-584
-422
-364
-415
-384
-346
-368
-385
-384
-374
-328
-263
-220
-185
-138
-92
-65
-75
-108
-105
-45
26
81
147
227
287
322
364
398
393
375
369
359
355
373
395
418
457
500
534
563
593
640
690
711
730
791
860
884
862
809
744
681
628
621
635
587
488
392
293
237
255
286
343
372
139
-258
-401
-285
-237
-287
-301
-304
-335
-353
-354
-355
-360
-366
-364
-355
-351
-347
-326
-301
-288
-271
-237
-200
-169
-136
-100
-69
-57
-70
-101
-145
-204
-257
-289
-330
-400
-457
-453
-411
-398
-434
-454
-412
-353
-338
-351
-332
-274
-227
-227
-251
-263
-259
-248
-231
-213
-204
-182
-146
-148
-144
-48
68
172
319
295
-60
-354
-288
-145
-152
-177
-148
-130
-125
-113
-101
-88
-66
-33
1
22
40
69
90
96
118
167
224
278
330
376
403
421
439
438
400
341
279
217
170
149
143
145
149
145
143
148
141
141
161
166
160
190
229
213
160
129
118
99
90
98
92
105
159
147
103
210
362
433
611
731
350
-161
-162
75
90
75
220
327
277
176
110
63
17
-14
-34
-61
-92
-113
-138
-190
-278
-422
-674
-977
-1098
-917
-627
-434
-313
-207
-152
-153
-158
-152
-155
-149
-101
-35
-19
-50
-73
-76
-77
-69
-45
-17
28
118
252
372
463
594
784
937
1043
1258
1537
1492
948
281
-115
-248
-287
-326
-376
-414
-449
-496
-528
-549
-595
-636
-644
-655
-697
-747
-783
-812
-815
-772
-720
-686
-621
-498
-369
-250
-120
-2
64
96
130
156
146
117
115
135
147
152
155
149
147
153
147
133
133
137
120
89
75
78
71
48
53
122
192
177
123
109
104
69
53
68
55
45
76
63
45
162
302
418
703
857
392
-216
-271
-68
-82
-145
-110
-101
-118
-99
-88
-98
-87
-58
-50
-53
-32
2
14
22
59
105
155
215
268
295
311
321
324
309
256
186
128
65
1
-48
-94
-107
-44
21
16
12
104
334
638
848
1024
1438
1837
1539
608
-141
-363
-389
-451
-490
-485
-497
-529
-538
-527
-539
-574
-593
-592
-600
-623
-639
-617
-558
-492
-438
-364
-246
-138
-76
-5
69
68
27
30
46
34
12
-3
-5
-12
-52
-81
-67
-81
-141
-158
-121
-99
-98
-84
-57
-31
-14
-8
-14
-23
-26
-23
-16
-5
-17
-52
-53
-19
-26
-58
-26
56
91
50
-16
-44
-32
-24
-27
-23
-13
-7
-27
-38
27
121
217
397
474
169
-225
-268
-116
-75
-93
-84
-86
-90
-80
-73
-66
-68
-82
-71
-34
-12
-9
3
21
30
39
57
82
112
139
153
166
200
246
279
295
300
286
263
250
246
239
235
239
250
269
307
366
411
382
285
208
200
200
139
32
-73
-173
-261
-295
-310
-364
-391
-353
-336
-283
-54
179
237
264
205
-151
-473
-368
-143
-150
-211
-179
-164
-186
-185
-178
-171
-152
-140
-133
-105
-70
-53
-42
-28
-10
23
68
110
144
165
178
199
215
194
138
68
-6
-75
-127
-163
-184
-192
-197
-196
-191
-199
-186
-98
4
5
-53
-49
8
35
17
-6
-17
-24
-21
-5
-9
-16
18
18
-32
53
246
362
558
796
539
-106
-354
-168
-85
-134
-124
-110
-100
-60
-64
-108
-113
-93
-89
-92
-89
-83
-83
-86
-63
-10
45
87
114
139
183
220
225
221
203
141
61
0
-54
-99
-114
-111
-119
-134
-144
-136
-98
-38
35
118
228
457
797
1037
1147
1364
1577
1332
649
37
-269
-397
-424
-391
-393
-422
-397
-357
-378
-430
-470
-506
-533
-556
-606
-668
-709
-733
-747
-742
-709
-646
-540
-395
-266
-177
-75
41
88
63
33
6
-22
-31
-36
-59
-79
-76
-24
88
169
159
178
333
534
632
509
134
-285
-466
-408
-279
-159
-67
-7
38
66
63
53
59
64
52
35
34
45
56
81
124
160
202
287
393
477
542
587
583
534
465
386
301
229
171
108
45
8
-5
-11
-14
-17
-28
-35
-26
-15
-17
-18
-8
-5
-12
-3
14
7
-11
-12
3
21
34
27
9
1
7
11
-12
-53
-61
-42
-56
-97
-100
-51
-1
4
-34
-76
-101
-109
-110
-121
-120
-94
-110
-126
-22
102
214
521
757
368
-289
-447
-250
-217
-295
-293
-272
-270
-253
-239
-233
-217
-203
-207
-203
-179
-166
-166
-146
-116
-96
-66
-18
22
46
70
83
83
87
97
86
58
29
-9
-52
-71
-74
-86
-92
-87
-89
-93
-82
-57
-22
12
41
84
130
142
124
94
46
5
-6
-5
-7
2
22
32
14
18
110
217
291
390
354
18
-286
-226
-61
-59
-85
-55
-48
-58
-57
-67
-68
-40
-19
-26
-28
-6
18
29
52
92
113
127
161
189
196
213
236
228
193
158
113
47
-14
-46
-62
-78
-94
-109
-121
-123
-114
-99
-73
-39
-19
-24
-20
16
43
33
26
44
54
52
64
65
35
19
13
-13
16
112
193
295
369
162
-221
-330
-165
-73
-77
-48
-33
-48
-34
-10
-8
-4
7
13
26
42
43
43
53
64
75
93
110
128
155
175
179
187
199
174
111
49
-5
-67
-129
-159
-151
-145
-166
-183
-178
-175
-170
-140
-114
-113
-106
-76
-46
-49
-91
-128
-136
-133
-127
-127
-146
-135
-104
-135
-118
49
178
257
451
442
-30
-403
-285
-103
-130
-160
-132
-133
-133
-123
-127
-119
-104
-105
-99
-83
-73
-61
-32
-4
18
51
97
139
171
197
217
233
234
190
109
36
-21
-85
-147
-183
-198
-200
-199
-216
-245
-245
-207
-178
-176
-169
-132
-73
-33
-56
-103
-93
-55
-30
33
113
139
163
185
162
225
390
476
569
720
533
-6
-291
-171
-48
-47
-43
-31
-37
-42
-31
-13
-10
-14
3
30
33
21
40
88
110
112
142
173
179
195
229
245
241
215
151
82
51
15
-50
-76
-55
-66
-89
-59
-29
-14
77
214
310
473
782
1065
1287
1606
1809
1447
636
-45
-338
-414
-443
-472
-503
-522
-534
-560
-596
-626
-656
-696
-731
-755
-787
-827
-848
-845
-825
-782
-712
-628
-527
-392
-250
-145
-73
-6
40
57
72
88
89
85
74
55
53
72
77
63
64
77
75
71
76
75
72
78
73
52
44
47
33
15
16
27
32
23
18
58
129
159
134
103
80
59
64
79
60
58
91
66
49
180
330
443
669
721
251
-249
-244
-63
-64
-93
-63
-74
-105
-96
-73
-68
-84
-88
-60
-35
-36
-32
-10
16
36
48
63
115
177
181
162
187
209
173
121
90
60
21
-28
-80
-106
-102
-100
-111
-109
-90
-77
-57
-12
18
9
17
69
108
104
76
45
18
6
14
22
17
29
40
-6
-36
38
133
221
315
199
-178
-392
-263
-129
-150
-166
-148
-152
-143
-118
-119
-125
-104
-79
-69
-50
-18
-2
-3
13
47
64
76
114
154
163
163
172
160
109
52
10
-36
-84
-113
-125
-130
-126
-122
-126
-129
-130
-121
-90
-56
-46
-31
16
60
63
36
6
-10
-14
-11
