# session 242
3
-5
-43
-101
-171
-244
-293
-319
-349
-368
-355
-343
-354
-353
-334
-327
-327
-308
-289
-289
-283
-258
-251
-267
-268
-259
-261
-258
-239
-235
-242
-220
-161
-105
-93
-118
-135
-128
-132
-154
-155
-127
-128
-169
-173
-130
-129
-135
-57
65
274
591
623
145
-305
-305
-179
-193
-202
-155
-139
-132
-103
-82
-64
-38
-19
-3
18
32
36
48
75
110
144
176
217
258
281
301
333
340
304
259
217
152
81
33
8
-10
-27
-36
-39
-44
-48
-38
-20
-22
-37
-32
-15
-20
-28
-19
-6
5
15
1
-7
37
84
79
84
140
172
142
105
81
54
38
40
36
33
38
30
27
46
27
-1
57
157
307
559
604
198
-214
-223
-100
-104
-118
-104
-118
-117
-99
-104
-101
-77
-68
-63
-41
-29
-34
-23
2
30
66
93
113
161
220
235
221
221
217
177
117
62
10
-33
-58
-78
-106
-127
-143
-167
-180
-156
-116
-87
-76
-85
-105
-113
-115
-130
-142
-136
-130
-131
-130
-130
-143
-147
-123
-93
-86
-70
-9
51
59
39
20
-2
-9
-5
-21
-21
-2
-25
-35
-8
-36
-36
52
109
315
601
388
45
21
-833
-2312
-1989
-169
444
-54
-39
187
72
44
128
87
66
110
109
112
147
174
206
253
292
331
377
411
438
466
466
420
352
276
192
118
71
35
-10
-52
-68
-69
-77
-82
-70
-63
-70
-72
-64
-52
-41
-42
-52
-49
-44
-53
-55
-52
-65
-64
-43
-55
-96
-98
-82
-107
-129
-83
-15
7
-5
-36
-78
-81
-45
-31
-41
-40
-50
-56
-21
-29
-92
-41
109
244
482
674
349
-255
-425
-231
-169
-213
-188
-177
-202
-195
-183
-189
-190
-186
-180
-160
-130
-99
-69
-34
5
50
108
170
228
289
333
337
334
345
316
225
129
56
-5
-44
-76
-122
-137
-109
-104
-123
-99
-60
-34
43
164
288
475
700
881
1133
1394
1245
630
28
-286
-407
-433
-420
-414
-389
-348
-333
-311
-260
-244
-297
-364
-407
-434
-454
-466
-463
-439
-395
-329
-237
-135
-44
37
108
146
138
106
76
49
17
-11
-22
-22
-22
-19
-18
-22
-19
-8
0
3
8
12
17
20
18
17
19
19
30
42
29
-2
-12
11
37
38
33
48
60
51
49
57
46
23
16
9
-10
-16
-8
1
20
42
42
26
7
-12
-27
-36
-45
-48
-43
-43
-42
-25
-13
-28
-36
-3
34
31
32
87
145
146
115
87
66
54
48
61
78
51
39
81
54
26
131
183
275
596
521
17
5
-174
-1314
-1608
-325
359
-79
-178
45
-25
-74
-2
-29
-37
21
32
31
58
88
132
178
193
201
225
254
280
296
299
292
276
246
204
152
91
30
-23
-60
-83
-97
-105
-118
-132
-134
-126
-124
-129
-129
-127
-122
-115
-123
-146
-159
-148
-124
-116
-126
-106
-39
-3
-31
-60
-72
-97
-104
-73
-61
-82
-95
-88
-58
-27
-52
-70
12
143
352
636
592
58
-361
-300
-159
-183
-184
-127
-118
-130
-126
-124
-135
-148
-149
-132
-117
-105
-77
-41
-7
34
90
149
207
266
319
358
379
376
335
258
178
110
38
-19
-39
-54
-85
-107
-106
-100
-93
-86
-93
-101
-87
-79
-92
-79
-47
-43
-11
107
233
368
582
781
915
1143
1367
1210
665
127
-160
-241
-248
-260
-277
-286
-312
-335
-335
-346
-373
-384
-405
-453
-494
-524
-569
-609
-625
-621
-590
-512
-396
-264
-130
-3
102
168
192
182
150
113
85
76
74
58
32
18
9
4
16
31
27
16
12
16
23
15
-11
-23
-8
10
22
32
37
38
48
58
51
29
18
21
9
-28
-62
-83
-107
-121
-103
-81
-100
-125
-89
-25
-5
-27
-53
-69
-67
-57
-53
-34
-2
-1
8
58
53
30
133
261
385
702
892
461
-132
-217
-70
-97
-138
-106
-128
-148
-107
-86
-94
-86
-90
-105
-87
-58
-46
-23
4
11
37
99
148
185
243
278
268
268
275
244
197
159
109
56
34
19
-24
-74
-95
-92
-87
-73
-50
-28
29
120
197
340
607
840
1035
1345
1474
1029
335
-86
-254
-348
-380
-396
-431
-439
-435
-450
-448
-432
-439
-452
-450
-461
-491
-507
-512
-517
-495
-440
-377
-294
-176
-70
-9
33
77
98
65
14
8
36
31
7
8
0
-40
-54
-28
-25
-51
-64
-59
-52
-42
-38
-54
-76
-93
-110
-118
-113
-104
-91
-70
-55
-51
-38
-15
0
5
13
25
30
23
15
19
31
38
26
5
1
12
10
6
40
92
102
70
48
43
35
26
24
29
31
17
11
20
5
6
98
220
326
409
272
-108
-312
-176
-36
-35
-17
20
10
1
3
-22
-45
-37
-25
-23
-15
-1
12
26
44
65
94
131
172
212
251
280
293
287
268
240
204
154
92
29
-18
-48
-72
-87
-87
-85
-84
-77
-74
-76
-65
-37
4
67
127
211
423
723
966
1252
1663
1786
1237
368
-211
-391
-420
-430
-420
-417
-439
-440
-426
-458
-486
-496
-603
-734
-696
-587
-587
-618
-591
-562
-520
-420
-305
-205
-97
0
48
52
38
23
1
-31
-52
-41
-32
-54
-69
-51
-47
-62
-52
-35
-50
-58
-29
-12
-35
-45
-29
-40
-66
-47
-8
-15
-45
-48
-38
-36
-42
-43
-28
-8
0
-7
-28
-48
-39
-21
-34
-55
-33
27
83
101
80
62
69
86
108
138
149
129
117
146
144
83
110
262
401
589
785
562
-29
-314
-174
-86
-132
-120
-92
-103
-97
-87
-93
-86
-73
-74
-67
-53
-45
-32
-9
12
37
74
118
175
242
277
261
248
278
295
244
170
115
58
11
6
-1
-39
-62
-64
-73
-58
-29
-58
-109
-104
-97
-103
-32
92
208
401
653
843
1062
1306
1189
616
38
-260
-385
-427
-408
-392
-390
-377
-368
-366
-358
-362
-391
-423
-447
-477
-511
-538
-561
-580
-571
-515
-418
-304
-173
-27
99
166
172
150
124
90
48
28
29
16
0
17
40
36
25
20
9
-4
-1
17
31
24
12
20
51
76
79
66
47
23
-4
-15
-3
8
1
-10
-13
-18
-29
-21
2
-3
-19
16
70
69
35
10
-16
-40
-43
-42
-39
-33
-41
-45
-24
-33
-44
40
162
311
572
650
244
-219
-257
-124
-126
-143
-111
-115
-133
-123
-118
-119
-117
-114
-108
-96
-80
-57
-32
-15
-3
6
26
73
123
137
140
177
230
247
223
183
129
60
-11
-68
-109
-137
-154
-160
-157
-149
-144
-134
-99
-62
-32
33
139
264
467
741
959
1181
1486
1538
1037
312
-159
-340
-400
-414
-409
-408
-418
-430
-422
-406
-417
-438
-440
-453
-480
-491
-508
-538
-531
-474
-393
-293
-173
-53
51
127
168
183
181
166
142
115
90
73
54
29
15
17
26
50
80
85
125
294
531
718
888
1050
1034
751
374
145
112
94
-43
-197
-246
-247
-262
-261
-256
-290
-330
-339
-353
-375
-371
-380
-425
-421
-382
-421
-500
-506
-457
-401
-326
-232
-143
-68
4
70
96
95
112
127
103
74
71
77
86
91
75
50
35
25
24
38
45
40
36
25
0
-10
6
17
16
18
28
36
39
39
44
50
56
64
71
71
69
73
81
80
74
69
57
51
57
49
31
44
53
14
-10
13
17
-8
-23
-30
-30
-33
-53
-28
53
81
41
29
40
30
17
10
9
9
4
30
62
18
14
187
396
578
746
581
33
-294
-183
-78
-128
-129
-91
-93
-95
-95
-106
-102
-91
-87
-75
-61
-58
-46
-20
1
31
71
104
139
192
240
268
270
243
220
210
165
93
41
-5
-66
-116
-141
-157
-172
-184
-183
-176
-181
-188
-181
-165
-157
-160
-155
-141
-140
-123
-60
-25
-54
-79
-99
-151
-191
-193
-191
-174
-141
-131
-119
-109
-149
-156
-59
48
185
361
265
-144
-360
-221
-107
-130
-116
-70
-61
-50
-24
-16
-21
-26
-31
-22
4
21
27
52
87
108
146
210
266
311
346
345
331
331
284
179
102
71
27
-24
-41
-41
-52
-63
-52
-34
-37
-50
-43
-29
-36
-39
6
58
56
49
106
162
141
91
53
11
-17
-16
-15
-22
-15
-13
-22
-5
-2
-43
-26
73
188
363
479
233
-197
-315
-170
-121
-167
-166
-154
-164
-163
-147
-134
-123
-114
-99
-82
-71
-61
-41
-13
16
39
63
105
161
210
241
250
243
232
213
157
75
6
-40
-81
-107
-101
-98
-129
-165
-177
-169
-149
-127
-116
-116
-125
-145
-153
-143
-145
-161
-143
-95
-73
-89
-105
-114
-115
-97
-75
-62
-41
-25
-28
-6
14
-26
-18
88
197
426
766
701
133
-250
-186
-105
-153
-153
-119
-122
-129
-118
-103
-88
-78
-67
-46
-31
-27
-7
35
72
93
123
174
227
270
308
339
346
326
292
243
179
119
72
30
-12
-45
-61
-59
-58
-74
-88
-83
-74
-84
-95
-90
-94
-122
-134
-105
-80
-85
-66
-6
20
-7
-25
-30
-60
-80
-70
-69
-69
-51
-52
-57
-41
-63
-56
87
241
412
701
696
130
-343
-277
-130
-175
-182
-152
-197
-203
-137
-119
-137
-120
-98
-109
-115
-92
-68
-62
-53
-19
30
82
150
232
290
303
294
279
233
141
40
-36
-91
-127
-141
-146
-145
-131
-108
-87
-73
-69
-69
-64
-62
-62
-55
-60
-81
-83
-63
-74
-102
-73
-5
18
-12
-34
-39
-53
-62
-57
-55
-46
-33
-45
-43
-12
-22
-27
69
179
292
473
439
25
-298
-227
-98
-114
-110
-62
-61
-68
-27
27
57
64
58
43
28
26
40
54
64
82
113
154
201
249
294
326
339
329
291
228
154
77
3
-36
-42
-68
-113
-119
-95
-88
-99
-103
-98
-88
-80
-77
-74
-67
-69
-85
-97
-94
-89
-90
-79
-46
-15
-12
-28
-45
-53
-54
-52
-53
-59
-75
-98
-95
-72
-102
-150
-101
9
209
607
820
379
-256
-399
-260
-264
-306
-268
-253
-256
-230
-207
-193
-165
-138
-114
-83
-47
-16
10
32
60
99
135
165
201
239
264
276
275
253
210
149
78
21
-25
-68
-81
-73
-80
-92
-86
-75
-73
-83
-84
-56
-26
-22
-18
-1
3
-10
-11
0
2
-5
5
49
82
79
97
146
152
104
64
34
8
0
-4
-14
-15
-19
-28
-17
-32
-74
-40
60
187
438
619
333
-180
-334
-195
-153
-191
-175
-165
-182
-171
-145
-133
-124
-110
-100
-95
-83
-65
-45
-20
11
39
62
79
97
137
188
217
225
223
197
142
86
39
-6
-45
-72
-96
-119
-135
-148
-161
-155
-129
-104
-77
-40
-21
-1
56
102
167
358
565
688
948
1298
1216
632
76
-202
-329
-336
-250
-206
-235
-265
-289
-320
-339
-343
-354
-379
-403
-422
-449
-486
-507
-507
-494
-441
-335
-222
-113
3
79
95
117
136
87
32
44
53
15
-5
17
35
40
47
50
45
46
50
46
50
72
88
86
83
88
89
79
66
60
62
67
68
58
43
37
29
12
17
39
24
-18
-25
-3
12
16
13
7
13
19
19
25
27
9
-1
2
-13
-27
-7
-3
-34
-20
52
98
97
79
47
21
19
7
-11
-2
9
19
31
-14
-36
101
268
408
664
742
292
-236
-321
-141
-84
-305
-569
-459
-114
-23
-117
-105
-79
-119
-119
-89
-85
-79
-63
-46
-10
35
73
124
193
256
301
335
357
356
332
288
225
155
90
30
-27
-70
-88
-99
-119
-136
-142
-148
-155
-153
-141
-136
-131
-118
-117
-138
-148
-135
-138
-165
-166
-119
-57
-22
-36
-78
-105
-112
-120
-119
-95
-68
-64
-72
-52
-27
-27
26
140
248
450
674
480
-62
-307
-175
-112
-164
-150
-127
-145
-145
-130
-121
-106
-92
-82
-60
-35
-17
6
29
47
74
114
161
217
267
291
308
325
311
260
188
98
13
-30
-55
-90
-111
-106
-105
-124
-144
-132
-95
-80
-91
-92
-76
-59
-46
-42
-41
-54
-88
-108
-97
-101
-111
-65
9
29
-5
-43
-74
-94
-105
-111
-101
-79
-85
-96
-61
-49
-79
-16
122
251
520
782
542
-19
-214
-63
-24
-87
-73
-46
-62
-71
-70
-68
-55
-43
-47
-46
-26
-2
5
8
43
103
144
171
221
272
307
340
346
312
278
236
154
78
44
15
-19
-32
-25
-8
21
41
34
9
-15
-31
-42
-52
-64
-68
-62
-63
-81
-101
-102
-83
-70
-82
-78
-28
12
-11
-56
-89
-122
-142
-144
-149
-148
-133
-140
-151
-125
-130
-155
-88
26
159
409
523
165
-288
-336
-198
-200
-228
-193
-182
-193
-197
-202
-185
-149
-141
-146
-122
-90
-76
-65
-41
-10
7
8
34
98
149
169
189
204
181
126
55
-26
-100
-153
-184
-203
-213
-214
-207
-197
-181
-159
-140
-121
-95
-73
-52
-14
18
39
86
155
279
516
736
870
1174
1598
1559
918
231
-149
-316
-365
-357
-366
-382
-374
-359
-355
-364
-373
-360
-350
-366
-383
-386
-394
-402
-393
-373
-337
-267
-163
-44
73
171
238
282
309
303
259
200
152
118
95
82
74
69
67
71
80
86
87
89
94
94
89
90
94
96
96
93
86
78
74
78
77
57
26
22
42
52
49
57
66
58
49
48
40
40
49
38
16
28
75
113
118
93
57
36
37
33
29
50
59
32
28
30
-25
-34
59
151
366
724
676
65
-377
-326
-249
-320
-341
-330
-361
-373
-363
-372
-376
-365
-361
-356
-343
-326
-303
-276
-253
-230
-201
-166
-137
-114
-93
-75
-64
