# session 181
-9
38
92
217
364
448
549
723
881
1077
1405
1586
1287
709
297
159
138
131
119
106
95
72
33
-3
-26
-38
-31
-14
-5
-1
6
23
36
25
8
-6
-29
-36
4
71
158
268
372
462
522
499
421
375
332
246
191
185
132
43
30
78
92
54
21
34
78
89
57
49
53
21
-2
13
3
-43
-63
-54
-62
-96
-144
-195
-244
-281
-297
-308
-319
-338
-384
-405
-363
-366
-406
-321
-172
-37
210
320
-92
-606
-637
-447
-431
-451
-394
-368
-370
-345
-318
-301
-281
-258
-234
-206
-175
-129
-74
-30
1
38
87
131
164
200
233
254
276
296
293
267
223
143
46
-15
-52
-97
-129
-134
-135
-133
-124
-130
-160
-189
-181
-134
-101
-107
-115
-127
-153
-131
-51
-23
-60
-63
-29
-15
7
73
153
215
297
441
549
570
758
1202
1405
1000
357
-51
-184
-190
-171
-187
-224
-252
-284
-320
-342
-362
-385
-380
-342
-310
-304
-300
-285
-269
-249
-233
-242
-250
-209
-123
-36
30
90
170
254
292
278
239
207
212
230
225
230
265
287
288
282
260
242
242
235
213
189
150
100
61
47
52
60
75
129
206
234
186
113
70
63
51
20
18
49
58
75
142
164
131
184
299
400
593
742
499
84
9
163
173
91
79
74
17
-52
-118
-190
-260
-306
-338
-386
-438
-463
-477
-497
-505
-489
-460
-424
-382
-339
-305
-275
-231
-184
-169
-180
-185
-191
-226
-273
-294
-278
-250
-233
-225
-224
-228
-215
-188
-169
-138
-86
-60
-45
4
43
33
46
110
172
225
283
309
303
319
371
451
555
633
718
950
1225
1175
709
168
-145
-227
-211
-198
-210
-210
-184
-172
-199
-243
-279
-300
-324
-366
-398
-408
-417
-424
-429
-449
-461
-436
-399
-357
-281
-186
-102
-22
48
80
78
76
64
22
-13
-18
-18
-15
9
37
58
58
34
31
30
-15
-19
62
100
63
63
102
106
87
61
19
-10
-20
-53
-89
-69
-11
17
15
18
25
31
49
60
59
65
58
37
51
56
15
40
137
227
433
667
484
-17
-234
-127
-72
-92
-73
-55
-49
-44
-64
-58
-15
-14
-51
-58
-49
-55
-65
-71
-58
-18
16
39
83
159
242
305
344
381
421
438
424
386
324
250
170
75
-12
-51
-48
-34
-24
-10
26
72
88
112
219
333
385
549
849
998
1012
1141
1153
725
159
-160
-289
-353
-361
-372
-411
-429
-431
-446
-463
-483
-519
-555
-581
-606
-615
-607
-618
-647
-647
-622
-594
-543
-450
-335
-229
-150
-85
-17
15
-9
-28
-15
-8
-8
4
-5
-36
-29
18
36
12
-9
-9
-9
-14
-28
-59
-85
-87
-98
-135
-149
-117
-70
-31
-7
4
20
41
42
36
52
63
42
26
33
23
-11
-35
-41
-50
-65
-69
-49
-26
-37
-74
-103
-118
-137
-168
-189
-191
-212
-239
-215
-203
-236
-147
82
270
467
664
482
-11
-190
-3
88
55
104
159
156
167
186
197
230
242
192
147
140
136
133
144
143
135
158
210
272
339
401
442
461
453
436
455
496
486
409
318
230
127
39
-1
-12
-28
-39
-37
-17
41
108
156
238
352
494
781
1037
1113
1426
1527
480
-195
410
-873
-4067
-3931
-640
483
-473
-442
-72
-344
-409
-276
-376
-434
-433
-532
-588
-573
-575
-555
-496
-409
-276
-134
-23
73
152
192
195
177
160
154
145
117
71
26
4
-9
-38
-49
-11
19
-13
-53
-41
-19
-33
-54
-50
-34
-24
-20
-24
-29
-13
10
5
-8
19
54
40
19
37
52
45
51
56
37
32
53
59
46
72
155
241
279
276
249
200
169
196
228
193
115
61
45
24
1
48
143
227
397
575
387
-83
-264
-85
28
-16
-29
4
4
-31
-68
-78
-73
-91
-131
-154
-162
-190
-224
-215
-179
-156
-122
-56
9
52
92
136
172
197
199
146
45
-42
-94
-160
-257
-310
-254
-146
-87
-76
-55
-23
3
42
78
70
38
25
38
90
159
228
387
629
799
952
1136
1024
505
23
-166
-241
-299
-308
-308
-324
-327
-324
-326
-328
-339
-357
-372
-393
-432
-474
-518
-567
-603
-605
-562
-475
-371
-265
-132
23
141
207
267
310
295
257
247
232
190
161
150
134
124
120
95
65
49
37
28
29
16
-7
-12
-7
-1
20
36
23
-1
-5
16
47
54
21
-22
-62
-108
-141
-130
-102
-104
-122
-97
-28
10
-13
-35
-27
-19
-23
-24
-11
26
60
78
97
84
63
151
307
486
764
845
372
-193
-252
-92
-125
-168
-82
-36
-44
-5
27
-10
-62
-83
-92
-104
-108
-93
-70
-54
-34
-7
7
17
59
119
154
157
140
111
84
58
17
-30
-64
-98
-154
-217
-255
-257
-241
-233
-219
-139
-16
91
279
580
801
960
1216
1249
697
-27
-348
-345
-324
-331
-322
-312
-319
-348
-380
-391
-403
-430
-451
-457
-476
-509
-524
-524
-516
-451
-335
-255
-201
-88
58
158
223
261
221
120
47
20
5
-4
4
29
64
92
105
132
188
223
264
437
709
901
1014
1145
1184
1016
759
529
310
82
-138
-318
-415
-448
-475
-500
-498
-472
-432
-388
-341
-300
-293
-325
-355
-367
-383
-407
-427
-431
-396
-328
-267
-230
-202
-154
-66
45
147
226
283
327
385
444
444
390
367
397
410
382
366
361
314
232
166
126
102
93
82
64
49
30
12
24
55
52
8
-58
-135
-192
-213
-228
-261
-290
-309
-329
-343
-345
-346
-341
-325
-320
-347
-379
-378
-356
-353
-357
-324
-271
-238
-214
-198
-220
-243
-202
-133
-112
-119
-97
-47
-12
-7
14
92
183
226
221
204
205
220
218
207
218
236
255
272
249
240
347
488
599
745
700
265
-106
-32
126
92
63
83
23
-54
-69
-76
-93
-95
-87
-69
-39
-22
-23
-19
-7
12
56
119
165
192
234
300
355
378
380
376
356
304
230
158
95
27
-46
-99
-120
-120
-117
-125
-153
-165
-145
-161
-225
-251
-239
-262
-307
-342
-370
-353
-291
-274
-297
-268
-194
-145
-115
-76
-39
-23
-12
27
60
28
20
116
229
363
527
433
20
-228
-101
39
9
-30
-30
-41
-39
-12
5
11
14
11
6
4
-1
-7
-9
-7
9
46
95
144
189
223
254
282
292
280
244
161
40
-70
-147
-209
-255
-286
-320
-348
-350
-341
-335
-313
-288
-301
-327
-305
-268
-284
-307
-253
-174
-159
-184
-205
-232
-241
-203
-151
-99
-33
11
36
77
87
58
106
224
345
527
615
331
-55
-88
74
92
38
46
64
78
104
113
109
112
106
93
102
121
132
143
156
158
149
129
104
94
108
156
239
309
327
323
329
319
270
194
107
18
-49
-78
-90
-100
-99
-105
-145
-194
-220
-238
-243
-211
-174
-164
-148
-105
-61
-49
-74
-110
-120
-114
-126
-148
-164
-171
-159
-120
-77
-104
-170
-129
-5
104
292
449
219
-189
-231
-24
33
15
79
115
79
50
45
46
61
72
56
27
13
20
30
28
19
28
81
162
209
211
229
273
287
256
206
141
71
18
-27
-54
-32
-6
-26
-41
-11
-1
-43
-73
-64
-70
-109
-138
-136
-134
-155
-172
-153
-119
-105
-114
-128
-145
-163
-174
-169
-151
-130
-131
-143
-124
-111
-134
-95
8
88
254
461
304
-157
-349
-234
-191
-213
-161
-144
-187
-192
-182
-208
-237
-245
-231
-177
-88
-2
71
140
198
251
324
406
458
486
520
555
560
498
365
223
149
135
105
22
-60
-85
-80
-88
-111
-156
-215
-230
-212
-230
-269
-280
-273
-256
-214
-194
-234
-259
-198
-119
-98
-99
-81
-62
-44
-12
21
52
85
92
96
129
132
105
172
299
409
606
756
512
79
-43
62
78
34
34
38
26
-1
-37
-69
-111
-140
-123
-112
-145
-161
-132
-107
-95
-57
11
62
72
80
115
134
116
105
108
78
22
-20
-43
-48
-39
-51
-88
-95
-61
-38
-26
14
62
66
32
-1
-16
-27
-31
-18
-10
-26
-25
16
33
-7
-52
-79
-115
-141
-132
-113
-102
-101
-106
-95
-75
-96
-108
-34
68
213
427
425
53
-269
-255
-173
-198
-212
-201
-218
-221
-201
-194
-185
-166
-153
-128
-77
-27
3
29
54
69
96
152
210
241
251
252
256
254
230
197
184
173
135
76
19
-30
-76
-111
-126
-120
-118
-131
-137
-122
-107
-110
-126
-148
-173
-180
-151
-108
-89
-78
-22
55
91
96
100
82
59
66
73
44
10
-18
-38
-31
-37
-65
-15
109
236
385
404
94
-249
-244
-79
-46
-66
-38
-17
-15
-11
-14
-10
-3
-12
-11
26
59
61
71
106
141
173
209
248
286
324
358
375
365
329
281
228
167
101
36
-14
-40
-53
-70
-83
-91
-108
-121
-120
-133
-164
-158
-112
-93
-107
-106
-105
-132
-154
-152
-144
-117
-69
-56
-80
-81
-65
-50
-8
21
-18
-65
-78
-91
-108
-132
-148
-97
-5
152
474
663
304
-236
-337
-168
-160
-239
-228
-203
-213
-217
-221
-229
-206
-162
-136
-133
-134
-135
-132
-113
-77
-34
12
66
119
162
200
234
247
234
210
177
127
80
50
33
29
38
40
26
9
-2
3
8
-13
-33
-19
-13
-40
-52
-48
-70
-89
-69
-54
-66
-52
1
34
11
-42
-75
-77
-66
-62
-65
-51
-34
-44
-54
-55
-89
-94
15
175
359
519
377
-54
-283
-175
-94
-148
-169
-151
-152
-148
-136
-130
-117
-101
-102
-115
-120
-108
-91
-68
-34
-19
-11
82
273
514
812
1056
1058
894
761
652
513
392
292
181
90
35
-16
-69
-101
-108
-106
-102
-100
-105
-111
-111
-127
-166
-194
-220
-278
-318
-286
-242
-233
-219
-162
-12
224
382
467
731
1035
899
360
-106
-327
-409
-403
-375
-392
-422
-432
-433
-425
-407
-395
-399
-415
-435
-454
-476
-507
-540
-563
-562
-534
-500
-461
-381
-265
-155
-48
63
136
168
197
200
160
141
152
128
90
100
134
143
128
116
123
142
157
161
165
180
188
164
131
116
104
86
74
64
47
31
33
62
102
126
120
79
59
131
225
223
153
90
40
32
85
115
77
47
55
50
26
15
18
2
-30
0
82
65
-12
57
226
426
816
1123
789
134
-81
29
-17
-138
-157
-174
-210
-217
-236
-261
-264
-267
-257
-210
-163
-130
-95
-57
5
86
127
138
173
212
241
298
337
308
259
211
124
16
-70
-141
-204
-232
-228
-238
-275
-304
-315
-328
-336
-317
-285
-274
-283
-297
-306
-302
-279
-245
-214
-189
-165
-122
-59
-19
-27
-40
-49
-75
-84
-52
-38
-54
-47
-35
-34
-11
10
26
104
220
360
522
437
-8
-317
-191
-25
-66
-94
-38
-15
-8
33
63
58
42
35
32
30
35
52
72
83
91
104
130
168
211
252
294
333
346
328
295
243
167
96
42
-8
-31
-23
-24
-39
-42
-58
-103
-125
-99
-78
-55
13
70
119
305
572
732
941
1318
1377
778
34
-311
-390
-474
-532
-527
-545
-596
-604
-573
-556
-530
-482
-480
-522
-532
-527
-558
-581
-574
-583
-579
-500
-393
-303
-198
-75
18
76
105
95
55
14
-10
8
78
154
209
260
298
291
260
242
237
236
236
237
236
234
231
229
221
201
190
192
179
157
154
150
127
113
120
116
98
91
91
85
83
82
65
42
34
42
47
19
-30
-47
-25
-11
-15
-7
31
88
122
121
121
132
131
123
120
134
157
166
177
194
162
130
198
299
438
723
831
412
-84
-127
2
-51
-126
-111
-133
-201
-235
-243
-257
-278
-300
-311
-318
-337
-346
-336
-347
-374
-369
-345
-344
-346
-314
-268
-247
-254
-272
-278
-251
-231
-271
-311
-272
-225
-236
-237
-209
-224
-271
-278
-236
-172
-107
-58
-30
-12
-6
-12
-15
-18
-20
-3
27
34
32
70
125
138
117
102
96
97
114
136
144
137
109
72
71
85
48
41
134
246
382
525
391
-22
-232
-119
-38
-59
-25
4
-23
-21
3
2
14
42
46
47
65
79
95
131
171
210
251
286
328
393
444
448
439
440
410
336
278
252
198
104
27
-1
1
19
48
62
60
67
67
25
-39
-86
-115
-133
-147
-156
-122
-33
82
262
506
686
844
1153
1377
1066
366
-163
-351
-401
-424
-434
-461
-492
-499
-500
-514
-541
-570
-586
-595
-613
-644
-682
-706
-702
-690
-683
-657
-614
-559
-463
-325
-195
-100
-24
51
107
105
53
23
37
47
40
48
66
77
82
91
101
109
122
142
153
146
140
149
162
175
192
210
211
194
187
198
199
178
152
128
103
76
42
-1
-39
-70
-100
-123
-133
-154
-179
-141
-48
-7
-31
-36
-23
-19
38
140
169
126
114
146
157
103
38
85
220
340
524
679
422
-116
-323
-152
-38
-49
-18
3
-51
-84
-39
26
55
50
41
38
32
25
30
39
49
79
132
192
241
271
300
329
326
307
325
340
284
192
120
48
-33
-103
-168
-234
-292
-341
-375
-387
-382
-342
-279
-229
-108
150
376
527
829
1126
867
85
-566
-767
-724
-662
-655
-683
-677
-643
-619
-554
-445
-371
-319
-250
-229
-284
-363
-438
-473
-418
-328
-275
-219
-126
-48
6
82
167
204
192
163
127
92
71
54
30
15
12
8
12
20
9
6
47
132
276
473
665
864
1038
986
712
533
517
406
153
-40
-86
-44
11
30
28
38
55
68
86
