# session 145
-33
-138
-196
-241
-285
-275
-209
-131
-28
120
260
349
416
469
468
421
378
344
314
309
310
286
259
251
250
230
184
153
168
180
146
102
79
73
85
92
63
45
101
181
198
160
124
105
92
82
70
40
20
35
23
-14
40
143
261
575
866
557
-113
-351
-187
-142
-207
-188
-163
-179
-176
-166
-174
-174
-159
-157
-158
-133
-99
-81
-48
34
123
168
191
218
233
218
165
85
21
-28
-98
-154
-149
-126
-129
-131
-105
-57
2
39
54
115
225
333
475
642
736
838
1022
1008
617
143
-149
-305
-380
-387
-402
-433
-431
-430
-460
-483
-496
-528
-559
-576
-611
-643
-625
-578
-521
-414
-270
-143
-38
61
130
153
130
80
51
64
71
37
12
33
54
52
60
69
55
42
51
55
40
24
17
9
-2
9
34
33
32
75
116
99
61
46
43
30
16
9
-9
-35
-30
-27
-63
-42
56
129
246
391
243
-165
-334
-198
-113
-135
-123
-105
-118
-122
-119
-118
-104
-85
-72
-64
-52
-29
3
43
95
141
175
219
264
276
266
241
185
114
58
12
-29
-61
-83
-95
-95
-90
-91
-93
-88
-76
-51
-5
30
11
-37
-62
-67
-78
-84
-77
-89
-111
-101
-98
-115
-32
132
241
342
380
108
-275
-310
-120
-84
-146
-123
-76
-71
-68
-64
-74
-62
-19
9
12
29
74
140
201
240
286
356
395
371
329
289
219
116
15
-48
-68
-80
-102
-102
-62
-10
23
60
186
435
707
962
1349
1842
1962
1339
365
-250
-384
-401
-462
-475
-461
-489
-515
-512
-535
-578
-602
-634
-683
-706
-709
-711
-668
-551
-399
-251
-104
43
139
143
105
86
72
39
8
-5
-13
-26
-39
-44
-50
-64
-73
-76
-87
-103
-113
-115
-114
-121
-129
-123
-112
-111
-112
-109
-103
-100
-114
-133
-100
-11
53
44
6
-6
-9
-28
-31
-15
-15
-1
10
-33
-9
136
251
414
667
550
-20
-339
-181
-57
-119
-130
-89
-101
-124
-116
-88
-56
-41
-45
-36
-2
43
79
116
167
227
280
322
340
327
307
290
245
175
117
79
48
25
5
-14
-25
-34
-36
-22
-5
-8
-17
-4
30
54
34
-20
-53
-51
-47
-49
-43
-44
-37
-22
-48
-61
19
117
216
371
344
-10
-282
-207
-84
-97
-107
-89
-97
-92
-73
-77
-72
-46
-37
-37
-14
21
53
83
117
167
227
266
275
270
257
218
153
88
38
-2
-24
-24
-21
-35
-51
-53
-49
-44
-34
-37
-44
-12
39
32
-32
-87
-112
-129
-139
-144
-156
-156
-126
-127
-177
-151
-29
84
248
409
221
-228
-386
-227
-159
-207
-194
-174
-193
-192
-181
-185
-184
-177
-168
-144
-113
-84
-47
7
60
107
166
233
271
270
256
232
173
89
24
-9
-30
-50
-69
-85
-89
-79
-71
-75
-84
-89
-73
-26
14
6
-32
-51
-41
-45
-68
-69
-60
-49
-4
6
-50
1
180
314
421
438
118
-291
-297
-82
-51
-104
-73
-47
-53
-43
-62
-104
-90
-40
-32
-54
-48
-6
50
108
167
233
303
359
377
350
291
229
168
86
1
-37
-39
-54
-71
-77
-96
-102
-64
-47
-87
-113
-69
13
63
35
-36
-68
-58
-56
-66
-75
-86
-67
-16
4
52
220
413
577
701
497
-71
-418
-317
-220
-288
-288
-232
-236
-250
-238
-233
-229
-222
-220
-216
-207
-198
-183
-159
-123
-76
-19
44
89
105
113
120
99
58
28
-1
-35
-45
-28
-22
-40
-53
-34
-12
-17
-14
34
123
239
337
420
592
811
923
1069
1424
1657
1371
712
93
-266
-383
-402
-426
-451
-455
-451
-453
-465
-483
-511
-554
-601
-656
-710
-727
-715
-695
-625
-481
-316
-172
-42
51
88
94
102
101
80
58
48
49
61
72
73
82
98
84
50
49
75
81
58
32
28
40
36
23
54
119
153
146
126
102
86
80
73
69
65
64
63
26
-3
65
172
303
521
544
131
-276
-257
-104
-115
-152
-135
-136
-144
-135
-138
-145
-139
-141
-149
-132
-92
-53
-15
28
69
115
171
218
242
246
233
204
162
107
53
16
-10
-29
-38
-45
-65
-91
-90
-58
-50
-73
-63
-10
12
-12
-47
-89
-126
-128
-114
-119
-132
-123
-112
-137
-146
-82
6
128
272
189
-177
-389
-253
-100
-98
-99
-63
-48
-35
-17
-10
-7
2
13
19
23
40
72
104
146
209
271
314
350
372
359
314
250
175
102
47
19
13
7
-5
-12
-19
-24
-6
19
6
-20
3
48
43
-1
-26
-28
-45
-69
-60
-56
-92
-92
-51
-68
-80
11
131
312
532
410
-87
-360
-233
-134
-173
-163
-131
-143
-148
-140
-148
-154
-149
-134
-109
-87
-77
-54
-1
59
110
170
225
238
227
218
187
119
42
-31
-91
-117
-125
-141
-156
-163
-182
-205
-188
-154
-167
-194
-150
-77
-67
-111
-154
-167
-162
-163
-167
-170
-176
-141
-95
-129
-122
51
206
279
361
238
-160
-362
-210
-92
-123
-117
-83
-86
-86
-84
-81
-47
-11
-3
9
36
64
110
182
255
312
362
415
461
461
394
296
213
134
39
-18
-12
-30
-92
-103
-71
-72
-75
-51
-52
-71
-36
56
175
294
379
485
660
799
916
1207
1497
1314
694
123
-185
-326
-372
-376
-394
-409
-405
-423
-471
-513
-546
-580
-604
-631
-681
-726
-737
-733
-708
-614
-464
-320
-185
-33
87
126
123
124
127
118
98
88
89
81
67
71
89
89
75
65
55
48
43
15
-21
-25
-27
-57
-50
20
77
73
31
-11
-29
-23
-7
-7
-25
-10
11
-36
-43
76
166
294
642
771
266
-286
-308
-160
-204
-255
-209
-190
-212
-213
-192
-171
-155
-139
-114
-81
-45
-11
28
84
142
180
209
246
267
255
225
183
118
41
-19
-45
-59
-84
-95
-78
-72
-88
-84
-53
-37
-7
89
210
351
578
786
863
1006
1263
1203
667
98
-199
-332
-408
-434
-429
-404
-401
-444
-469
-455
-470
-519
-555
-585
-620
-643
-634
-574
-454
-291
-119
40
158
223
244
229
185
146
135
129
118
148
221
270
312
439
587
675
825
1002
874
401
-25
-209
-266
-285
-294
-302
-272
-225
-232
-271
-262
-227
-252
-339
-413
-442
-452
-446
-387
-281
-175
-72
40
125
151
148
149
147
125
88
68
73
83
94
99
75
42
48
64
47
34
49
64
66
54
32
26
34
22
-5
-19
-25
-32
-37
-39
-38
-32
-27
-30
-38
-37
-25
-18
-23
-28
-23
-25
-40
-44
-24
-18
-40
-39
7
32
3
-33
-52
-74
-90
-83
-78
-83
-75
-81
-94
-29
97
239
432
466
80
-366
-385
-193
-161
-188
-150
-145
-183
-182
-157
-149
-136
-95
-57
-42
-19
23
62
101
164
240
313
368
385
374
358
337
293
230
164
112
67
25
2
3
10
17
25
27
24
26
28
28
39
73
112
117
76
60
126
221
306
432
558
620
807
1183
1279
771
97
-240
-312
-359
-390
-375
-357
-361
-374
-389
-410
-434
-460
-489
-519
-559
-609
-634
-636
-640
-619
-530
-395
-254
-124
-16
49
55
41
47
45
7
-27
-34
-32
-30
-25
-11
2
-13
-42
-47
-44
-62
-88
-101
-77
-12
40
27
-21
-51
-64
-71
-54
-42
-64
-53
-13
-37
-27
119
243
333
501
448
7
-299
-184
-52
-93
-106
-71
-77
-89
-78
-65
-51
-35
-27
-18
0
29
70
125
194
258
314
373
414
418
404
368
294
212
136
54
-5
-15
-17
-34
-55
-73
-62
-10
30
45
100
227
423
665
881
1065
1297
1527
1534
1169
527
-84
-413
-497
-515
-538
-548
-543
-549
-571
-598
-627
-663
-701
-731
-754
-773
-773
-738
-666
-548
-390
-243
-123
-10
71
88
76
60
35
27
48
60
51
55
69
67
51
41
42
49
55
47
36
40
41
22
-5
-19
-11
-4
-13
4
67
115
109
74
46
43
53
41
20
14
16
16
-5
-18
38
106
168
372
555
305
-173
-304
-150
-110
-159
-150
-138
-149
-139
-133
-139
-130
-112
-93
-66
-46
-25
27
93
131
166
235
302
322
314
302
273
218
154
99
49
0
-36
-58
-78
-93
-100
-102
-80
-26
23
59
164
397
631
716
811
1041
1035
522
-79
-344
-395
-428
-438
-435
-450
-452
-441
-452
-480
-497
-496
-499
-516
-526
-517
-499
-463
-390
-287
-169
-44
59
114
136
138
106
62
56
58
33
33
68
72
49
55
73
67
60
64
64
61
57
51
51
53
31
2
5
22
21
19
46
77
81
66
51
38
25
21
24
17
6
31
54
22
35
147
264
468
740
629
67
-282
-175
-59
-93
-89
-62
-82
-83
-54
-46
-52
-49
-37
-19
0
19
42
79
133
187
229
273
320
337
319
291
240
161
76
2
-56
-88
-110
-131
-141
-154
-173
-158
-109
-65
-9
106
280
506
747
912
1055
1260
1272
814
164
-240
-400
-484
-514
-519
-546
-550
-516
-519
-579
-636
-655
-664
-702
-763
-821
-858
-844
-768
-664
-541
-382
-205
-48
62
114
120
103
75
51
33
14
7
19
25
9
-4
17
37
16
-12
4
34
38
28
16
-3
2
30
10
-49
-32
68
133
121
92
91
104
96
81
87
95
111
137
115
122
252
379
533
857
925
376
-170
-166
-17
-68
-115
-83
-88
-106
-98
-91
-81
-63
-49
-34
-14
14
51
91
136
197
269
321
339
349
348
301
236
202
160
85
31
-4
-49
-58
-32
-51
-97
-79
-20
-7
-25
5
59
45
-18
-41
-48
-102
-144
-120
-110
-140
-131
-121
-159
-138
-48
68
386
742
520
-144
-442
-326
-297
-344
-290
-258
-285
-274
-247
-240
-221
-186
-155
-129
-103
-66
-11
44
88
139
193
220
219
215
196
137
65
2
-49
-77
-82
-88
-97
-103
-114
-115
-90
-59
-47
-49
-40
-5
39
66
86
150
288
462
627
795
905
815
599
482
396
152
-143
-308
-383
-439
-457
-448
-461
-485
-483
-483
-524
-568
-580
-597
-624
-624
-611
-607
-578
-508
-420
-324
-219
-115
-20
55
104
135
155
166
173
179
185
193
200
206
213
221
221
209
194
196
215
223
217
222
248
267
255
219
189
175
165
154
146
133
134
148
118
88
156
252
358
588
682
299
-167
-203
-45
-38
-68
-41
-47
-73
-73
-75
-86
-81
-74
-75
-77
-60
-22
21
57
97
142
182
219
245
233
189
132
51
-46
-122
-171
-201
-214
-227
-247
-256
-245
-211
-181
-189
-199
-148
-76
-54
-79
-104
-124
-151
-159
-135
-119
-93
10
113
156
279
500
691
914
1037
654
-24
-328
-261
-238
-268
-242
-236
-267
-275
-263
-252
-260
-288
-307
-324
-350
-364
-366
-367
-351
-302
-228
-140
-64
-14
20
30
15
-8
-37
-67
-69
-60
-72
-89
-91
-84
-65
-39
-35
-35
12
98
160
156
101
60
55
51
41
39
34
44
62
34
46
186
311
418
640
653
195
-201
-134
17
-10
-30
7
7
-1
12
17
18
31
49
64
78
108
148
174
197
249
313
355
386
403
369
283
201
155
109
28
-48
-61
-40
-60
-115
-132
-94
-69
-88
-98
-70
-32
3
21
-7
-50
-75
-109
-151
-160
-156
-162
-177
-213
-206
-118
-48
130
564
739
235
-318
-342
-211
-253
-277
-232
-229
-236
-221
-220
-221
-207
-195
-185
-165
-131
-82
-35
-6
33
93
141
168
184
165
116
75
37
-22
-68
-79
-79
-74
-72
-98
-124
-104
-67
-61
-71
-65
-36
-4
11
5
-15
-51
-80
-81
-70
-76
-76
-51
-62
-125
-114
-20
79
301
569
422
-85
-323
-207
-148
-190
-171
-146
-166
-161
-127
-111
-105
-79
-52
-37
-7
28
52
100
178
230
253
287
320
317
294
269
222
151
95
72
63
56
50
43
34
27
26
43
65
63
57
86
126
123
85
56
45
26
3
-1
-3
-9
5
-7
-48
-30
29
126
377
548
252
-216
-319
-186
-162
-202
-203
-207
-208
-184
-172
-184
-183
-159
-147
-152
-137
-95
-52
2
73
121
145
179
202
190
177
161
93
13
-20
-49
-83
-65
-41
-75
-98
-68
-38
22
139
256
441
761
1020
1195
1552
1876
1557
685
-47
-356
-456
-503
-521
-536
-550
-558
-586
-629
-645
-646
-686
-767
-826
-835
-819
-788
-724
-619
-468
-274
-97
5
60
111
126
90
44
10
-4
12
23
6
-4
7
21
29
22
10
12
7
-17
-7
30
22
-15
-9
9
-11
-25
-4
1
-21
-11
44
92
103
78
46
45
54
41
19
-1
12
47
11
-37
48
164
314
668
811
278
-321
-324
-133
-163
-197
-141
-140
-166
-160
-157
-149
-117
-94
-91
-74
-40
-11
18
69
128
187
248
277
260
247
249
226
181
125
52
2
-4
-22
-63
-70
-55
-55
-37
36
125
178
237
445
776
1012
1180
1467
1645
1304
584
-17
-312
-426
-466
-465
-467
-507
-543
-537
-538
-584
-625
-641
-678
-727
-723
-662
-596
-518
-374
-188
-43
44
107
146
137
104
112
180
237
282
416
587
674
794
1004
988
576
75
-224
-338
-369
-378
-388
-387
-379
-379
-388
-409
-429
-413
-394
-425
-453
-402
-303
-215
-136
-45
51
133
180
182
154
118
94
89
83
66
61
64
51
39
43
44
36
40
49
44
31
32
45
49
40
41
51
44
27
36
73
98
87
65
56
52
43
34
31
24
13
6
5
-3
-9
0
10
14
19
