# session 240
-4
29
73
118
168
222
240
228
229
213
149
98
73
15
-39
-40
-49
-80
-76
-73
-107
-118
-103
-111
-117
-97
-79
-58
-33
-28
-32
-60
-113
-89
-4
-1
-2
81
131
234
412
401
520
960
669
-392
-530
209
227
-255
-251
-122
-219
-224
-157
-187
-201
-173
-183
-202
-209
-232
-270
-308
-355
-405
-420
-396
-361
-304
-195
-58
65
170
243
263
236
189
154
133
100
59
37
24
3
-10
-2
10
8
7
21
26
19
21
32
40
52
65
65
60
60
49
23
9
10
6
-1
-4
-11
-11
0
-10
-48
-63
-43
-47
-75
-61
-1
43
47
31
7
-8
-4
-5
-20
-18
-4
0
24
43
-4
7
157
289
471
772
691
57
-365
-240
-119
-203
-226
-184
-169
-145
-138
-163
-160
-134
-114
-84
-55
-47
-44
-32
-10
35
89
137
198
280
342
355
331
281
204
107
12
-70
-131
-166
-180
-177
-170
-175
-170
-140
-101
-36
61
168
368
702
1012
1323
1804
2078
1559
520
-222
-423
-404
-399
-428
-470
-503
-511
-505
-508
-529
-547
-552
-576
-634
-689
-708
-683
-626
-546
-438
-302
-162
-45
38
79
82
63
33
4
-14
-25
-14
35
74
70
56
49
30
13
17
24
18
7
1
3
-2
-15
-12
6
5
-3
13
25
7
-9
5
15
-1
-16
-11
-3
-1
-7
-21
-29
-12
11
10
-19
-47
-56
-57
-63
-69
-72
-60
-21
20
30
18
3
-5
6
20
29
41
40
37
57
38
-2
73
206
337
636
873
508
-148
-340
-181
-169
-248
-236
-214
-219
-210
-194
-173
-147
-139
-128
-79
-24
9
44
93
139
186
245
297
325
347
363
348
312
279
231
155
88
41
-13
-62
-82
-93
-111
-119
-122
-126
-121
-108
-104
-103
-91
-74
-74
-97
-115
-97
-58
-43
-53
-37
24
103
162
181
205
270
317
361
489
610
657
872
1259
1323
876
324
-33
-227
-298
-295
-314
-357
-367
-359
-373
-399
-415
-427
-460
-501
-516
-529
-565
-587
-573
-554
-518
-430
-314
-206
-90
27
89
89
82
89
81
51
13
-28
-49
-31
-16
-37
-38
20
55
11
3
69
42
-5
98
49
-137
86
143
-753
-1299
-459
301
86
-91
70
52
-1
80
79
22
27
24
6
16
28
37
49
47
60
84
66
82
192
297
439
660
599
127
-206
-124
-8
-39
-46
-25
-41
-39
-20
-30
-34
-12
-10
-14
11
32
37
63
110
162
225
278
304
333
364
352
306
271
232
175
125
87
56
39
19
-18
-47
-52
-49
-51
-51
-44
-39
-49
-62
-70
-87
-114
-121
-103
-101
-125
-126
-84
-58
-82
-118
-140
-157
-161
-149
-145
-145
-132
-122
-108
-88
-92
-91
-34
50
200
432
429
16
-356
-334
-204
-204
-205
-161
-159
-169
-147
-135
-139
-119
-82
-67
-80
-96
-96
-80
-43
28
113
179
223
261
276
252
207
156
83
-1
-60
-89
-114
-129
-123
-112
-102
-79
-40
28
121
197
326
598
877
1102
1459
1751
1475
725
64
-280
-377
-334
-312
-366
-411
-429
-449
-459
-470
-482
-479
-511
-590
-625
-596
-572
-542
-454
-330
-209
-99
-5
65
104
109
94
82
64
34
19
20
14
4
2
0
-1
9
17
11
11
23
13
-19
-32
-27
-38
-47
-40
-41
-51
-41
-22
-20
-14
8
23
24
22
23
26
34
40
47
47
31
25
43
47
26
18
3
-31
-28
-21
-61
-41
76
125
78
57
58
42
42
51
50
61
73
74
50
-16
-14
131
296
492
737
624
52
-321
-213
-96
-152
-165
-138
-153
-150
-125
-114
-96
-74
-60
-37
-8
15
45
85
127
169
211
256
307
354
379
372
335
296
264
201
103
22
-33
-97
-152
-164
-158
-166
-179
-184
-201
-228
-223
-183
-169
-176
-149
-116
-129
-150
-134
-102
-56
-2
4
-42
-67
-41
-1
20
14
5
4
-13
-18
-13
-72
-125
-41
86
216
414
395
-30
-377
-306
-167
-190
-202
-165
-169
-174
-149
-145
-157
-145
-123
-116
-102
-73
-52
-32
17
83
138
183
234
276
293
292
269
208
140
91
32
-35
-71
-85
-97
-97
-80
-66
-71
-76
-61
-49
-60
-74
-100
-149
-157
-107
-81
-107
-116
-81
-58
-78
-105
-115
-126
-135
-119
-91
-70
-47
-28
-4
34
45
50
132
237
370
660
828
466
-63
-166
-20
-24
-88
-60
-27
-41
-59
-67
-66
-45
-26
-32
-32
0
29
43
80
136
174
208
267
322
342
343
335
292
216
150
96
33
-11
2
44
55
14
-66
-159
-232
-260
-252
-239
-237
-235
-227
-218
-220
-232
-219
-151
-61
35
214
474
648
683
657
553
434
500
565
255
-208
-363
-305
-310
-330
-298
-284
-290
-286
-284
-281
-272
-270
-273
-267
-260
-254
-242
-234
-239
-231
-193
-155
-130
-88
-27
8
13
30
62
64
32
16
18
-6
-48
-53
-24
-4
-1
-2
-14
-37
-54
-60
-69
-77
-73
-64
-54
-37
-19
-5
9
22
35
53
70
82
90
97
89
61
39
44
56
49
49
84
123
117
73
35
20
20
22
15
0
-19
-20
4
-1
-45
-16
103
187
262
326
150
-197
-305
-166
-102
-126
-104
-71
-59
-39
-28
-16
23
47
35
26
29
31
39
56
79
111
154
200
241
274
291
290
272
238
187
121
51
-11
-65
-107
-127
-130
-141
-155
-145
-120
-93
-27
71
170
365
675
932
1186
1574
1665
1055
281
-78
-276
-409
-245
-447
-1558
-2269
-1440
-283
-94
-299
-239
-208
-305
-324
-348
-428
-435
-389
-358
-282
-150
-33
56
140
188
172
131
97
58
16
-8
-14
-20
-20
-11
-2
10
28
39
41
51
69
73
63
57
58
55
46
38
34
28
19
16
19
10
-18
-40
-40
-31
-38
-56
-61
-49
-45
-58
-70
-76
-85
-92
-100
-108
-99
-86
-83
-43
32
58
30
20
30
24
26
59
100
98
60
61
86
56
68
206
354
534
754
613
36
-323
-217
-118
-180
-173
-117
-120
-124
-97
-80
-69
-54
-35
-16
-8
-1
24
51
84
139
190
225
273
327
353
358
353
324
274
203
115
56
33
-11
-68
-86
-93
-112
-108
-94
-108
-122
-109
-106
-125
-137
-150
-172
-167
-148
-162
-163
-88
-18
-35
-88
-126
-159
-175
-171
-171
-161
-133
-125
-113
-65
-58
-76
6
146
313
602
728
329
-176
-235
-93
-103
-133
-102
-119
-141
-106
-85
-100
-102
-98
-96
-69
-45
-53
-38
25
67
91
153
222
251
266
276
250
186
106
28
-37
-90
-139
-167
-168
-167
-160
-130
-98
-85
-71
-54
-56
-65
-61
-69
-94
-103
-89
-78
-81
-77
-42
1
6
-19
-37
-52
-65
-58
-48
-49
-41
-38
-44
-20
-2
-31
-3
104
217
429
637
428
-68
-243
-106
-72
-112
-66
-42
-75
-67
-43
-55
-45
0
6
-14
16
70
79
80
128
189
220
242
270
286
280
273
262
224
151
66
-9
-67
-106
-126
-145
-168
-171
-151
-134
-119
-97
-72
-49
-35
-34
-29
-24
-38
-45
-25
-19
-37
-13
46
59
24
-1
-11
-20
-21
-41
-64
-30
-8
-60
-78
-54
-92
-88
34
179
365
470
183
-266
-359
-217
-196
-234
-219
-208
-197
-170
-157
-138
-103
-83
-63
-16
27
46
64
90
121
163
210
255
294
321
327
317
285
224
148
75
12
-31
-56
-86
-129
-158
-156
-148
-163
-178
-168
-157
-150
-128
-106
-105
-103
-96
-97
-94
-84
-80
-76
-49
-2
43
63
51
15
-15
-5
26
22
4
26
67
88
87
62
52
86
140
319
684
822
387
-155
-272
-170
-165
-180
-154
-160
-177
-167
-161
-164
-152
-125
-103
-90
-66
-23
23
65
115
161
198
245
292
306
304
301
264
184
104
39
-23
-72
-98
-120
-142
-140
-123
-134
-165
-170
-155
-151
-153
-161
-173
-162
-133
-128
-148
-149
-123
-105
-105
-78
-9
43
41
20
-2
-22
-5
39
49
33
23
3
0
20
-3
-23
51
158
344
661
699
207
-253
-255
-142
-172
-189
-158
-170
-182
-164
-162
-161
-138
-125
-127
-108
-73
-52
-26
24
75
120
177
231
269
298
304
286
273
242
153
57
9
-26
-64
-74
-57
-51
-62
-72
-61
-34
-28
-47
-58
-65
-93
-120
-119
-102
-79
-61
-67
-93
-113
-116
-109
-110
-114
-85
-30
-7
-24
-39
-37
-23
4
27
48
77
85
81
104
93
42
87
195
288
521
741
471
-87
-278
-153
-125
-165
-142
-134
-149
-139
-133
-137
-135
-127
-102
-67
-58
-58
-21
42
95
132
172
227
284
316
326
331
319
277
219
160
111
97
102
87
55
27
7
5
1
-28
-37
-34
-80
-82
-49
-147
-146
0
-212
-302
241
-263
-2215
-2559
-606
489
-92
-406
-85
101
139
159
111
81
95
109
114
100
96
115
114
110
113
85
91
167
283
557
861
688
106
-196
-99
-37
-82
-80
-60
-55
-46
-55
-78
-83
-87
-104
-104
-77
-36
6
46
80
108
137
172
208
236
251
250
231
196
146
87
34
-2
-21
-29
-29
-33
-39
-35
-30
-37
-48
-58
-72
-84
-85
-86
-94
-102
-112
-117
-111
-111
-135
-154
-149
-152
-166
-149
-125
-140
-139
-77
-21
-28
-64
-80
-70
-55
-60
-76
-70
-48
-42
-24
18
19
29
150
299
437
607
535
89
-230
-129
0
-46
-68
-42
-55
-56
-50
-82
-94
-60
-44
-56
-47
-24
-11
9
50
98
150
214
282
341
376
385
374
346
297
215
112
34
-6
-44
-99
-141
-144
-121
-110
-122
-137
-137
-124
-115
-108
-94
-83
-89
-92
-88
-100
-115
-123
-151
-187
-193
-196
-211
-173
-75
-1
8
-11
-35
-66
-84
-85
-84
-76
-61
-62
-40
15
10
5
141
294
396
586
607
174
-244
-212
-72
-105
-129
-96
-104
-121
-119
-118
-107
-95
-93
-80
-59
-49
-35
-9
25
66
115
178
251
298
310
319
328
303
233
135
37
-41
-91
-114
-111
-102
-106
-106
-82
-57
-52
-53
-56
-70
-85
-84
-74
-67
-65
-68
-72
-75
-72
-75
-101
-123
-107
-84
-95
-92
-33
17
6
-29
-47
-57
-69
-78
-79
-73
-66
-70
-65
-39
-47
-67
11
136
294
640
896
546
-76
-256
-117
-118
-179
-127
-76
-88
-84
-54
-42
-45
-41
-43
-63
-67
-36
-15
-27
-22
35
117
193
257
300
310
293
253
188
110
34
-28
-70
-94
-105
-108
-103
-90
-73
-62
-57
-46
-34
-35
-41
-41
-38
-33
-32
-46
-53
-44
-48
-73
-83
-81
-89
-89
-80
-96
-108
-53
29
40
-11
-37
-22
-19
-42
-50
-23
2
-11
-23
9
11
-21
35
146
251
462
601
313
-125
-200
-64
-58
-99
-80
-83
-99
-84
-74
-77
-68
-55
-49
-38
-18
-2
12
37
75
114
142
170
212
249
251
243
247
215
140
77
25
-26
-35
-47
-87
-67
-55
-97
-25
-20
-209
-42
192
-536
-1326
-718
193
108
-118
74
83
-67
-34
-12
-62
-34
-47
-85
30
61
-68
85
177
-501
-1053
-484
187
79
-95
25
52
7
30
64
144
254
406
638
614
177
-146
-70
33
-13
-30
-7
-21
-31
-19
-24
-35
-25
-11
-11
-8
5
16
34
67
104
140
184
235
283
317
332
319
269
204
149
84
6
-46
-64
-80
-96
-91
-80
-84
-83
-43
5
10
-6
-7
-11
-31
-48
-55
-64
-71
-78
-84
-87
-94
-113
-129
-119
-102
-100
-86
-33
14
5
-34
-63
-87
-101
-98
-95
-90
-76
-75
-72
-44
-51
-74
-3
119
268
538
662
292
-192
-258
-124
-143
-187
-137
-105
-110
-96
-84
-85
-65
-34
-26
-27
-17
-7
-2
15
44
64
71
89
136
194
237
260
254
210
139
63
-4
-53
-85
-110
-127
-131
-130
-124
-109
-92
-81
-70
-50
-35
-33
-35
-40
-51
-59
-64
-82
-108
-105
-90
-109
-123
-73
-6
3
-31
-63
-75
-68
-62
-75
-70
-28
0
-2
13
22
-15
0
121
243
352
400
167
-223
-309
-112
-23
-56
-29
14
16
24
39
39
43
54
60
68
85
97
105
121
151
191
238
295
355
405
434
435
408
354
271
171
86
30
-18
-66
-95
-108
-120
-119
-102
-90
-92
-95
-91
-86
-81
-65
-55
-73
-96
-91
-83
-101
-129
-119
-69
-72
-112
-62
9
26
68
-10
-138
54
56
-325
108
355
-2025
-4422
-2762
266
610
-60
321
616
481
620
539
4
-205
-1
85
47
77
105
99
114
130
125
124
126
124
135
152
159
168
185
203
244
317
372
402
444
487
500
479
413
320
237
160
93
50
1
-53
-65
-56
-67
-77
-72
-66
-64
-70
-81
-69
-46
-41
-41
-35
-33
-8
49
75
43
15
45
93
100
69
36
10
-7
-9
-16
-35
-42
-44
-57
-41
-27
-59
-22
118
227
365
521
326
-166
-361
-208
-142
-187
-167
-143
-150
-139
-134
-136
-114
-105
-117
-105
-74
-51
-44
-51
-34
25
71
92
149
238
276
262
258
252
181
77
14
-25
-92
-160
-194
-224
-259
-260
-226
-203
-211
-225
-227
-220
-213
-206
-199
-194
-189
-191
-202
-194
-158
-135
-143
-127
-63
-1
16
5
-14
-40
-51
-45
-53
-54
-22
-16
-39
-24
-19
-46
13
135
267
496
605
255
-206
-260
-107
-89
-104
-68
-78
-101
-73
-51
-53
-35
-5
9
22
42
57
82
138
211
283
349
396
424
449
463
451
422
382
324
255
195
150
114
86
69
58
