# session 58
-30
133
277
374
402
376
337
319
304
270
244
242
240
227
222
226
219
211
217
216
193
163
147
158
168
138
107
127
138
94
69
75
49
30
61
45
-31
-20
70
95
75
89
77
29
25
33
4
7
64
73
19
50
167
242
451
860
854
182
-341
-251
-82
-136
-167
-129
-139
-154
-142
-136
-125
-101
-90
-90
-83
-67
-47
-11
41
88
136
195
249
280
289
276
243
187
112
40
-25
-102
-163
-177
-178
-184
-179
-187
-206
-190
-160
-123
-20
90
168
364
662
853
975
1083
912
425
-24
-268
-399
-441
-420
-417
-434
-441
-443
-437
-445
-491
-541
-568
-604
-651
-679
-699
-708
-655
-532
-385
-229
-64
74
160
195
180
138
118
112
80
43
40
50
49
47
40
25
19
19
15
15
17
16
21
23
16
20
27
27
35
37
25
35
60
57
58
112
163
157
125
107
94
75
69
80
80
76
89
73
43
113
248
376
566
632
263
-218
-273
-86
-55
-96
-65
-58
-91
-87
-64
-62
-67
-55
-43
-43
-30
9
38
52
92
156
205
244
286
317
322
305
272
219
142
59
0
-47
-97
-131
-132
-131
-145
-152
-138
-123
-110
-88
-73
-65
-21
44
46
-12
-50
-58
-79
-90
-65
-64
-96
-77
-53
-93
-47
128
245
402
639
448
-193
-486
-271
-160
-235
-210
-167
-200
-195
-169
-187
-188
-158
-150
-139
-100
-70
-52
-11
55
129
204
272
332
374
367
312
244
149
16
-86
-121
-156
-203
-210
-212
-238
-226
-185
-181
-175
-132
-121
-146
-130
-69
-15
13
-8
-64
-98
-100
-110
-119
-115
-124
-117
-91
-109
-75
98
243
372
591
523
-20
-397
-263
-93
-124
-144
-115
-107
-85
-76
-102
-97
-64
-63
-62
-30
-5
1
32
99
162
208
265
333
389
404
364
290
217
144
55
-34
-97
-116
-106
-107
-120
-107
-65
-33
0
86
207
336
541
834
1132
1464
1817
1853
1323
531
-59
-343
-448
-472
-480
-499
-507
-498
-505
-536
-570
-596
-626
-669
-706
-730
-748
-751
-711
-611
-470
-326
-187
-40
80
131
129
118
90
39
8
13
9
-15
-30
-32
-30
-18
-15
-39
-54
-39
-15
-14
-46
-72
-55
-36
-40
-29
-11
-18
-31
-27
-7
14
6
3
61
116
97
64
56
28
-2
12
39
37
26
42
49
27
65
191
345
534
604
278
-199
-304
-124
-62
-103
-88
-65
-84
-96
-81
-59
-57
-65
-49
-19
-2
16
48
76
108
166
230
264
287
328
351
318
263
228
177
88
17
-11
-48
-93
-91
-74
-94
-115
-102
-85
-71
-48
-45
-52
-21
20
10
-33
-60
-72
-91
-109
-109
-107
-115
-103
-98
-138
-121
-9
91
226
387
240
-204
-408
-262
-157
-187
-188
-161
-156
-151
-141
-129
-110
-102
-102
-92
-74
-52
-20
18
65
123
188
258
324
368
379
354
298
215
119
38
-2
-27
-67
-95
-84
-76
-99
-119
-114
-99
-89
-88
-87
-53
11
43
32
27
41
75
146
238
342
497
643
710
880
1293
1550
1160
358
-209
-370
-393
-419
-426
-428
-433
-422
-424
-461
-501
-521
-532
-550
-590
-646
-686
-702
-699
-670
-602
-495
-353
-188
-35
79
153
186
175
141
106
65
29
20
17
-2
-17
-20
-24
-16
-4
-19
-32
-4
17
-2
13
96
165
169
138
107
90
75
62
77
93
77
76
73
62
154
303
429
705
919
510
-183
-323
-77
-48
-138
-108
-84
-117
-107
-82
-99
-118
-96
-50
-15
-7
-7
20
82
153
223
300
364
386
391
406
382
284
170
85
11
-61
-116
-147
-160
-162
-161
-168
-186
-194
-172
-144
-137
-128
-90
-43
-16
-19
-48
-89
-115
-115
-100
-92
-101
-86
-53
-84
-94
48
174
271
578
742
259
-328
-352
-165
-181
-211
-162
-160
-184
-174
-160
-162
-164
-152
-137
-137
-123
-70
-20
18
79
154
212
277
350
372
325
262
203
112
-12
-106
-142
-155
-167
-177
-184
-182
-173
-170
-159
-121
-88
-85
-85
-59
-16
14
3
-37
-57
-60
-76
-79
-63
-70
-74
-64
-93
-79
45
153
284
532
515
28
-350
-265
-112
-121
-118
-86
-97
-101
-86
-86
-84
-73
-68
-51
-25
-14
-1
43
97
139
187
244
291
338
377
361
291
219
150
68
2
-36
-61
-69
-69
-85
-101
-88
-61
-53
-37
45
144
204
360
658
856
964
1216
1342
939
302
-90
-249
-332
-358
-365
-379
-370
-366
-396
-428
-451
-474
-496
-524
-554
-572
-582
-573
-523
-443
-349
-231
-104
8
93
135
128
95
59
20
-19
-43
-49
-61
-80
-80
-71
-78
-83
-74
-74
-86
-88
-78
-77
-82
-75
-58
-53
-72
-88
-83
-71
-58
-31
-12
-8
22
73
80
52
50
51
17
-1
21
17
-5
10
13
4
92
220
316
485
550
190
-256
-274
-80
-49
-74
-35
-23
-37
-28
-20
-13
10
20
15
26
51
70
86
110
153
212
269
322
372
403
403
377
330
267
191
107
34
-13
-43
-63
-77
-87
-91
-92
-98
-83
-34
19
74
172
341
595
864
1035
1189
1448
1562
1189
482
-107
-378
-427
-425
-462
-506
-510
-498
-509
-536
-566
-594
-626
-667
-712
-767
-840
-890
-862
-771
-658
-524
-359
-191
-60
24
63
61
35
11
-11
-35
-50
-55
-54
-39
-22
-20
-22
-19
-16
-7
12
19
9
8
21
26
17
8
9
30
58
42
-3
20
117
177
149
95
75
70
58
57
55
36
45
52
7
62
252
359
464
693
584
-9
-364
-209
-66
-107
-123
-118
-130
-101
-79
-96
-99
-83
-69
-54
-46
-38
-1
50
91
149
231
294
331
372
397
373
314
246
165
80
8
-43
-76
-106
-137
-148
-132
-131
-159
-172
-141
-102
-94
-102
-83
-38
-11
-18
-46
-81
-104
-104
-95
-94
-96
-67
-29
-59
-66
80
223
328
615
770
307
-282
-315
-107
-111
-167
-129
-106
-118
-122
-116
-97
-75
-65
-70
-83
-65
5
62
54
65
167
279
313
307
314
302
254
199
126
9
-87
-105
-103
-149
-193
-180
-156
-171
-187
-163
-120
-88
-78
-84
-57
12
52
52
88
149
185
267
421
517
580
805
1061
950
461
-11
-241
-314
-340
-354
-363
-369
-374
-383
-395
-412
-440
-473
-499
-519
-546
-575
-586
-589
-600
-579
-471
-311
-179
-84
21
123
163
141
108
82
55
41
44
42
32
34
50
59
69
80
70
51
52
54
36
36
70
86
73
86
128
148
140
132
117
93
77
86
106
108
103
105
85
79
148
237
345
500
445
39
-282
-213
-58
-47
-49
-19
-26
-37
-13
6
2
1
13
25
37
55
72
92
128
165
200
254
307
331
339
339
312
257
188
112
47
-4
-52
-77
-78
-85
-94
-86
-93
-119
-109
-67
-55
-77
-79
-45
-22
-42
-83
-111
-126
-129
-116
-112
-144
-151
-107
-115
-159
-88
35
120
300
409
81
-379
-434
-261
-233
-258
-219
-203
-216
-202
-176
-165
-164
-154
-125
-92
-69
-49
-16
29
78
132
195
262
312
334
329
295
217
108
17
-34
-72
-110
-124
-122
-146
-178
-168
-154
-178
-172
-109
-88
-129
-132
-78
-34
-24
-45
-81
-100
-101
-97
-80
-73
-71
-47
-59
-68
69
233
307
496
630
236
-314
-350
-130
-119
-160
-116
-111
-115
-77
-73
-81
-42
-10
-16
-6
23
41
67
114
169
236
307
368
416
433
402
342
259
136
15
-35
-47
-100
-158
-138
-87
-93
-108
-74
-18
66
171
246
406
758
1088
1283
1574
1854
1603
818
84
-276
-389
-425
-453
-474
-480
-501
-541
-557
-565
-609
-668
-705
-744
-805
-851
-851
-828
-780
-668
-490
-312
-180
-76
30
109
117
65
17
24
38
-12
-75
-63
-15
-6
-18
-17
-8
0
14
18
4
9
45
52
12
-4
29
48
15
-25
-12
28
24
-19
-28
24
95
132
128
103
72
51
54
62
45
23
49
71
28
70
250
367
473
673
549
-15
-347
-204
-73
-111
-112
-81
-77
-72
-76
-76
-54
-45
-38
-3
9
-12
9
73
125
173
239
290
322
349
354
324
276
202
110
32
-31
-87
-121
-131
-143
-159
-161
-151
-142
-136
-125
-99
-71
-74
-99
-88
-36
-7
-30
-66
-84
-101
-120
-110
-93
-97
-66
-25
-73
-74
92
225
355
658
686
119
-360
-291
-139
-174
-175
-129
-144
-166
-151
-131
-120
-121
-113
-83
-65
-60
-30
16
57
106
167
227
283
327
338
310
257
172
65
-10
-56
-111
-138
-121
-125
-151
-153
-150
-162
-166
-158
-139
-115
-108
-106
-60
27
83
88
103
153
216
323
477
589
702
984
1265
1120
555
23
-222
-301
-338
-346
-349
-369
-375
-366
-381
-414
-435
-447
-473
-513
-551
-590
-630
-641
-613
-578
-522
-401
-246
-107
14
103
126
113
110
99
61
22
6
9
18
25
32
41
58
78
76
51
50
69
62
34
36
68
76
49
54
119
170
156
117
91
81
91
108
101
77
86
97
62
79
193
302
441
604
464
-1
-263
-149
-38
-63
-65
-34
-33
-42
-42
-30
-6
7
0
4
29
59
78
100
140
182
208
248
308
342
337
324
289
213
143
96
24
-57
-88
-88
-89
-82
-82
-98
-103
-96
-99
-96
-69
-53
-74
-83
-39
0
-19
-63
-88
-100
-105
-101
-103
-125
-129
-101
-116
-149
-84
17
101
282
373
48
-377
-415
-251
-216
-236
-219
-212
-205
-184
-182
-182
-162
-136
-109
-89
-80
-61
-20
23
66
134
221
288
325
347
344
303
231
144
48
-34
-78
-98
-120
-140
-148
-154
-151
-150
-175
-191
-153
-116
-144
-175
-135
-67
-45
-65
-85
-90
-103
-127
-110
-67
-77
-81
-25
-45
-86
68
261
353
549
613
137
-371
-316
-89
-104
-148
-112
-112
-104
-57
-48
-57
-35
-12
-2
16
33
40
69
132
203
258
306
363
414
431
410
350
243
108
-3
-45
-45
-84
-157
-167
-133
-136
-132
-84
-43
30
163
281
449
760
1051
1297
1691
1956
1557
683
-10
-320
-432
-450
-444
-482
-529
-539
-533
-538
-567
-616
-658
-697
-749
-789
-800
-803
-785
-708
-580
-436
-286
-132
-5
71
103
104
81
44
14
3
11
9
-11
-15
11
27
16
4
2
-1
-9
-10
3
8
-3
-6
13
31
32
33
44
49
29
4
13
47
44
7
25
107
155
135
97
71
46
29
43
59
42
36
41
-7
10
169
295
442
727
680
73
-368
-260
-114
-156
-159
-134
-162
-150
-103
-98
-103
-75
-44
-42
-51
-33
10
43
72
127
190
231
275
330
346
316
280
232
156
71
-7
-78
-119
-132
-143
-149
-150
-152
-140
-122
-126
-131
-110
-94
-105
-111
-79
-31
-9
-25
-60
-91
-97
-78
-59
-66
-77
-47
-20
-44
-10
114
214
387
629
492
-44
-330
-209
-122
-158
-145
-119
-112
-77
-61
-88
-87
-50
-34
-36
-23
1
17
39
84
140
194
248
296
322
324
305
262
191
94
2
-46
-59
-76
-99
-106
-99
-86
-77
-93
-115
-101
-58
-21
-9
-17
-6
39
62
35
8
3
-4
-9
6
18
14
28
48
21
23
133
232
285
367
282
-82
-326
-224
-90
-93
-97
-78
-94
-115
-123
-132
-151
-174
-178
-177
-200
-217
-199
-169
-134
-97
-68
-17
60
102
90
68
39
-16
-89
-158
-202
-218
-222
-220
-205
-181
-160
-150
-145
-135
-125
-103
-62
-45
-66
-51
13
38
9
-11
-15
-27
-32
-11
14
14
19
45
28
3
92
209
279
469
609
268
-252
-331
-132
-85
-109
-66
-44
-54
-45
-40
-40
-23
-1
20
44
66
87
113
159
219
272
326
403
471
482
458
434
387
291
172
75
12
-29
-53
-64
-72
-83
-97
-118
-137
-134
-106
-68
-8
87
204
383
662
898
989
1130
1442
1594
1237
526
-95
-397
-478
-492
-492
-501
-522
-524
-523
-563
-608
-631
-670
-720
-752
-788
-840
-866
-854
-821
-738
-591
-423
-249
-78
36
90
138
147
77
30
61
66
18
8
30
18
-1
21
43
37
38
55
67
68
56
38
39
47
26
-14
-25
8
33
12
2
60
127
134
107
88
74
52
40
61
74
57
65
57
8
93
288
396
583
836
597
-44
-285
-89
-23
-94
-71
-50
-83
-69
-41
-57
-67
-52
-53
-54
-29
-8
0
32
87
144
215
292
329
336
352
347
283
197
123
48
-26
-81
-121
-146
-157
-169
-174
-160
-156
-173
-170
-131
-109
-123
-129
-96
-55
-40
-48
-73
-115
-153
-159
-143
-145
-157
-135
-118
-157
-144
-31
64
224
517
510
9
-386
-325
-191
-206
-221
-205
-203
-193
-181
-177
-155
-128
-117
-98
-63
-32
-5
31
73
118
177
240
284
306
308
290
239
151
53
-19
-73
-117
-121
-109
-126
-143
-124
-111
-123
-136
-131
-94
-56
-68
-80
-13
81
132
159
205
317
486
590
647
854
1089
955
466
23
-190
-262
-269
-260
-272
-273
-250
-245
-264
-283
-291
-296
-315
-347
-378
-413
-453
-466
-431
-362
-275
-166
-32
105
213
282
306
292
255
214
181
159
142
127
119
119
119
116
109
104
99
86
78
78
63
41
41
58
66
65
57
63
104
141
125
82
63
55
35
31
43
22
2
19
-2
-27
54
159
295
566
606
103
-395
-384
-219
-238
-280
-270
-290
-315
-323
-341
-344
-335
-347
-367
-362
-344
-333
-327
-308
-264
-197
-125
-73
-47
