# session 137
-24
21
64
112
137
115
78
35
-36
-116
-164
-190
-213
-216
-198
-180
-157
-132
-122
-122
-121
-125
-116
-88
-87
-110
-86
-22
-1
-37
-75
-90
-89
-87
-92
-89
-80
-86
-83
-70
-94
-104
-31
81
271
500
398
-82
-374
-262
-150
-197
-205
-156
-154
-169
-148
-123
-119
-113
-98
-98
-94
-64
-29
-3
35
88
133
170
209
241
246
228
200
164
116
68
39
24
15
22
44
62
75
100
131
166
220
279
389
621
842
918
1038
1224
1077
539
56
-172
-287
-343
-343
-353
-381
-393
-398
-414
-445
-477
-497
-514
-538
-563
-582
-580
-531
-436
-305
-147
0
112
201
265
278
257
233
200
164
139
117
94
81
64
45
53
65
47
32
47
53
38
31
31
32
43
59
83
117
164
282
505
726
875
1010
1072
911
634
445
308
92
-168
-342
-370
-321
-306
-346
-389
-426
-477
-513
-519
-539
-589
-630
-658
-698
-720
-699
-690
-711
-677
-565
-468
-404
-294
-167
-109
-80
-19
25
18
14
29
26
12
14
24
27
13
-6
0
16
3
-27
-41
-46
-54
-65
-79
-82
-64
-49
-56
-72
-77
-73
-67
-74
-91
-103
-106
-101
-90
-80
-84
-102
-104
-72
-47
-68
-78
-14
68
86
55
17
-11
-21
-15
-7
-16
-29
3
36
-3
11
175
366
594
839
688
112
-208
-54
85
52
65
110
90
89
155
197
179
169
194
230
275
314
322
350
448
543
574
602
674
741
767
770
763
731
674
611
566
546
526
491
473
486
488
483
509
536
533
542
573
611
684
753
819
1025
1328
1510
1653
1861
1792
1251
623
256
102
33
0
-31
-72
-124
-182
-224
-241
-260
-306
-369
-414
-452
-531
-633
-691
-719
-747
-715
-628
-568
-505
-420
-406
-426
-486
-962
-1955
-2794
-2975
-2828
-2755
-2691
-2543
-2423
-2394
-2401
-2380
-2323
-2255
-2155
-1971
-1734
-1522
-1348
-1195
-1063
-953
-857
-768
-678
-595
-541
-509
-459
-377
-305
-264
-208
-112
-29
-3
-2
21
58
78
98
131
141
144
182
192
167
240
387
514
720
877
618
163
77
267
345
351
398
411
409
453
485
483
495
532
570
604
645
696
744
791
856
934
1016
1103
1168
1209
1253
1288
1294
1280
1249
1210
1174
1142
1131
1153
1168
1175
1215
1267
1329
1449
1590
1747
2021
2324
2509
2722
2974
2850
2253
1656
1361
1263
1239
1247
1257
1272
1295
1317
1340
1350
1346
1357
1374
1374
1373
1392
1435
1505
1604
1744
1931
2127
2281
2382
2454
2501
2455
2233
1863
1472
1120
723
234
-236
-619
-1038
-1538
-1974
-2335
-2803
-3410
-3996
-4514
-5049
-5581
-6016
-6377
-6734
-7066
-7334
-7547
-7696
-7716
-7519
-7043
-6351
-5613
-4950
-4358
-3797
-3271
-2816
-2434
-2077
-1707
-1337
-1018
-784
-610
-441
-259
-76
89
224
346
498
640
691
753
958
1190
1427
1752
1813
1344
911
972
1155
1159
1145
1178
1199
1214
1207
1181
1182
1212
1272
1382
1489
1557
1646
1770
1854
1895
1962
2045
2095
2134
2163
2130
2055
1992
1925
1844
1768
1685
1602
1557
1518
1452
1403
1389
1363
1315
1273
1237
1201
1172
1120
1031
992
1008
916
696
544
525
529
515
502
491
477
452
436
428
371
332
419
519
609
795
767
260
-192
-158
-25
-72
-100
-75
-109
-145
-152
-172
-190
-195
-213
-231
-242
-253
-250
-236
-228
-199
-140
-93
-63
-31
-24
-58
-120
-254
-468
-621
-634
-662
-824
-987
-1012
-960
-923
-910
-909
-909
-896
-876
-859
-846
-824
-776
-718
-702
-733
-764
-765
-763
-791
-816
-801
-790
-810
-802
-795
-835
-795
-656
-560
-379
-91
-177
-687
-966
-835
-719
-720
-692
-664
-657
-629
-603
-600
-605
-611
-591
-540
-494
-464
-436
-399
-355
-323
-265
-117
43
86
39
-2
-37
-90
-154
-224
-286
-334
-364
-338
-255
-165
-95
-44
-32
-58
-64
-23
11
12
40
148
315
492
627
698
761
892
1074
1229
1366
1572
1820
1973
1999
1985
1992
1970
1826
1660
1674
1657
1229
657
467
536
502
400
338
263
182
129
68
6
-23
-49
-88
-106
-96
-95
-100
-85
-50
-16
14
46
68
73
68
45
-2
-57
-110
-171
-232
-264
-270
-268
-269
-280
-292
-293
-280
-229
-154
-110
-6
255
478
578
793
981
678
41
-377
-513
-579
-601
-588
-599
-616
-620
-638
-668
-684
-687
-699
-727
-757
-780
-790
-776
-732
-655
-538
-389
-244
-123
-34
10
11
-7
-29
-44
-50
-55
-59
-56
-52
-56
-65
-72
-74
-81
-96
-108
-106
-98
-99
-107
-111
-108
-99
-95
-93
-81
-68
-70
-74
-59
-37
-38
-62
-66
-30
-19
-55
-42
48
112
114
116
113
79
55
63
90
119
111
95
129
138
120
223
391
512
682
727
328
-177
-287
-188
-173
-160
-109
-95
-82
-57
-50
-29
-1
1
12
55
89
100
117
155
203
245
286
343
402
443
460
440
389
346
301
224
140
87
54
24
9
19
22
5
-1
6
-9
-19
3
11
3
20
46
68
84
64
22
3
-9
-33
-38
-33
-51
-74
-67
-85
-169
-229
-183
-40
153
174
-157
-500
-469
-281
-252
-284
-249
-202
-195
-217
-227
-209
-196
-192
-166
-135
-117
-89
-46
-1
58
136
214
282
341
379
377
336
263
174
80
-2
-56
-89
-112
-110
-99
-109
-110
-53
39
115
212
445
784
1039
1249
1623
1892
1508
610
-112
-409
-513
-548
-539
-556
-584
-575
-590
-645
-663
-647
-673
-741
-800
-830
-832
-823
-807
-743
-609
-450
-279
-88
67
130
137
131
116
96
82
81
86
89
89
84
74
72
76
81
91
91
72
61
68
63
40
27
34
45
52
56
60
63
54
44
54
57
5
-64
-69
-29
-18
-29
-7
51
103
112
79
50
51
53
46
55
54
40
59
67
29
58
166
284
515
735
507
-32
-249
-118
-68
-121
-109
-96
-131
-141
-127
-130
-128
-105
-94
-90
-70
-57
-65
-54
-14
28
82
156
215
243
268
294
288
246
201
166
126
86
70
73
75
73
85
108
117
111
106
105
104
111
108
81
73
109
131
98
48
19
4
-12
-23
-10
12
-3
-10
41
44
-25
3
155
312
397
263
-84
-272
-154
-44
-77
-94
-67
-56
-71
-167
-381
-588
-649
-595
-533
-479
-385
-251
-124
-32
54
158
261
328
360
363
318
226
129
57
-2
-65
-129
-186
-219
-225
-226
-243
-266
-276
-274
-264
-251
-243
-244
-259
-274
-240
-170
-146
-185
-213
-204
-195
-191
-164
-112
-69
-26
28
27
1
87
231
369
634
810
479
-40
-149
-2
23
3
24
6
-7
15
6
-18
-8
4
-5
0
28
54
75
108
152
194
242
290
322
343
357
337
275
184
77
-4
-34
-64
-116
-131
-118
-136
-148
-115
-98
-116
-109
-91
-105
-117
-99
-61
-10
21
0
-46
-73
-68
-55
-63
-69
-58
-69
-73
-52
-68
-40
119
253
358
553
489
-24
-385
-278
-144
-169
-150
-114
-143
-152
-124
-116
-118
-108
-97
-91
-70
-29
8
29
62
127
212
291
357
408
425
382
310
249
170
65
-12
-43
-68
-93
-96
-88
-88
-75
-42
-17
19
104
220
386
635
875
1092
1428
1741
1574
867
111
-312
-453
-500
-524
-523
-524
-546
-559
-553
-565
-601
-631
-667
-722
-763
-777
-788
-796
-757
-653
-515
-368
-207
-39
103
188
203
171
145
139
129
115
112
98
66
59
90
107
88
59
47
56
62
51
40
35
24
25
39
27
-8
-18
1
2
-28
-63
-73
-61
-71
-118
-128
-65
-1
14
4
-8
-24
-35
-34
-21
-17
-26
-10
18
-3
-6
99
201
299
505
523
86
-326
-285
-132
-164
-196
-151
-158
-197
-199
-185
-179
-173
-168
-159
-142
-116
-84
-50
-6
47
92
145
213
265
300
323
304
261
238
206
152
116
82
46
53
72
43
9
14
23
20
11
-9
0
54
104
165
315
530
694
771
787
674
470
458
627
506
29
-285
-274
-249
-299
-303
-284
-300
-326
-345
-353
-353
-359
-367
-370
-378
-381
-361
-336
-315
-275
-221
-179
-143
-99
-56
-20
16
42
51
53
59
64
58
42
42
69
97
100
113
166
219
263
339
411
464
590
782
962
1112
1022
480
-179
-464
-423
-311
-186
-107
-148
-245
-316
-367
-420
-484
-541
-562
-541
-503
-468
-446
-434
-408
-355
-286
-206
-123
-50
7
50
78
91
87
74
69
65
51
37
36
35
31
31
32
23
12
10
6
-6
-14
-13
-21
-35
-33
-27
-36
-52
-58
-56
-53
-49
-51
-66
-75
-55
-35
-48
-58
-45
-53
-83
-97
-92
-69
-39
-41
-47
3
61
57
33
37
41
30
31
35
17
13
22
0
30
167
299
471
690
540
-26
-329
-164
-35
-82
-78
-49
-68
-64
-39
-39
-45
-45
-45
-32
-12
6
19
30
66
140
212
272
344
406
432
434
417
374
318
250
164
90
49
21
-9
-34
-47
-53
-55
-54
-55
-46
-13
-1
-38
-40
49
125
98
42
35
51
75
144
236
314
420
534
599
784
1178
1339
890
205
-195
-339
-413
-421
-406
-434
-453
-450
-482
-519
-522
-536
-573
-612
-657
-698
-710
-720
-748
-755
-713
-633
-517
-372
-227
-103
-9
45
61
52
29
1
-17
-21
-24
-28
-27
-22
-19
-16
-7
-3
-10
-15
-6
9
7
2
43
119
142
98
63
61
58
44
26
16
29
53
51
3
-17
98
231
305
534
757
453
-127
-267
-80
-50
-100
-72
-72
-101
-86
-73
-82
-75
-48
-27
-25
-28
-3
40
80
142
236
313
360
406
450
452
411
356
288
206
135
71
-9
-64
-69
-79
-97
-69
-45
-79
-90
-36
-4
-18
-8
31
60
67
44
3
-19
-26
-50
-57
-34
-40
-62
-44
-50
-73
-2
103
222
505
657
260
-257
-294
-117
-118
-156
-127
-132
-160
-161
-153
-143
-140
-149
-152
-154
-147
-107
-62
-36
10
83
136
169
207
242
240
190
122
65
-15
-124
-179
-163
-161
-183
-178
-150
-127
-116
-107
-53
49
135
251
479
705
835
924
870
528
112
-112
-211
-289
-310
-305
-339
-375
-388
-409
-430
-441
-467
-505
-533
-569
-611
-628
-627
-616
-558
-437
-294
-146
-11
93
172
210
177
126
115
104
59
31
41
63
85
87
70
76
96
77
48
60
90
106
137
237
413
602
744
846
874
741
509
377
371
300
93
-95
-154
-138
-112
-94
-109
-163
-212
-237
-265
-307
-349
-381
-405
-428
-452
-464
-448
-414
-368
-297
-208
-125
-47
29
96
150
185
190
194
215
217
192
186
200
192
168
166
179
173
153
140
132
122
122
124
106
84
88
92
69
48
54
67
69
56
29
13
23
31
26
23
5
-30
-37
-19
-30
-58
-38
22
39
-10
-55
-68
-93
-133
-132
-123
-160
-166
-129
-153
-159
-25
127
281
484
385
-143
-494
-359
-192
-230
-251
-205
-200
-212
-203
-186
-158
-127
-113
-98
-71
-49
-22
36
98
140
195
283
372
436
460
454
443
409
327
240
175
99
31
2
-45
-117
-133
-111
-144
-208
-218
-189
-185
-208
-209
-158
-77
3
72
121
187
339
516
606
744
1065
1233
863
219
-191
-318
-358
-353
-312
-302
-313
-301
-296
-326
-359
-368
-381
-421
-474
-519
-559
-598
-619
-613
-582
-509
-384
-227
-74
48
130
179
189
162
125
97
78
66
58
43
32
43
59
44
33
65
80
55
59
46
-17
52
182
-56
-618
-994
-1153
-1369
-1509
-1415
-1298
-1238
-1056
-729
-358
28
362
540
598
631
649
669
742
841
922
1018
1145
1255
1336
1406
1459
1486
1480
1439
1378
1298
1188
1052
900
725
533
354
198
55
-69
-158
-224
-281
-319
-333
-345
-362
-377
-383
-383
-387
-394
-403
-419
-434
-420
-392
-394
-419
-429
-420
-409
-410
-416
-391
-326
-266
-239
-236
-243
-260
-276
-270
-237
-225
-250
-235
-190
-212
-211
-79
58
167
311
214
-223
-478
-331
-199
-246
-261
-228
-236
-254
-250
-225
-193
-193
-219
-214
-175
-144
-121
-68
11
70
112
175
238
270
283
278
246
204
162
117
67
11
-32
-30
-5
2
-12
-23
-19
-3
16
28
33
41
66
89
83
59
38
16
-7
-14
-5
-1
-8
3
29
17
13
97
209
332
478
408
33
-214
-117
-6
-32
-24
34
43
17
-3
-8
-3
-9
-20
-13
6
16
27
54
96
145
197
249
296
321
314
283
235
170
96
33
-10
-35
-46
-48
-47
-41
-23
-3
21
86
172
238
367
589
759
870
991
891
436
-18
-208
-275
-330
-343
-346
-369
-385
-392
-408
-437
-472
-499
-528
-570
-599
-604
-613
-621
-581
-483
-359
-214
-58
68
136
173
193
173
121
83
67
50
28
9
-3
1
14
20
18
19
21
16
7
1
-3
3
13
11
0
-1
0
-15
-32
-28
-1
25
30
31
75
149
181
145
94
65
43
30
39
19
-40
-34
3
-47
-30
142
264
427
756
713
87
-334
-200
-53
-98
-99
-60
-67
-75
-75
-79
-69
-57
-46
-32
-34
-22
27
67
90
131
179
233
313
366
350
325
316
269
186
110
36
-43
-103
-136
-147
-154
-174
-192
-200
-213
-221
-210
-209
-200
-146
-106
-137
-190
-220
-241
-259
-268
-262
-250
-246
-230
-208
-221
-167
-3
114
229
422
319
-174
-439
-271
-148
-201
-200
-158
-160
-152
-132
-135
-131
-110
-96
-81
-51
-19
15
64
118
168
234
329
422
465
457
443
417
331
221
162
133
88
61
73
84
83
75
48
46
104
143
103
