# session 120
2
28
-557
-1030
-934
-809
-854
-821
-760
-775
-779
-759
-755
-750
-733
-701
-654
-617
-589
-542
-470
-387
-303
-228
-157
-93
-50
-35
-55
-107
-161
-209
-264
-309
-326
-339
-355
-350
-323
-296
-294
-313
-304
-251
-218
-232
-220
-154
-104
-107
-129
-144
-155
-162
-157
-128
-109
-122
-109
-74
-91
-65
67
186
317
465
310
-119
-287
-138
-60
-67
-23
-10
-37
-15
14
1
2
30
44
57
96
131
147
191
280
373
435
476
506
520
505
447
353
258
189
139
88
54
61
81
80
70
57
49
66
111
176
237
281
405
674
904
1002
1170
1343
1129
576
128
-90
-214
-270
-271
-285
-313
-335
-358
-372
-377
-410
-458
-484
-502
-533
-556
-545
-498
-424
-329
-194
-37
83
161
218
223
176
142
120
83
58
54
38
21
28
33
16
3
8
7
-5
-5
-4
-24
-38
-34
-51
-89
-104
-108
-141
-180
-178
-146
-131
-143
-132
-83
-49
-61
-89
-104
-109
-107
-94
-85
-95
-94
-75
-86
-86
-1
94
187
342
315
-71
-391
-320
-175
-194
-213
-177
-181
-198
-182
-176
-177
-160
-146
-138
-112
-75
-44
-1
65
131
195
269
334
360
351
339
316
248
163
96
34
-23
-42
-37
-46
-61
-56
-39
-34
-39
-18
44
132
228
381
657
950
1099
1237
1471
1432
862
171
-199
-316
-373
-396
-391
-394
-406
-424
-450
-481
-523
-563
-593
-643
-705
-745
-764
-752
-679
-569
-433
-243
-49
79
165
227
228
183
154
143
113
90
91
75
54
79
105
87
80
93
74
45
57
82
84
83
96
100
81
62
48
28
17
18
4
-16
12
80
111
75
35
28
11
-12
3
10
-18
-7
7
-44
-26
88
194
499
947
816
52
-406
-297
-203
-268
-267
-235
-242
-247
-245
-226
-191
-185
-188
-151
-108
-92
-57
16
79
116
169
246
284
272
269
268
200
97
33
-12
-64
-89
-89
-100
-119
-129
-128
-119
-114
-112
-104
-98
-97
-79
-37
-9
-16
-44
-69
-79
-93
-123
-123
-91
-88
-98
-75
-68
-54
30
123
239
388
289
-110
-344
-251
-167
-194
-178
-135
-126
-113
-81
-50
-28
-15
-1
25
50
72
105
152
203
256
305
348
376
381
356
298
218
143
87
49
25
18
21
29
41
41
26
25
48
87
159
233
284
436
713
881
945
1166
1342
1020
385
-59
-247
-341
-371
-367
-384
-399
-405
-423
-445
-471
-512
-559
-599
-625
-633
-640
-647
-611
-520
-402
-265
-126
-19
57
109
112
64
19
-4
-34
-78
-105
-115
-129
-138
-130
-128
-145
-157
-159
-160
-155
-151
-167
-178
-160
-137
-136
-145
-153
-155
-142
-130
-139
-143
-96
-19
24
18
-11
-32
-37
-35
-21
-12
-27
-8
43
20
13
169
326
449
721
782
254
-262
-208
-18
-51
-74
-17
-17
-34
-22
-15
-13
-1
27
64
62
39
78
155
198
244
339
426
462
469
455
415
356
266
157
75
29
-17
-60
-72
-65
-67
-65
-43
-14
12
67
158
244
383
667
961
1119
1302
1544
1455
861
154
-275
-427
-472
-511
-538
-526
-508
-519
-534
-538
-554
-586
-622
-658
-688
-710
-724
-714
-654
-549
-409
-230
-45
83
141
153
140
115
90
70
56
39
16
8
13
4
-11
-6
6
7
1
-4
1
9
1
-10
-3
3
-2
-14
-47
-78
-64
-41
-52
-47
2
33
19
-11
-49
-83
-80
-54
-59
-81
-65
-52
-97
-83
47
151
273
493
442
-32
-362
-257
-121
-148
-157
-137
-162
-174
-158
-162
-172
-154
-127
-119
-109
-76
-33
10
60
118
183
242
287
326
342
310
266
232
172
98
55
28
-1
-8
8
11
5
9
16
26
58
86
67
40
73
119
90
11
-33
-43
-64
-83
-68
-48
-57
-73
-82
-74
-13
81
186
339
363
49
-306
-303
-130
-101
-138
-123
-113
-118
-107
-105
-115
-108
-88
-62
-17
38
76
108
162
227
274
312
363
400
390
345
289
225
153
88
44
26
21
7
-8
-14
-27
-46
-39
-5
48
120
171
251
470
700
784
924
1177
1110
585
54
-216
-354
-424
-431
-443
-465
-461
-461
-480
-496
-521
-579
-635
-664
-686
-714
-725
-701
-639
-538
-404
-260
-127
-14
63
94
86
46
1
-13
-4
-13
-31
-36
-42
-54
-51
-34
-29
-48
-70
-80
-83
-77
-64
-64
-71
-76
-94
-109
-83
-50
-67
-90
-57
15
71
69
23
-2
2
-1
13
35
10
2
44
26
21
177
321
391
589
640
188
-263
-210
-29
-53
-80
-36
-45
-60
-29
-18
-32
-20
17
53
80
89
102
148
229
322
401
456
512
561
543
463
378
294
201
121
49
-31
-82
-91
-95
-101
-100
-117
-124
-59
30
58
93
262
531
753
861
964
1208
1463
1344
767
140
-209
-360
-440
-454
-453
-490
-508
-492
-491
-516
-563
-619
-644
-653
-697
-765
-811
-800
-718
-604
-492
-338
-154
-34
20
64
83
51
2
-38
-69
-87
-79
-59
-58
-76
-81
-67
-56
-56
-60
-62
-61
-59
-59
-63
-66
-79
-99
-87
-54
-69
-112
-74
37
101
81
40
27
30
18
12
37
47
37
38
19
41
180
305
439
743
819
292
-243
-214
-22
-59
-120
-78
-63
-87
-87
-76
-73
-55
-29
-29
-38
-8
44
84
132
203
277
349
403
407
383
359
305
205
98
23
-18
-57
-109
-130
-108
-94
-111
-123
-114
-87
-54
-42
-47
-16
49
66
20
-32
-66
-100
-113
-100
-103
-121
-111
-120
-173
-131
17
108
254
511
429
-92
-400
-258
-121
-155
-162
-123
-106
-111
-126
-121
-95
-86
-75
-44
-40
-43
8
75
112
166
249
302
319
326
310
270
212
116
21
-17
-47
-102
-107
-62
-71
-124
-127
-93
-74
-39
45
117
175
361
658
833
931
1183
1342
1002
375
-84
-317
-454
-513
-526
-551
-568
-559
-558
-574
-584
-600
-634
-658
-664
-675
-669
-610
-521
-421
-286
-131
1
111
195
227
228
217
166
95
62
61
51
26
3
0
11
10
-11
-28
-25
-12
-13
-31
-36
-24
-24
-37
-31
-23
-46
-69
-44
-6
-10
-22
18
70
77
58
48
46
44
36
31
29
14
13
20
-25
-55
34
147
252
406
360
-33
-330
-234
-73
-76
-87
-49
-37
-33
-13
-5
-4
11
28
35
45
73
111
145
181
237
303
355
394
427
438
418
377
307
213
134
87
53
16
-23
-44
-43
-47
-64
-69
-64
-56
-32
3
43
125
250
353
454
622
803
961
1226
1532
1487
920
195
-267
-428
-463
-480
-504
-529
-526
-506
-521
-570
-602
-621
-661
-707
-734
-762
-793
-797
-765
-698
-586
-442
-286
-133
-21
27
28
2
-38
-65
-76
-101
-136
-152
-150
-145
-138
-130
-115
-105
-114
-112
-79
-60
-61
-52
-49
-61
-50
-28
-52
-83
-28
83
128
95
63
62
60
49
56
76
80
89
98
66
101
270
397
530
798
759
180
-248
-142
-5
-66
-80
-53
-84
-86
-58
-72
-80
-50
-31
-16
15
22
12
53
138
205
263
334
372
364
354
334
262
160
76
9
-50
-90
-107
-116
-124
-121
-121
-144
-143
-86
-27
18
88
194
391
681
899
1040
1300
1526
1320
727
138
-252
-453
-510
-508
-517
-524
-524
-538
-554
-561
-574
-603
-636
-666
-694
-716
-713
-662
-568
-450
-303
-133
12
119
224
272
221
237
388
459
488
736
918
600
69
-212
-297
-306
-220
-145
-155
-182
-210
-233
-209
-184
-214
-246
-235
-218
-205
-152
-57
32
104
194
286
311
262
194
136
74
18
-10
-24
-37
-41
-36
-33
-28
-22
-24
-29
-24
-17
-13
-4
6
2
-3
5
6
-4
-3
-2
-16
-28
-23
-19
-21
-25
-33
-31
-1
42
81
156
263
321
368
518
666
639
517
404
252
104
11
-137
-326
-364
-266
-218
-249
-275
-279
-270
-261
-289
-340
-352
-342
-372
-427
-458
-463
-439
-368
-269
-175
-87
1
77
132
166
183
187
195
204
200
193
205
230
269
320
369
461
615
707
723
848
1002
852
422
56
-133
-222
-242
-235
-244
-249
-252
-269
-291
-319
-359
-403
-453
-499
-515
-520
-522
-458
-318
-173
-57
49
125
144
127
108
95
68
32
35
88
125
108
72
36
-6
-27
-28
-46
-48
-13
-18
-67
-55
-24
-66
-41
119
222
314
526
482
-12
-372
-282
-150
-178
-182
-141
-136
-143
-152
-158
-123
-73
-67
-71
-30
26
66
122
199
274
354
428
445
400
330
239
131
34
-42
-94
-124
-156
-176
-160
-149
-169
-164
-124
-101
-86
-25
78
184
279
391
546
691
798
996
1256
1206
675
45
-318
-457
-518
-539
-545
-551
-550
-550
-572
-606
-626
-638
-677
-736
-769
-778
-789
-788
-738
-641
-518
-376
-218
-78
11
64
102
123
155
181
161
216
419
557
644
1033
1546
1507
842
124
-263
-317
-188
-72
-75
-129
-148
-146
-154
-160
-153
-132
-94
-76
-103
-119
-70
21
121
234
335
373
352
312
259
186
116
71
53
33
2
-10
1
4
0
-4
-22
-34
-33
-49
-51
-9
6
-25
-17
15
-14
-53
-19
13
-22
-24
60
130
174
278
425
587
783
910
915
922
864
578
256
78
-149
-448
-566
-506
-460
-446
-442
-478
-503
-478
-474
-527
-605
-691
-753
-764
-755
-747
-704
-602
-466
-331
-211
-99
1
63
92
112
133
149
155
145
130
127
130
120
113
119
109
85
81
88
70
47
61
81
56
22
36
62
45
13
24
44
32
29
58
58
18
5
25
24
7
2
3
9
14
-8
-32
-2
46
49
43
89
141
137
98
78
71
53
52
76
73
58
74
67
44
102
224
357
474
367
-30
-303
-204
-42
-37
-61
-50
-52
-53
-50
-61
-62
-40
-24
-21
-13
6
36
72
109
151
205
260
303
334
345
314
258
208
159
100
49
5
-44
-72
-62
-56
-71
-77
-69
-59
-36
-4
15
26
47
54
22
-27
-56
-70
-85
-86
-76
-87
-102
-97
-121
-145
-71
45
163
352
371
-24
-418
-385
-216
-221
-258
-228
-216
-231
-253
-271
-255
-228
-227
-217
-180
-161
-154
-98
3
101
184
260
317
343
333
281
203
106
-12
-111
-166
-197
-215
-220
-229
-232
-210
-202
-211
-189
-162
-157
-106
-14
0
-66
-99
-80
-85
-115
-109
-84
-93
-84
-57
-89
-68
110
254
323
444
340
-122
-383
-195
-35
-79
-72
-24
-52
-61
-19
-9
-23
-13
3
17
43
72
102
145
210
301
404
479
509
506
464
376
274
182
94
26
-8
-34
-67
-84
-78
-80
-90
-73
-39
-31
-30
17
102
189
261
325
430
606
778
906
1137
1494
1626
1210
432
-213
-485
-525
-539
-562
-565
-572
-593
-594
-582
-603
-643
-670
-694
-718
-741
-770
-773
-722
-644
-536
-362
-173
-38
69
174
221
194
155
129
95
83
109
106
66
60
70
44
20
15
2
-1
6
-18
-41
-12
-2
-54
-69
1
49
13
-25
-7
10
-18
-33
0
7
-16
11
37
-1
26
137
198
325
527
391
-78
-290
-145
-63
-109
-108
-94
-116
-123
-117
-116
-108
-97
-90
-75
-56
-40
-9
50
114
163
209
269
322
341
339
323
262
166
98
58
2
-34
-26
-37
-71
-62
-38
-37
-20
2
-10
-2
51
62
7
-33
-43
-77
-111
-97
-76
-75
-25
55
68
114
314
519
657
802
710
213
-231
-279
-213
-244
-250
-206
-195
-204
-198
-183
-174
-183
-193
-192
-195
-210
-216
-209
-197
-176
-138
-85
-27
28
78
119
128
107
86
67
41
23
21
10
-9
-18
-25
-25
-6
7
5
27
76
101
80
36
-4
-34
-45
-23
5
-12
-30
0
3
-13
68
183
293
522
620
232
-235
-258
-96
-98
-139
-121
-124
-138
-135
-149
-156
-133
-134
-165
-152
-97
-68
-41
34
112
162
221
290
324
316
283
216
107
-12
-91
-128
-158
-194
-211
-206
-216
-246
-245
-197
-178
-208
-197
-110
-32
-27
-73
-111
-112
-112
-121
-103
-88
-102
-91
-80
-99
-7
172
269
414
597
363
-198
-393
-202
-138
-201
-160
-101
-134
-197
-206
-140
-88
-132
-165
-98
-41
-35
19
103
152
226
350
432
447
443
415
336
217
104
40
9
-30
-62
-61
-61
-86
-101
-80
-42
-19
-12
51
195
344
514
759
958
1063
1289
1629
1676
1201
459
-141
-421
-487
-502
-513
-522
-539
-543
-543
-580
-629
-637
-642
-703
-777
-797
-784
-781
-750
-639
-476
-321
-168
-8
106
148
172
183
139
92
104
120
93
75
81
71
52
49
56
61
43
14
22
52
36
-26
-79
-81
-37
-3
-15
-14
58
128
110
44
2
-15
-18
-9
-27
-51
-25
-8
-39
4
93
122
311
661
590
35
-274
-154
-82
-136
-107
-61
-81
-91
-73
-72
-76
-70
-57
-35
-7
11
24
62
130
189
223
261
316
341
315
277
248
189
105
51
26
-15
-58
-47
-16
-43
-91
-65
-6
-6
-30
-11
24
42
49
32
-4
-25
-39
-58
-52
-40
-56
-53
-26
4
108
263
355
425
432
154
-246
-368
-283
-276
-305
-279
-261
-262
-246
-233
-225
-210
-205
-204
-194
-188
-187
-172
-134
-82
-28
22
78
131
160
172
171
137
76
21
-15
-42
-62
-79
-99
-114
-113
-105
-101
-92
-68
-39
-19
1
36
49
3
-39
-23
-16
-41
-31
9
24
-9
-47
30
195
339
612
946
758
76
-272
-117
-26
-99
-79
-15
-27
-51
-40
-14
14
43
