# session 83
-7
-4
-26
-16
15
5
-8
12
14
-10
-12
5
17
22
33
60
83
95
138
201
223
250
334
374
314
264
260
197
79
9
-19
-61
-93
-94
-99
-115
-119
-126
-148
-161
-154
-140
-124
-107
-80
-41
-18
-27
-45
-52
-54
-56
-49
-24
-8
-16
-11
-1
-9
30
129
207
292
337
125
-215
-285
-132
-72
-105
-96
-79
-88
-87
-80
-87
-88
-75
-67
-59
-44
-32
-24
-3
29
64
109
165
215
243
255
273
286
247
157
75
14
-61
-123
-128
-124
-146
-136
-86
-45
14
94
187
407
707
868
1045
1377
1380
793
153
-166
-330
-425
-416
-399
-419
-431
-436
-451
-462
-471
-490
-520
-562
-596
-601
-596
-589
-550
-460
-341
-214
-87
16
91
157
193
167
120
101
78
38
22
29
30
28
27
19
17
21
16
18
36
42
34
32
33
39
48
43
43
74
92
65
57
83
71
24
21
48
29
-4
29
108
158
150
109
80
69
52
52
69
50
37
81
72
26
131
313
463
720
827
343
-277
-347
-146
-158
-233
-215
-225
-263
-247
-228
-247
-258
-239
-216
-200
-187
-166
-124
-82
-52
-1
89
182
251
306
347
367
367
345
291
207
124
60
9
-39
-79
-106
-120
-113
-114
-143
-153
-125
-112
-126
-118
-74
-26
-2
-21
-83
-136
-136
-112
-116
-143
-170
-168
-117
-101
-158
-121
43
184
378
573
334
-233
-442
-268
-199
-237
-188
-155
-190
-184
-139
-126
-124
-96
-61
-33
-4
22
44
81
134
178
224
287
346
385
410
412
377
305
210
108
11
-68
-105
-99
-94
-117
-124
-102
-99
-114
-100
-65
-37
-22
-15
7
51
75
58
30
8
-5
-4
4
2
-11
-8
9
-11
-28
51
174
324
553
579
161
-266
-280
-147
-145
-161
-141
-147
-151
-134
-124
-120
-113
-108
-94
-67
-35
-11
3
19
53
95
119
143
193
233
238
239
241
205
136
59
-13
-62
-79
-94
-112
-107
-90
-88
-94
-87
-70
-47
-35
-42
-39
-2
26
2
-46
-74
-78
-85
-102
-105
-90
-93
-95
-71
-81
-100
-22
104
212
325
250
-134
-436
-363
-208
-203
-215
-185
-184
-197
-187
-174
-171
-170
-162
-146
-124
-101
-78
-49
-13
23
73
145
220
280
317
338
352
337
272
186
106
31
-29
-56
-60
-65
-79
-104
-117
-110
-104
-99
-69
-37
-42
-35
29
81
59
10
-11
-18
-34
-44
-36
-26
-16
9
-4
-47
22
164
254
468
759
558
-82
-367
-181
-70
-110
-97
-83
-103
-93
-80
-81
-54
-29
-42
-41
-7
10
14
56
109
133
165
233
302
349
381
407
412
351
241
156
79
-19
-74
-77
-94
-117
-117
-121
-133
-119
-46
63
143
263
563
907
1100
1315
1627
1595
971
174
-334
-530
-581
-598
-618
-637
-644
-648
-657
-669
-684
-713
-749
-772
-790
-818
-845
-859
-855
-808
-706
-574
-423
-255
-107
2
92
137
109
61
51
59
48
37
43
57
60
54
59
78
82
68
61
64
61
59
55
43
42
48
37
22
25
14
-7
-4
-1
-19
7
85
136
132
113
111
123
123
107
99
96
100
129
118
71
146
308
423
634
825
509
-83
-230
-37
-13
-72
-28
-18
-61
-55
-45
-66
-65
-47
-54
-64
-48
-25
-14
1
34
74
120
183
246
283
305
326
323
284
231
170
102
42
-6
-46
-76
-96
-99
-91
-81
-39
44
124
254
519
799
1006
1246
1383
1063
399
-118
-331
-415
-471
-480
-444
-425
-470
-508
-479
-454
-494
-544
-568
-577
-580
-587
-585
-548
-498
-438
-320
-165
-49
30
94
116
90
58
37
16
3
3
3
-4
-4
11
21
22
26
32
33
35
40
38
27
15
6
5
5
-12
-31
-35
-45
-70
-83
-72
-61
-70
-78
-44
13
27
-1
-19
-26
-41
-44
-30
-27
-41
-35
-20
-43
-38
68
190
297
403
275
-144
-396
-272
-135
-160
-173
-139
-134
-131
-108
-83
-61
-53
-56
-51
-33
-5
27
51
72
111
165
215
262
316
369
413
437
425
378
325
272
207
134
65
15
-12
-30
-46
-57
-63
-72
-63
-34
-31
-54
-27
39
57
30
2
-28
-48
-47
-42
-41
-47
-32
19
12
-34
70
257
381
583
691
273
-299
-348
-126
-114
-153
-97
-107
-155
-121
-75
-82
-98
-102
-96
-79
-66
-55
-39
-19
22
89
154
211
276
326
345
345
302
194
60
-54
-142
-203
-243
-275
-289
-273
-264
-292
-305
-262
-226
-233
-219
-169
-123
-85
-74
-105
-128
-120
-129
-138
-109
-95
-113
-93
-70
-94
-21
161
269
384
528
309
-206
-377
-175
-86
-130
-112
-98
-121
-100
-71
-85
-100
-84
-59
-42
-31
-20
1
33
73
119
172
231
300
383
441
385
217
82
48
14
-65
-126
-159
-186
-186
-169
-167
-165
-147
-122
-93
-75
-82
-73
-6
69
86
57
29
17
12
2
0
6
-1
9
43
22
22
160
281
404
736
848
297
-273
-245
-62
-98
-116
-52
-61
-80
-46
-24
-15
13
25
9
14
42
54
59
84
119
151
194
248
293
314
314
298
264
202
113
26
-33
-70
-113
-147
-144
-135
-155
-188
-210
-212
-192
-180
-179
-145
-96
-88
-114
-142
-168
-181
-185
-184
-177
-174
-159
-148
-183
-175
-68
18
175
512
564
49
-405
-360
-219
-249
-262
-219
-214
-206
-175
-162
-156
-135
-116
-101
-75
-43
-16
31
112
183
225
271
324
351
365
385
383
336
265
198
122
37
-1
8
-11
-58
-79
-89
-117
-127
-106
-93
-100
-99
-65
-17
-7
-47
-94
-112
-119
-139
-149
-140
-141
-140
-135
-160
-139
-12
100
193
305
186
-199
-392
-265
-177
-199
-176
-150
-165
-152
-123
-112
-89
-56
-32
0
35
60
86
125
173
219
256
289
330
365
376
373
362
329
260
177
114
76
43
13
3
9
2
-18
-20
-6
11
39
74
124
223
334
412
529
705
835
969
1209
1330
1048
483
-13
-271
-352
-374
-391
-397
-390
-392
-412
-442
-466
-489
-528
-577
-617
-645
-665
-677
-676
-644
-563
-436
-277
-124
-30
14
70
125
122
74
23
-20
-45
-56
-91
-132
-126
-109
-136
-162
-143
-114
-111
-124
-121
-92
-71
-81
-89
-69
-46
-55
-81
-66
-2
43
36
12
-13
-40
-40
-4
12
-13
-7
26
-12
2
194
365
506
801
824
222
-302
-213
-24
-86
-128
-76
-80
-110
-105
-95
-95
-106
-122
-120
-109
-97
-67
-40
-24
28
106
161
224
310
357
350
337
307
238
157
80
-4
-76
-110
-111
-116
-126
-112
-82
-35
69
192
294
505
866
1173
1403
1721
1895
1498
677
-1
-302
-397
-438
-455
-470
-496
-519
-530
-546
-575
-599
-623
-670
-717
-729
-745
-784
-771
-686
-590
-478
-318
-150
-14
99
183
215
208
176
131
104
96
81
72
85
90
70
50
49
65
66
30
0
15
27
10
5
3
-34
-54
-19
-8
-55
-81
-64
-46
-26
12
57
95
85
28
9
33
30
5
-14
-19
-2
-14
-39
45
172
281
555
768
407
-185
-301
-117
-105
-157
-122
-111
-126
-111
-106
-111
-90
-63
-55
-44
-19
2
12
32
71
111
151
212
274
300
305
304
293
265
217
140
50
-26
-67
-92
-143
-186
-172
-151
-170
-184
-169
-151
-137
-123
-110
-94
-89
-114
-142
-147
-152
-157
-133
-114
-111
-69
-49
-97
-59
90
200
316
377
109
-278
-306
-124
-105
-153
-114
-85
-102
-88
-51
-34
-31
-26
-9
18
33
43
66
98
127
162
209
259
301
321
322
315
290
232
147
60
2
-30
-63
-94
-101
-100
-121
-146
-138
-107
-88
-90
-82
-39
9
7
-37
-64
-54
-47
-67
-83
-83
-80
-62
-45
-66
-50
52
172
355
557
411
-77
-331
-200
-98
-136
-147
-136
-130
-101
-93
-117
-106
-70
-58
-52
-29
-5
18
48
71
90
127
182
236
287
330
337
299
237
165
71
-28
-87
-111
-134
-148
-149
-160
-170
-145
-98
-37
57
171
354
663
936
1054
1241
1528
1423
746
31
-296
-377
-423
-446
-447
-465
-490
-498
-505
-539
-590
-622
-643
-694
-757
-782
-783
-796
-803
-762
-658
-503
-329
-169
-37
62
122
132
104
71
50
32
20
19
14
1
11
44
49
23
17
42
55
41
25
20
26
43
63
55
22
17
57
74
47
59
138
208
212
183
165
160
151
156
175
160
145
172
155
112
196
340
482
771
921
470
-142
-227
-36
-20
-63
-41
-47
-63
-43
-37
-49
-46
-36
-23
-8
0
13
38
61
83
117
170
226
263
292
322
328
301
263
213
142
72
7
-58
-91
-88
-102
-141
-159
-147
-136
-128
-110
-101
-102
-78
-35
-42
-100
-135
-132
-137
-144
-143
-164
-165
-132
-151
-171
-74
36
134
325
344
-46
-400
-354
-217
-221
-223
-186
-176
-168
-152
-151
-150
-134
-109
-88
-86
-86
-59
-24
-1
29
86
146
187
219
255
278
265
207
135
67
-17
-102
-139
-149
-169
-170
-159
-198
-247
-226
-171
-158
-179
-176
-135
-101
-116
-138
-126
-116
-125
-104
-63
-67
-78
-56
-73
-89
22
154
201
245
169
-157
-394
-293
-130
-95
-74
-35
-16
-3
-6
-11
27
66
63
59
80
99
113
129
150
190
247
299
345
389
425
451
449
400
328
251
169
104
67
33
12
12
0
-12
9
46
110
196
260
421
743
973
1107
1429
1631
1184
421
-47
-253
-384
-402
-380
-415
-436
-432
-469
-499
-487
-505
-566
-607
-622
-650
-689
-705
-681
-623
-541
-431
-295
-162
-56
25
80
86
55
21
-19
-58
-64
-56
-83
-111
-101
-93
-104
-96
-81
-86
-85
-70
-67
-62
-35
-20
-29
-27
-19
-36
-48
-22
-13
-43
-27
59
110
79
40
33
25
10
19
28
15
29
53
19
49
215
367
570
839
667
10
-329
-158
-79
-176
-149
-96
-142
-160
-134
-137
-134
-116
-129
-134
-94
-63
-58
-30
13
45
107
211
307
365
391
402
405
383
323
242
164
91
40
11
-31
-106
-174
-195
-177
-145
-127
-131
-121
-66
3
35
11
-42
-66
-57
-59
-60
-41
-41
-42
-15
-28
-34
99
264
383
572
579
124
-309
-254
-66
-85
-128
-80
-55
-79
-94
-84
-70
-57
-47
-39
-26
-8
-4
2
42
94
132
185
268
339
357
339
323
279
168
47
-25
-85
-148
-177
-189
-221
-254
-270
-274
-261
-234
-221
-220
-200
-153
-108
-104
-142
-177
-183
-185
-178
-152
-145
-144
-105
-103
-126
-15
135
206
435
682
390
-189
-325
-143
-118
-166
-135
-125
-136
-120
-118
-127
-116
-101
-98
-100
-85
-43
-15
-9
31
103
155
194
246
298
319
282
207
158
125
37
-82
-143
-145
-139
-134
-117
-106
-119
-126
-92
-54
-54
-54
-10
41
41
5
-13
-6
-11
-4
33
29
-8
9
25
-1
58
168
241
452
670
412
-122
-280
-124
-81
-123
-99
-71
-68
-65
-62
-44
-23
-24
-11
27
42
44
73
108
136
181
224
241
263
311
345
332
291
234
164
97
44
-7
-37
-36
-40
-61
-70
-66
-67
-61
-42
-36
-52
-56
-39
-39
-71
-100
-114
-128
-129
-114
-113
-109
-78
-94
-154
-111
-1
64
248
483
291
-240
-463
-320
-242
-287
-285
-253
-241
-233
-228
-223
-210
-200
-195
-181
-158
-132
-103
-71
-36
4
57
127
199
247
268
279
269
208
121
56
15
-33
-74
-87
-85
-92
-103
-103
-85
-56
-32
-2
79
221
376
554
757
885
977
1242
1526
1339
653
-9
-336
-449
-489
-506
-529
-539
-519
-510
-526
-540
-561
-595
-625
-657
-699
-733
-750
-755
-740
-686
-576
-412
-236
-93
30
165
273
296
259
215
184
166
157
148
138
131
123
122
124
114
108
113
105
95
107
115
95
68
74
114
108
46
52
149
208
193
166
147
114
78
75
89
79
93
138
109
94
236
417
634
942
892
271
-215
-161
-37
-81
-76
-36
-67
-87
-68
-63
-66
-59
-48
-27
-12
-10
9
41
54
79
139
196
238
287
312
292
269
238
168
91
23
-62
-141
-176
-194
-218
-239
-251
-261
-263
-246
-221
-201
-179
-135
-93
-90
-122
-140
-138
-144
-140
-110
-107
-120
-81
-58
-74
13
154
239
414
552
236
-266
-355
-185
-172
-225
-192
-168
-181
-180
-177
-186
-190
-181
-170
-157
-142
-136
-132
-98
-35
19
64
125
204
277
305
273
210
149
83
5
-64
-108
-133
-143
-138
-129
-123
-120
-105
-60
-10
-9
-42
-42
-3
19
-5
-41
-58
-69
-89
-92
-94
-114
-94
-63
-103
-103
23
133
263
483
427
-33
-324
-207
-94
-131
-114
-63
-89
-121
-95
-69
-84
-94
-68
-53
-68
-61
-20
15
42
77
119
169
218
251
271
272
246
207
159
84
5
-42
-70
-96
-106
-100
-90
-86
-76
-22
64
125
243
500
727
841
1022
1133
790
173
-218
-340
-416
-465
-457
-454
-469
-468
-468
-489
-503
-502
-512
-533
-544
-549
-557
-548
-501
-416
-302
-166
-15
133
242
293
310
320
306
271
248
246
240
228
224
229
240
256
261
257
260
261
253
251
253
242
236
256
268
238
203
196
191
177
163
137
130
188
249
226
158
125
114
90
79
90
83
83
106
79
70
207
355
464
668
652
125
-339
-274
-117
-192
-257
-220
-215
-237
-243
-258
-282
-276
-250
-256
-281
-273
-261
-270
-254
-207
-175
-145
-98
-66
-58
-63
-91
-142
-214
-318
