# session 253
-3
-2175
-2215
-680
160
-83
-203
-65
123
356
290
637
1283
-689
-4556
-4640
-947
709
-120
-111
176
-180
83
143
-1079
-1906
-1924
-2164
-1564
95
693
140
-40
32
-59
90
387
496
520
541
514
464
417
360
273
234
286
238
156
282
217
20
529
407
-2483
-5535
-4451
-805
953
608
439
696
517
287
635
676
-394
-1441
-1488
-1055
-375
612
1141
637
-336
-725
-242
301
377
378
500
525
500
522
524
537
590
601
569
558
580
640
666
616
671
776
671
703
1004
806
541
1171
808
-1891
-3259
-760
1516
33
-1892
-956
-181
-1890
-2445
-214
1139
511
292
703
718
688
833
819
744
736
705
686
707
694
649
639
651
637
674
811
894
923
1020
927
501
229
346
459
402
329
311
381
410
159
-460
-1547
-2818
-3412
-3029
-1828
-2
957
209
133
1024
-911
-4389
-3497
433
1621
687
737
967
567
518
676
478
408
583
474
369
590
443
253
906
416
-2682
-5158
-5136
-4617
-3260
-280
1689
2182
2577
1463
-281
54
-70
-2081
-1811
610
920
-106
64
483
409
515
627
506
470
473
390
336
277
177
149
159
124
118
194
330
512
674
756
793
802
777
755
720
686
701
647
533
623
708
155
-928
-1456
-916
-770
-2122
-2545
-171
1407
-579
-2361
-1062
448
219
-59
366
640
618
621
705
704
457
281
503
723
620
538
682
810
862
1128
1513
1246
361
133
470
122
81
869
-777
-4510
-4057
246
812
-2041
-2078
-619
-1270
-1564
-41
1143
1080
-671
-2978
-2220
771
1633
852
975
1211
855
766
829
690
633
591
514
556
472
420
667
467
152
907
594
-2562
-4265
-1610
1221
1436
1078
1248
1638
1757
371
-1778
-2503
-2083
-1420
-252
507
44
-455
-340
-261
-293
-168
-25
37
50
16
-20
-45
-65
-46
7
88
238
417
518
558
636
680
569
454
493
487
357
327
299
188
288
306
17
242
483
-685
-1836
-1499
-1407
-1695
-519
811
595
276
594
604
458
577
586
449
414
418
391
366
377
390
329
343
417
293
370
674
357
443
1755
797
-3392
-4643
-1012
1229
87
-64
933
-368
-2676
-2408
-493
-11
-1072
-1729
-1091
-45
196
-197
-186
258
307
291
1008
987
-954
-1983
-223
1361
984
566
784
697
537
638
574
465
608
555
320
525
558
58
520
992
-1462
-4279
-2986
156
1268
554
-1094
-2304
-1613
-698
-697
-35
885
699
462
916
1290
1307
1000
503
345
489
493
442
472
446
414
434
415
396
433
446
425
431
444
432
437
492
548
562
605
660
592
540
626
488
207
347
221
-1326
-3315
-3604
-1956
-180
345
105
110
311
296
186
159
187
234
235
183
186
227
204
156
154
166
200
267
230
144
275
428
402
743
1171
456
-380
257
-168
-3308
-4199
-562
1022
-1986
-2968
-729
-1020
-2491
-697
708
-1040
-1426
546
1104
445
602
844
635
643
737
625
571
615
596
541
481
370
307
405
439
289
307
386
168
272
653
-100
-1264
-797
289
478
522
-90
-1845
-1833
470
777
-1526
-2111
-345
474
-69
-109
280
316
389
590
422
123
159
284
231
205
280
291
248
245
243
225
241
289
318
308
293
316
340
340
377
418
407
450
497
409
381
378
174
153
180
-347
-296
550
-709
-3555
-3238
-264
717
3
177
551
443
733
1182
1253
1507
2015
1954
1155
330
-32
-101
-165
-213
-197
-220
-271
-250
-233
-305
-356
-363
-424
-451
-451
-584
-564
-293
-626
-1420
-933
447
27
-1824
-2005
-453
419
0
-519
-25
496
-1255
-3577
-2499
298
796
82
316
559
304
301
412
351
349
371
340
382
406
328
322
353
268
206
249
326
473
441
227
482
399
-1510
-3327
-2568
-1276
-1382
-917
546
979
650
834
1195
1432
1474
944
357
403
601
509
449
531
538
463
435
469
492
477
470
498
550
567
521
532
597
575
612
709
577
618
966
492
-788
-1587
-2125
-2447
-1280
352
332
-374
-264
-62
-216
-180
-39
-38
24
154
212
255
299
308
381
508
584
701
859
938
1229
1793
1986
1806
1410
-561
-4173
-5684
-2867
253
-557
-2558
-1336
781
-252
-2017
-1439
-1020
-1989
-1530
122
323
-283
-173
35
-44
46
189
232
377
556
605
627
693
726
712
653
598
656
670
533
591
710
454
513
916
26
-1427
-887
527
628
615
734
-776
-2622
-2827
-2510
-2044
-451
920
694
161
269
396
379
531
737
831
965
1269
1409
1010
478
420
615
578
456
547
642
532
474
523
454
519
652
289
270
893
-348
-2857
-1918
1014
154
-2303
-1650
-722
-1503
-717
1194
1230
571
751
765
505
572
601
484
482
453
382
417
450
411
392
448
544
519
413
451
426
278
528
418
-1753
-4563
-3975
-127
1414
-1522
-3406
-572
2061
270
-2203
-1920
-1329
-1719
-945
628
852
341
388
522
413
401
428
409
478
576
587
573
612
680
699
690
725
770
790
806
776
701
656
561
434
443
325
78
424
364
-2470
-6035
-4895
-268
693
-2177
-2841
-1483
-1326
-419
1049
-748
-2890
-841
1687
1257
647
1107
1075
762
838
899
882
1054
1393
1566
1166
535
399
578
555
487
556
590
548
489
429
439
471
419
387
414
383
380
393
298
416
376
-1132
-3087
-2515
-18
967
211
-160
-14
-123
-199
-40
71
101
132
155
181
183
159
165
165
156
237
351
349
296
297
291
253
233
223
212
206
195
265
216
-420
-822
382
1381
-321
-2063
-1189
-939
-2519
-2020
276
675
-57
147
404
227
309
442
365
369
421
393
421
507
505
443
490
628
636
589
634
546
459
595
346
51
612
83
-2222
-1998
361
-1496
-4885
-2331
1039
-1615
-3574
-573
223
-2089
-984
1969
1732
222
7
-111
-352
11
334
262
246
280
207
162
169
139
94
72
40
-15
-45
-23
21
68
132
251
404
464
462
584
645
457
411
454
178
247
640
-114
-1227
-1084
-1398
-2641
-1859
397
866
242
424
622
381
401
504
399
388
446
381
339
379
370
327
340
382
413
441
438
389
359
357
333
316
348
372
348
310
305
391
565
722
823
708
81
-429
93
245
-1677
-3305
-1912
260
472
-43
81
171
28
69
140
128
187
265
280
308
395
478
486
477
532
561
504
475
466
407
390
344
212
275
355
123
181
372
-130
43
951
-677
-3201
-1848
160
-1390
-2521
-1259
-666
-135
1316
1352
319
268
482
251
240
320
197
156
180
130
95
53
-1
-21
-72
-134
-162
-188
-116
-33
-62
179
438
165
515
1002
-1775
-5373
-3303
410
-1916
-4580
-1372
363
-2576
-2561
70
-1024
-2655
-422
1593
881
402
849
713
486
842
899
578
976
1137
-797
-2662
-1322
1129
1500
915
992
1089
940
963
1016
1004
997
882
810
959
1106
1227
1493
1545
975
331
408
709
357
168
646
-237
-2572
-2697
-198
1115
558
396
717
681
660
750
657
593
676
724
728
742
776
803
732
631
613
544
415
396
377
288
260
169
105
285
210
-47
307
254
-992
-1215
-182
-1049
-3360
-3950
-3396
-3034
-1666
137
264
-543
-587
-262
-245
-229
33
454
830
887
600
294
234
346
412
370
348
364
314
354
512
356
246
736
33
-3270
-5784
-4097
-637
1062
1087
632
782
1553
296
-2672
-2668
-588
-1246
-2348
-303
1482
761
267
720
758
675
852
860
796
822
741
685
818
848
725
756
733
534
698
816
329
578
1217
-679
-3442
-2393
683
1283
655
1185
1480
637
92
440
610
-193
-1436
-2098
-1664
-456
398
258
-75
37
167
136
232
399
479
521
558
591
635
677
715
727
681
618
609
611
510
400
430
401
282
404
395
24
336
660
-1537
-4401
-3056
753
921
-1655
-1899
-816
-1256
-1028
940
1793
1386
1772
2340
1981
1331
825
377
196
222
150
27
27
97
64
-71
-79
-42
-229
-267
-96
-470
-617
140
-1108
-4687
-4771
-918
-168
-2695
-2372
533
1586
120
-1680
-2031
-1514
-1481
-970
367
762
362
266
252
628
615
-1576
-3450
-1714
877
1053
490
739
874
732
800
848
776
781
799
760
737
719
678
693
737
667
616
695
692
771
1044
998
937
963
-513
-2559
-2082
-815
-1601
-1674
420
1322
605
612
950
702
591
717
642
575
635
654
687
789
856
861
847
848
892
922
842
716
649
560
428
403
379
256
314
398
160
224
562
-147
-1165
-591
191
-944
-2682
-2983
-1646
248
652
-396
148
1331
-1327
-4928
-2878
1745
2304
565
333
529
174
162
321
199
129
202
198
105
77
104
-8
-104
-51
-246
-397
-26
-317
-1713
-2616
-3211
-4195
-3117
278
1578
9
-904
-1241
-2435
-2165
212
1427
853
685
1025
975
903
1018
989
892
897
915
876
823
839
894
884
849
832
754
685
679
603
588
702
614
559
759
448
320
1425
415
-4323
-5989
-1830
141
-2315
-2354
-465
-1779
-3180
-1057
797
208
-224
163
225
286
650
832
839
902
942
938
955
981
1010
1031
1028
1035
1020
924
833
814
743
613
594
572
423
454
570
191
-464
-659
-93
856
806
-723
-1581
-727
-330
-1381
-1982
-861
771
1154
491
186
332
239
75
146
250
258
219
155
86
20
-29
-60
-127
-193
-176
-139
-137
-92
40
203
329
394
441
470
429
354
283
223
221
119
-154
8
474
-507
-2925
-3621
-1493
466
469
-59
-119
-110
-127
-41
36
113
237
295
273
292
379
445
457
451
447
463
440
337
396
550
360
291
606
230
-41
1124
444
-3418
-4451
-1281
-323
-2294
-2939
-2468
-1783
-41
1167
763
541
899
838
707
834
758
597
657
704
646
682
755
720
695
766
828
794
723
760
797
611
584
756
333
125
979
-177
-4329
-5652
-2155
448
436
405
-930
-3628
-3321
-250
964
232
227
571
161
-151
206
528
487
439
482
519
618
760
894
1095
1124
678
193
227
455
387
266
357
368
265
331
295
123
382
376
-582
-679
481
-215
-2719
-2977
-764
626
693
791
888
765
714
639
436
331
354
346
304
313
368
395
364
314
288
290
296
272
247
293
360
336
298
324
264
156
209
227
143
255
210
-70
286
340
-1577
-3360
-2583
-1283
-1133
-691
69
1
-184
86
139
-9
46
105
82
135
184
171
189
219
209
251
368
417
426
525
565
513
627
658
478
642
608
-77
321
794
-2317
-5586
-3251
34
-1347
-2995
-2051
-1900
-1999
-102
1329
892
654
994
938
780
815
766
685
697
706
669
635
627
596
590
717
814
922
1342
1351
390
134
873
-514
-3565
-3236
105
1060
-51
505
910
-938
-1514
-45
-638
-2309
-1053
1075
973
442
841
972
748
781
827
770
744
648
516
484
481
426
373
376
378
334
351
423
423
483
589
568
864
1394
1239
1354
2546
1515
-2857
-4716
-1381
1276
-296
-2233
-2070
-1906
-1695
193
727
-2527
-4616
-2039
739
598
58
351
281
25
169
294
280
453
692
730
727
790
670
553
668
461
312
938
223
-2843
-4051
-1391
1016
846
128
317
879
349
-1468
-2416
-1995
-1804
-1231
386
1116
577
409
585
445
405
539
514
499
566
528
470
510
545
525
496
484
508
536
565
638
728
928
1306
1436
980
323
55
358
521
0
162
864
-1500
-5707
-5017
-577
84
-2232
-2301
-1183
-755
258
1205
939
744
1060
1061
963
1039
986
871
804
747
739
579
390
726
1134
776
255
308
408
296
349
396
285
311
352
357
573
492
192
750
817
-1259
-2194
341
1749
-556
-2180
-1261
-802
-1049
-341
231
-250
-553
-325
-252
-251
-147
-174
-260
-231
-206
-273
-351
-381
-388
-437
-507
-485
-375
-285
-189
-27
121
219
313
352
321
325
334
280
267
258
190
261
318
125
253
250
-1516
-3459
-2456
-565
-1108
-1821
-335
1050
606
-408
-658
-7
651
609
446
608
655
532
529
526
437
381
349
485
975
1309
887
197
24
185
199
133
139
153
156
159
147
126
111
113
124
130
156
139
86
189
243
0
129
520
-687
-3137
-3373
-881
821
408
-136
58
215
153
151
165
137
123
118
116
121
102
86
120
161
149
107
88
93
92
89
102
110
113
136
139
122
169
247
396
768
1022
638
16
-135
1
-11
-63
-38
-54
-82
-47
-22
-52
-86
-84
-48
-13
0
13
25
21
39
92
122
114
130
159
137
70
17
-11
-34
-65
-102
-118
-90
-59
-76
-101
-81
-47
-55
-85
-72
-7
52
55
21
-4
-19
-32
-24
-9
-22
-23
7
-5
-26
48
154
313
652
816
406
-130
-218
-70
-45
-87
-101
-104
-91
-67
-53
-64
-84
-65
-32
-50
-39
20
-1
-4
108
79
28
211
118
-83
419
164
-1912
-2596
-505
493
-269
245
198
-2655
-3888
-1243
670
73
-214
200
119
24
189
141
34
59
43
17
51
53
31
53
88
64
21
87
219
308
439
519
251
-137
-191
-63
-46
-49
-28
-29
-1
3
-23
18
-3
-49
97
73
-97
303
200
-1824
-3354
-1794
500
818
382
497
540
372
365
345
254
248
241
193
212
265
282
282
285
285
279
267
273
319
372
383
354
322
306
295
290
294
287
293
322
305
281
353
450
587
890
1014
603
140
132
260
209
159
183
185
186
203
198
182
177
188
206
209
203
218
242
261
274
278
274
270
269
278
263
195
160
167
73
5
113
47
-141
70
67
-419
50
447
-1963
-4421
-2673
316
511
-177
136
213
-97
-52
-4
-115
-106
-91
-124
-109
-133
-151
-91
-43
104
337
223
-216
-420
-333
-292
-346
