# session 68
-84
-21
110
253
416
635
812
956
1221
1509
1442
885
159
-325
-479
-489
-507
-527
-518
-508
-520
-535
-545
-567
-594
-617
-652
-696
-722
-736
-747
-712
-606
-468
-327
-175
-26
95
179
229
246
230
226
358
615
801
944
1261
1490
1143
437
1
-90
-133
-192
-210
-229
-261
-274
-283
-313
-332
-318
-316
-363
-402
-360
-273
-221
-183
-95
19
101
158
200
198
163
139
129
115
100
86
77
86
103
104
93
90
92
89
83
75
70
72
65
47
43
54
45
15
-1
5
6
-9
-21
-26
-31
-28
-19
-29
-50
-59
-52
-46
-48
-58
-69
-71
-58
-48
-66
-93
-90
-84
-117
-133
-83
-49
-83
-82
7
70
52
37
48
45
40
43
20
3
34
44
12
66
207
330
470
517
202
-237
-310
-129
-72
-107
-95
-84
-94
-86
-77
-83
-81
-63
-52
-54
-41
-8
19
44
87
143
199
254
296
312
302
276
240
188
115
46
3
-34
-77
-103
-108
-107
-102
-99
-100
-79
-40
-5
48
142
286
504
747
918
1070
1274
1340
1051
522
42
-256
-396
-441
-462
-497
-517
-511
-529
-576
-593
-595
-632
-679
-702
-742
-806
-834
-800
-722
-620
-491
-334
-188
-84
7
84
84
25
-8
1
9
6
24
70
80
87
254
509
613
715
1077
1442
1394
922
285
-204
-356
-298
-255
-246
-217
-205
-214
-178
-106
-96
-170
-258
-328
-385
-413
-428
-461
-458
-352
-195
-81
-5
92
201
257
221
142
110
109
61
-1
0
24
7
-20
-16
9
24
13
2
27
44
-2
-44
-4
43
15
-29
-25
-9
-12
-13
-11
-29
-40
-18
-5
-16
-21
-29
-31
-2
16
-8
-23
-24
-37
-22
7
-24
-54
27
130
114
25
-12
14
45
45
10
3
44
30
0
130
318
447
698
853
421
-193
-261
-43
-51
-126
-87
-77
-112
-104
-84
-81
-79
-77
-63
-37
-21
-9
25
85
141
167
181
222
270
282
260
228
184
116
33
-28
-57
-86
-123
-128
-109
-116
-147
-147
-102
-65
-51
-24
42
142
280
454
625
741
883
1151
1343
1119
521
-45
-332
-415
-442
-465
-473
-465
-464
-483
-510
-530
-547
-571
-601
-637
-677
-703
-713
-707
-661
-562
-434
-296
-165
-54
34
74
43
-11
-37
-52
-71
-72
-73
-94
-100
-76
-58
-64
-72
-65
-50
-40
-47
-59
-50
-26
-22
-19
22
62
58
93
197
228
172
174
224
370
778
991
366
-510
-601
-165
22
10
71
94
58
72
91
74
73
87
88
93
110
125
144
172
202
248
322
403
455
471
479
477
427
329
220
121
36
-24
-52
-55
-58
-72
-77
-63
-49
-50
-64
-79
-84
-87
-106
-147
-196
-231
-230
-206
-196
-190
-153
-93
-66
-88
-111
-107
-99
-83
-57
-65
-87
-65
-67
-99
-28
110
226
408
476
109
-358
-390
-184
-142
-184
-167
-157
-163
-149
-153
-165
-143
-121
-118
-96
-65
-46
-4
62
108
152
231
314
355
359
347
309
227
116
23
-42
-101
-141
-145
-146
-170
-182
-165
-151
-141
-125
-116
-91
-28
19
-2
-53
-73
-79
-104
-115
-102
-112
-112
-85
-114
-118
47
215
283
391
334
-102
-445
-334
-157
-167
-166
-108
-95
-98
-97
-100
-81
-53
-43
-31
-9
11
48
105
156
222
319
393
423
449
464
410
301
198
100
1
-57
-75
-104
-129
-122
-119
-126
-101
-45
23
94
173
356
677
954
1115
1362
1656
1586
1004
275
-222
-416
-445
-454
-478
-482
-482
-510
-531
-535
-571
-634
-683
-719
-743
-759
-792
-813
-765
-653
-505
-335
-178
-52
56
126
138
116
83
50
38
42
32
9
0
11
34
43
22
5
15
28
32
29
17
16
22
-5
-48
-51
-25
-19
-35
-38
6
75
97
64
40
37
24
18
21
12
25
46
19
46
183
285
408
633
553
26
-314
-180
-38
-80
-93
-60
-71
-86
-89
-94
-78
-51
-51
-52
-15
27
39
56
102
152
199
252
298
316
302
261
209
155
79
-12
-69
-86
-116
-154
-151
-126
-122
-111
-52
17
40
60
147
269
407
587
738
843
1044
1252
1130
652
139
-190
-332
-366
-384
-405
-408
-403
-408
-422
-442
-464
-485
-512
-545
-566
-577
-576
-551
-495
-409
-295
-163
-39
46
85
91
72
34
-1
-15
-19
-29
-32
-19
-14
-27
-27
-8
-7
-25
-22
-2
-1
-10
-9
-15
-30
-24
2
1
-19
7
82
123
101
71
53
18
-9
13
30
11
28
48
3
36
189
311
500
738
534
-66
-323
-152
-79
-144
-121
-91
-117
-120
-114
-118
-101
-88
-91
-67
-27
-1
26
65
120
196
268
330
392
418
401
376
321
218
120
39
-48
-105
-114
-114
-124
-140
-161
-155
-114
-101
-121
-94
-20
16
3
-22
-50
-85
-120
-126
-112
-122
-126
-105
-140
-157
0
172
232
321
268
-136
-451
-357
-214
-213
-177
-141
-180
-181
-135
-124
-128
-115
-95
-76
-62
-35
5
40
87
170
256
324
379
402
378
314
215
98
-3
-74
-119
-140
-144
-153
-165
-166
-160
-155
-141
-121
-121
-129
-88
-17
-4
-51
-77
-72
-82
-83
-57
-58
-51
8
6
-50
56
242
329
551
831
568
-77
-304
-134
-85
-128
-94
-77
-93
-82
-82
-84
-58
-51
-62
-29
17
20
26
79
152
211
255
292
333
360
331
248
158
94
43
-26
-88
-101
-99
-127
-154
-154
-143
-121
-60
32
105
203
452
771
967
1143
1396
1387
895
273
-133
-344
-436
-446
-451
-474
-487
-500
-518
-532
-560
-601
-642
-686
-727
-759
-786
-775
-703
-597
-467
-308
-146
-14
74
111
109
78
21
-15
-8
-18
-47
-37
-20
-44
-52
-27
-26
-39
-28
-13
-9
-4
2
16
42
44
19
15
44
61
45
37
74
115
108
76
59
57
65
81
80
67
86
102
68
78
185
283
388
505
359
-64
-283
-151
-29
-45
-48
-30
-36
-38
-37
-41
-26
-3
8
22
45
66
88
118
157
208
266
311
342
362
363
333
285
226
153
82
26
-22
-54
-57
-62
-87
-100
-89
-64
-34
-22
-32
-6
64
98
86
112
181
248
356
524
653
761
1014
1290
1184
624
14
-310
-391
-417
-452
-460
-444
-448
-467
-480
-504
-536
-573
-629
-686
-718
-757
-812
-832
-787
-686
-548
-400
-251
-106
-3
45
57
35
-5
-32
-49
-57
-53
-54
-15
83
182
411
872
1114
671
-113
-614
-715
-572
-296
-42
79
116
119
77
24
9
21
36
47
48
55
90
151
238
351
464
550
584
547
463
371
266
164
99
39
-44
-96
-109
-127
-135
-117
-107
-117
-129
-141
-138
-125
-121
-117
-105
-108
-119
-119
-118
-120
-120
-115
-96
-85
-105
-114
-84
-66
-74
-79
-89
-98
-72
-35
-31
-42
-13
56
107
101
68
45
26
12
10
4
12
20
-26
-18
147
297
435
715
737
182
-299
-213
-36
-81
-99
-49
-66
-84
-55
-38
-34
-23
-19
-11
18
46
49
55
106
184
239
275
299
295
275
257
204
117
64
39
-18
-92
-142
-173
-183
-171
-163
-162
-142
-95
-54
-48
-55
-29
24
45
12
-42
-85
-120
-135
-123
-121
-123
-101
-101
-100
-12
90
183
357
365
-28
-381
-305
-136
-148
-163
-119
-120
-132
-114
-107
-113
-106
-91
-76
-63
-42
-10
22
61
127
203
266
302
300
280
254
181
60
-42
-106
-162
-206
-221
-205
-191
-216
-247
-218
-157
-144
-171
-176
-143
-97
-67
-72
-96
-101
-84
-62
-44
-44
-35
0
-12
-41
47
170
240
387
460
135
-273
-283
-107
-90
-119
-88
-77
-77
-58
-55
-49
-20
-4
-4
11
38
61
90
137
196
258
314
365
399
404
372
306
215
120
40
-16
-50
-68
-75
-77
-86
-105
-113
-98
-83
-80
-61
1
99
204
287
349
456
642
823
977
1260
1615
1567
895
102
-290
-364
-394
-429
-450
-461
-457
-466
-498
-531
-573
-624
-662
-701
-742
-766
-797
-819
-763
-652
-539
-393
-217
-76
20
86
102
75
40
14
6
-5
-30
-37
-14
-4
-13
-11
6
20
16
2
-2
0
-4
-8
-7
5
51
120
150
123
86
66
42
34
59
61
42
62
47
0
99
263
362
614
843
458
-226
-382
-163
-128
-192
-165
-154
-174
-164
-159
-158
-136
-122
-120
-94
-58
-32
9
73
136
210
299
361
382
391
381
328
240
134
30
-39
-77
-120
-152
-145
-144
-170
-163
-117
-86
-64
-29
4
64
150
191
200
243
329
477
638
722
878
1295
1660
1458
745
61
-288
-407
-452
-458
-446
-451
-460
-453
-457
-486
-516
-537
-571
-609
-625
-638
-670
-682
-635
-542
-422
-286
-158
-47
41
80
71
43
9
-20
-23
-17
-15
5
27
13
-16
0
53
64
15
-15
0
12
10
16
22
35
80
112
90
59
59
48
23
35
54
42
34
11
-11
68
187
271
459
586
272
-194
-259
-86
-51
-77
-55
-51
-54
-40
-39
-38
-16
3
15
35
63
89
114
150
201
250
292
326
341
334
309
263
191
107
24
-40
-81
-120
-157
-160
-143
-156
-187
-177
-139
-134
-150
-125
-74
-64
-97
-131
-156
-174
-178
-169
-170
-180
-150
-115
-146
-127
39
182
269
392
286
-150
-398
-254
-131
-164
-153
-106
-111
-128
-122
-103
-89
-80
-47
-9
0
24
94
150
185
249
335
400
431
434
419
363
246
123
38
-47
-124
-147
-149
-170
-174
-168
-189
-192
-145
-125
-152
-135
-51
19
29
-2
-38
-52
-45
-33
-32
-48
-40
0
-19
-36
94
241
336
568
673
218
-335
-350
-134
-123
-153
-112
-131
-180
-162
-132
-138
-132
-98
-74
-66
-52
-25
19
74
137
224
321
380
397
375
301
199
104
13
-71
-128
-146
-150
-166
-179
-172
-164
-153
-110
-54
-5
75
224
455
730
925
1050
1271
1524
1454
925
250
-202
-372
-417
-439
-445
-454
-473
-481
-489
-527
-580
-624
-664
-712
-771
-824
-845
-838
-798
-696
-542
-378
-217
-68
46
112
115
66
22
10
-2
-25
-33
-19
-4
3
9
15
8
4
25
33
3
-8
22
29
-1
-23
-24
-17
-8
-5
5
44
108
154
139
88
67
73
73
78
81
94
122
86
31
119
257
373
673
881
453
-194
-293
-71
-43
-90
-46
-27
-55
-54
-35
-26
-22
-10
12
25
24
40
87
139
180
220
264
305
333
344
341
302
225
155
112
64
5
-38
-66
-83
-82
-73
-75
-87
-96
-86
-63
-51
-31
31
118
176
199
271
436
573
642
873
1273
1371
922
286
-159
-380
-459
-468
-476
-484
-479
-478
-481
-480
-499
-534
-562
-588
-616
-627
-630
-624
-577
-489
-394
-286
-157
-55
0
36
38
1
-27
-39
-68
-91
-92
-101
-107
-86
-69
-75
-76
-68
-64
-65
-71
-78
-81
-73
-55
-47
-51
-27
30
50
13
-26
-29
-24
-32
-36
-26
-16
7
30
22
55
174
277
387
523
395
-37
-276
-152
-33
-53
-61
-48
-47
-35
-34
-40
-23
-12
-13
10
43
62
93
142
195
254
319
380
436
471
460
418
362
283
183
89
22
-23
-48
-61
-78
-100
-104
-92
-86
-81
-60
-31
6
70
166
268
342
405
537
732
885
1051
1373
1615
1313
541
-110
-345
-372
-398
-432
-441
-437
-444
-466
-482
-501
-543
-592
-634
-675
-707
-730
-765
-786
-744
-642
-510
-354
-190
-62
14
53
58
27
0
-2
-3
-18
-47
-71
-64
-46
-51
-60
-57
-44
-19
-3
-21
-56
-73
-51
-23
-53
-85
-18
81
87
39
28
33
10
0
28
34
22
50
50
21
124
301
440
673
795
374
-204
-275
-71
-49
-99
-75
-69
-86
-82
-82
-88
-75
-56
-50
-54
-41
-11
15
49
123
206
269
320
359
358
317
251
167
76
-12
-83
-137
-174
-189
-184
-185
-192
-192
-186
-170
-128
-87
-90
-92
-33
36
30
-27
-55
-54
-63
-65
-43
-38
-38
-20
-42
-45
85
214
338
652
779
258
-334
-341
-139
-150
-180
-134
-137
-150
-123
-107
-97
-73
-54
-38
-15
5
34
86
146
211
284
339
363
385
408
377
275
168
96
30
-30
-53
-63
-75
-69
-65
-97
-122
-106
-95
-114
-122
-81
-14
55
128
180
217
338
540
670
793
1143
1559
1537
962
248
-235
-447
-497
-500
-523
-553
-559
-555
-556
-563
-578
-598
-622
-653
-673
-680
-684
-665
-606
-520
-404
-264
-130
-20
61
93
81
60
37
4
-22
-38
-51
-53
-49
-55
-63
-56
-47
-45
-39
-33
-39
-59
-82
-84
-60
-47
-69
-73
-27
14
8
-7
-11
-28
-55
-58
-48
-63
-71
-32
-15
-41
19
152
250
374
436
170
-214
-274
-128
-92
-105
-66
-56
-81
-75
-46
-24
-6
8
26
48
71
101
138
173
212
264
322
371
400
397
373
344
289
195
103
47
8
-34
-62
-66
-57
-52
-65
-76
-54
-17
20
89
181
294
516
803
963
1088
1390
1592
1282
627
73
-229
-338
-350
-364
-387
-387
-384
-390
-406
-450
-503
-538
-570
-609
-644
-674
-677
-635
-564
-466
-317
-157
-42
52
138
162
112
73
81
76
35
10
13
6
-16
-29
-30
-22
-8
-8
-26
-28
-8
-3
-24
-25
-7
-13
-34
-34
-14
-1
-21
-50
-8
93
148
119
70
48
49
52
61
69
59
63
73
65
162
381
544
707
882
633
-18
-352
-233
-160
-220
-229
-231
-253
-249
-258
-281
-287
-301
-319
-310
-294
-289
-288
-277
-235
-177
-137
-100
-51
-20
-27
-55
