# session 244
8
367
550
722
955
903
364
-275
-568
-615
-707
-761
-667
-652
-701
-619
-679
-805
-507
-540
-1532
-1922
-947
-328
-657
-758
-541
-560
-571
-420
-333
-267
-152
-87
-69
-51
-57
-76
-80
-78
-79
-83
-94
-103
-104
-107
-111
-103
-84
-66
-52
-38
-17
7
26
40
51
56
58
60
57
47
39
42
44
39
28
23
33
45
42
45
68
71
39
24
52
69
46
40
91
147
152
132
117
105
104
111
108
104
106
94
97
113
77
69
207
367
512
747
766
300
-138
-102
54
25
-16
9
2
-20
-27
-39
-45
-32
-31
-46
-36
-4
10
10
32
67
98
135
185
234
266
288
320
353
356
324
272
221
182
118
26
-20
-12
-32
-86
-122
-135
-122
-85
-62
-72
-72
-4
107
206
402
725
907
1030
1461
1756
1365
704
-30
-880
-1123
-902
-1248
-1483
-735
-163
-402
-526
-390
-454
-528
-481
-510
-564
-561
-580
-612
-595
-557
-506
-415
-296
-173
-44
77
157
185
174
137
94
62
40
16
-3
4
35
37
-1
-1
46
45
7
29
64
30
-5
25
51
31
7
-2
-7
-1
8
6
2
9
14
16
31
56
64
52
48
61
57
30
31
82
126
117
80
50
31
19
5
-6
5
16
-2
2
25
-5
-4
114
250
447
737
686
133
-281
-216
-94
-135
-149
-120
-135
-146
-124
-101
-90
-93
-109
-106
-79
-72
-76
-59
-43
-42
-8
59
112
161
206
212
219
273
301
258
206
162
78
-17
-64
-87
-109
-122
-125
-125
-129
-143
-149
-133
-113
-79
-10
71
220
495
751
924
1172
1338
1037
414
-53
-249
-320
-335
-342
-367
-373
-360
-374
-407
-411
-396
-408
-440
-444
-437
-463
-489
-480
-468
-435
-332
-211
-124
-15
112
172
184
199
182
140
113
75
33
34
57
55
47
66
93
102
93
82
77
68
53
44
43
44
47
52
49
36
24
20
18
13
4
-5
-9
-13
-18
-18
-20
-42
-68
-60
-38
-55
-88
-70
-11
14
-14
-43
-45
-43
-45
-40
-37
-39
-40
-45
-35
-23
-36
-2
105
238
476
701
501
-32
-288
-178
-104
-152
-172
-174
-211
-248
-259
-246
-217
-185
-157
-140
-134
-133
-126
-109
-81
-40
6
53
106
160
202
235
267
285
277
257
231
187
133
86
39
-9
-33
-37
-42
-46
-39
-37
-50
-63
-49
-24
-10
34
121
202
329
567
812
1027
1228
1159
725
315
107
-97
-253
-247
-223
-258
-275
-278
-288
-283
-276
-285
-290
-285
-297
-334
-366
-388
-422
-447
-439
-421
-391
-306
-184
-77
19
118
172
164
145
129
83
29
8
-6
-26
-27
-22
-35
-49
-50
-47
-35
-22
-27
-38
-40
-44
-45
-44
-49
-43
-29
-50
-80
-59
-28
-49
-75
-63
-61
-93
-102
-70
-57
-83
-81
-17
35
22
-19
-52
-78
-86
-79
-73
-54
-33
-49
-52
-28
-69
-97
38
209
344
551
549
85
-329
-274
-112
-118
-119
-71
-80
-98
-80
-77
-85
-61
-32
-38
-41
-16
-3
-1
37
92
120
147
201
266
326
361
371
381
376
326
264
207
123
19
-41
-40
-34
-55
-85
-103
-113
-119
-109
-71
-31
6
80
202
383
673
974
1180
1439
1714
1539
828
143
-174
-280
-322
-328
-345
-369
-371
-376
-398
-417
-432
-449
-464
-483
-511
-536
-563
-603
-637
-635
-596
-525
-418
-290
-162
-43
53
105
112
89
57
33
10
-15
-33
-48
-66
-63
-35
-24
-48
-62
-47
-39
-45
-38
-34
-51
-61
-54
-68
-101
-121
-124
-114
-93
-83
-90
-95
-97
-97
-99
-120
-157
-170
-149
-134
-142
-128
-63
9
38
36
30
31
44
57
52
49
50
31
39
65
23
18
158
273
400
714
787
296
-186
-223
-57
24
-119
-160
185
-83
-1334
-1647
-381
431
156
59
251
185
118
201
208
195
256
314
380
477
540
545
530
510
483
439
376
312
260
204
148
113
89
60
37
25
10
-6
-14
-14
-13
-6
25
82
149
299
566
780
905
1146
1364
1113
450
-111
-351
-407
-420
-429
-428
-429
-451
-467
-470
-491
-508
-501
-514
-554
-577
-583
-601
-619
-603
-570
-536
-471
-359
-256
-200
-150
-79
-27
-22
-37
-52
-75
-103
-124
-140
-149
-148
-143
-140
-135
-123
-108
-90
-68
-54
-51
-46
-35
-25
-22
-24
-30
-29
-18
-11
-13
-16
-8
9
15
9
11
18
27
40
33
15
30
50
33
39
105
159
153
127
111
113
136
150
133
126
139
137
138
147
129
153
282
408
544
776
779
323
-95
-87
28
-1
-24
0
-10
-23
-13
-18
-31
-33
-32
-34
-33
-23
-11
-6
3
31
65
88
113
139
158
186
210
205
207
210
160
128
124
17
-51
20
-82
-179
79
-134
-1087
-1224
-256
187
-78
-40
153
155
337
677
866
1086
1399
1367
825
158
-273
-435
-452
-436
-434
-436
-441
-460
-480
-491
-500
-513
-530
-551
-573
-589
-596
-594
-578
-542
-471
-372
-264
-156
-46
46
94
99
85
68
48
19
1
7
14
9
7
20
37
42
34
38
62
79
71
61
70
80
80
87
96
91
104
135
134
110
108
109
97
101
119
118
108
128
173
199
179
134
98
83
85
85
68
65
101
136
128
92
62
44
34
25
16
16
12
-7
1
13
-24
-21
77
180
358
611
519
1
-333
-250
-148
-172
-175
-171
-185
-171
-162
-173
-167
-161
-165
-155
-153
-166
-155
-124
-111
-103
-62
5
60
93
124
158
177
171
145
112
76
39
10
-11
-34
-60
-84
-106
-125
-140
-152
-156
-156
-161
-151
-124
-105
-68
20
123
275
542
810
1028
1358
1642
1413
714
82
-232
-351
-381
-385
-401
-400
-393
-415
-420
-400
-417
-445
-426
-416
-457
-498
-521
-534
-504
-444
-401
-337
-211
-71
45
148
219
234
210
178
145
122
118
112
100
106
115
91
62
65
74
61
44
35
33
31
20
12
20
22
4
-3
5
-1
0
21
29
12
2
1
-5
-4
-3
-23
-54
-58
-36
-32
-60
-71
-23
42
52
5
-36
-38
-32
-44
-50
-39
-62
-104
-74
-32
-83
-79
81
246
448
713
600
16
-350
-240
-140
-209
-210
-166
-182
-186
-152
-145
-160
-157
-146
-148
-152
-145
-129
-109
-82
-49
-9
43
109
176
233
282
318
325
309
288
259
204
134
75
32
-4
-44
-74
-80
-70
-66
-78
-85
-58
-24
-22
0
80
168
308
528
657
716
1032
1512
1583
1079
411
-59
-270
-310
-306
-332
-359
-356
-352
-362
-364
-353
-334
-320
-337
-391
-445
-477
-500
-524
-534
-514
-455
-359
-240
-120
-6
94
153
160
140
111
75
48
34
15
-5
-16
-17
-14
-15
-24
-31
-25
-20
-18
-3
10
-5
-28
-35
-42
-47
-40
-38
-51
-66
-80
-82
-60
-47
-67
-78
-53
-43
-70
-89
-73
-52
-38
-15
9
3
-29
-45
-41
-35
-16
-9
-44
-70
-66
-77
-87
-84
-107
-83
24
130
295
492
357
-96
-319
-195
-103
-127
-111
-78
-74
-67
-61
-65
-68
-76
-73
-31
-3
-29
-16
46
49
66
165
172
172
311
267
206
576
392
-846
-1194
7
669
246
107
289
188
101
172
150
112
150
155
157
213
273
330
369
373
489
754
923
1018
1278
1395
944
281
-55
-135
-190
-217
-222
-248
-271
-280
-299
-323
-339
-355
-378
-407
-434
-453
-466
-486
-508
-500
-449
-377
-305
-219
-111
-12
40
58
73
58
-5
-56
-63
-72
-94
-101
-102
-105
-94
-90
-108
-101
-57
-42
-72
-81
-65
-84
-130
-147
-142
-135
-108
-64
-47
-60
-77
-94
-111
-123
-130
-132
-127
-122
-120
-121
-129
-137
-125
-101
-91
-83
-39
21
47
35
11
-7
-6
5
-4
-14
10
27
10
9
21
13
68
224
381
538
618
247
-348
-236
168
-695
-2129
-1843
-253
429
154
104
233
180
151
181
154
159
206
210
213
257
305
345
393
436
463
483
499
502
485
455
418
365
295
221
162
115
79
60
45
25
17
21
10
-1
20
47
76
136
216
372
669
946
1106
1385
1706
1501
708
-26
-331
-397
-421
-445
-480
-490
-469
-474
-508
-518
-517
-538
-566
-594
-625
-639
-638
-642
-638
-614
-575
-501
-394
-294
-201
-99
-19
9
-5
-38
-65
-72
-72
-91
-125
-142
-135
-140
-156
-157
-153
-150
-129
-102
-90
-79
-63
-48
-31
-14
-15
-31
-35
-18
-9
-19
-17
-5
-19
-34
-22
-17
-24
-8
-6
-40
-41
-6
-20
-70
-56
17
65
69
68
63
39
22
37
59
74
84
67
46
66
75
72
179
354
535
807
909
484
-49
-119
27
14
-37
-22
-26
-33
-19
-27
-34
-22
-31
-47
-26
1
-4
3
31
35
43
107
167
178
200
249
264
251
249
236
208
177
117
39
-12
-36
-52
-75
-118
-149
-134
-126
-169
-186
-125
-64
-45
-11
63
221
488
740
990
1423
1794
1551
746
-28
-431
-530
-492
-455
-451
-445
-446
-477
-502
-498
-506
-542
-561
-557
-572
-603
-613
-609
-606
-580
-518
-432
-325
-199
-79
8
63
98
107
89
61
33
16
9
-5
-24
-30
-24
-12
-12
-33
-44
-26
-12
-19
-22
-23
-27
-17
-5
-24
-46
-31
-8
-6
-4
-2
-24
-54
-50
-18
-1
-13
-19
3
33
54
78
101
100
82
95
144
172
147
105
81
72
62
44
38
56
50
27
44
49
12
51
162
278
525
746
475
-78
-249
-89
-57
-125
-88
-33
-78
-127
-70
-49
-141
-96
2
-153
-134
126
-195
-344
933
1828
674
-456
-127
200
-6
42
182
97
52
63
16
-6
-29
-98
-131
-114
-105
-103
-100
-101
-99
-107
-121
-118
-95
-45
18
71
210
489
719
858
1110
1276
914
238
-185
-301
-348
-376
-372
-371
-372
-376
-395
-403
-396
-402
-432
-471
-497
-503
-513
-538
-549
-528
-485
-416
-310
-195
-92
14
103
111
64
37
28
12
3
-5
-24
-30
-18
-9
-1
7
16
42
76
91
98
106
104
95
89
79
72
76
76
63
58
69
72
65
62
66
67
60
48
35
29
18
-10
-37
-40
-33
-38
-37
-11
27
55
83
88
40
-2
12
12
-26
-28
-22
-50
-33
7
-39
-68
27
136
334
694
741
218
-251
-243
-136
-170
-181
-161
-188
-197
-176
-183
-198
-183
-152
-119
-97
-97
-98
-84
-69
-59
-30
21
80
134
180
221
263
291
292
282
268
229
167
113
72
35
3
-21
-38
-54
-72
-75
-58
-48
-45
4
93
162
282
558
858
1050
1250
1354
1002
326
-143
-292
-354
-380
-346
-336
-362
-360
-346
-361
-385
-400
-413
-429
-445
-456
-457
-452
-443
-426
-388
-315
-209
-94
14
105
167
199
202
174
129
85
50
29
22
17
4
-6
-6
-12
-24
-30
-23
-22
-41
-62
-63
-47
-34
-39
-49
-42
-37
-48
-40
-18
-29
-49
-39
-41
-31
-9
-123
-296
-236
-34
5
-56
-58
-49
-43
-9
5
10
58
98
75
27
-10
-42
-71
-91
-90
-64
-43
-40
-29
-42
-97
-76
37
134
317
543
376
-131
-342
-180
-90
-114
-80
-46
-58
-61
-61
-67
-61
-62
-70
-57
-36
-27
-21
-6
9
31
81
140
174
195
237
283
303
303
303
304
295
243
141
55
31
19
-11
-21
-23
-50
-64
-50
-52
-43
9
48
88
206
355
523
782
1016
1154
1394
1609
1276
491
-74
-242
-314
-374
-363
-341
-356
-378
-386
-389
-398
-406
-410
-425
-450
-465
-487
-537
-582
-590
-572
-539
-481
-389
-272
-135
-3
81
99
84
61
23
-22
-46
-43
-42
-59
-69
-64
-63
-55
-31
-24
-38
-41
-39
-46
-61
-92
-113
-86
-63
-81
-76
-52
-76
-91
-43
-4
-6
-8
-17
-44
-69
-104
-147
-160
-156
-179
-203
-167
-84
-35
-33
-27
-20
-24
-6
23
21
14
29
41
58
53
1
32
183
326
559
859
712
96
-240
-119
-43
-97
-72
-37
-59
-66
-58
-56
-45
-41
-50
-40
-19
-16
-16
3
28
51
88
137
189
257
338
401
428
423
403
371
320
257
201
152
102
58
29
8
-13
-24
-29
-44
-52
-31
-1
42
107
170
296
573
844
981
1155
1326
1097
462
-91
-313
-358
-377
-397
-409
-403
-392
-398
-411
-419
-427
-445
-470
-498
-513
-520
-550
-598
-611
-573
-515
-439
-336
-226
-122
-25
56
89
53
-13
-52
-80
-130
-169
-159
-119
-84
-68
-69
-76
-85
-100
-111
-112
-109
-101
-81
-59
-46
-38
-32
-25
-17
-8
-3
0
3
4
8
26
30
11
11
33
30
1
-4
16
22
11
8
43
106
131
90
54
58
61
49
47
67
86
75
68
102
106
60
97
216
317
477
615
408
-5
-133
-8
16
-51
-63
-62
-79
-76
-64
-59
-50
-45
-42
-30
-13
-1
13
30
46
70
99
125
151
185
211
227
245
246
213
177
157
122
65
19
-15
-56
-72
-60
-78
-123
-126
-109
-118
-121
-112
-98
-35
35
91
302
645
874
1116
1520
1603
1016
240
-220
-414
-501
-519
-513
-505
-484
-462
-454
-454
-455
-460
-478
-507
-540
-575
-601
-610
-614
-605
-558
-475
-374
-257
-131
0
119
178
172
158
151
125
95
81
67
50
38
35
49
61
48
34
42
44
39
52
58
35
29
57
53
12
14
61
78
62
57
57
47
42
47
58
77
97
106
116
129
128
117
109
80
47
73
134
142
99
69
65
59
36
8
1
8
11
12
22
