# session 21
-17
-2
-12
-25
-21
-15
-12
-5
8
23
39
53
73
105
141
184
248
304
329
350
369
343
274
217
168
93
17
-25
-46
-69
-91
-100
-97
-100
-107
-88
-50
-34
-32
1
47
61
49
22
-29
-62
-40
-45
-104
-77
14
-43
-142
-25
140
238
535
779
392
-225
-328
-147
-147
-183
-130
-128
-162
-140
-114
-123
-129
-106
-83
-81
-77
-51
-28
-69
-202
-310
-241
-69
28
56
81
64
-6
-63
-103
-136
-137
-120
-122
-124
-109
-103
-100
-69
-35
-17
8
48
98
184
287
344
403
548
696
760
883
1149
1273
960
388
-31
-185
-240
-267
-248
-246
-293
-318
-324
-363
-398
-407
-439
-486
-510
-529
-541
-538
-534
-487
-367
-266
-231
-143
15
105
110
123
142
120
86
71
62
57
60
64
68
73
70
63
68
82
98
103
83
61
82
119
118
96
109
150
174
164
137
116
117
116
101
98
94
64
67
74
-106
-367
-243
268
496
137
-267
-266
-81
-11
-8
10
14
8
17
25
28
32
33
40
60
82
97
112
141
184
219
253
310
363
372
358
339
289
220
141
23
-85
-148
-296
-555
-689
-600
-488
-515
-621
-667
-592
-481
-418
-358
-267
-207
-205
-215
-215
-201
-167
-152
-158
-125
-92
-121
-76
71
155
300
573
457
-140
-458
-270
-129
-168
-149
-114
-127
-112
-81
-80
-77
-61
-44
-22
9
40
64
90
144
223
293
355
403
409
387
362
300
187
93
59
31
-11
-23
-10
-13
-28
-37
-34
-7
24
35
54
131
269
412
501
580
740
919
1010
1155
1472
1592
1133
397
-66
-220
-300
-332
-287
-277
-329
-348
-337
-378
-440
-448
-438
-483
-577
-657
-682
-679
-700
-709
-628
-479
-324
-165
-6
99
144
178
203
187
155
137
124
119
121
109
106
137
162
148
128
134
159
169
152
174
269
357
413
548
779
992
1183
1413
1503
1155
430
-213
-481
-517
-547
-597
-618
-639
-702
-782
-842
-891
-946
-1006
-1070
-1127
-1149
-1131
-1088
-1031
-953
-844
-700
-531
-365
-243
-164
-101
-63
-53
-49
-38
-19
22
67
94
120
155
175
185
201
210
222
251
261
240
237
253
253
244
234
216
215
236
224
181
188
261
327
329
271
200
170
189
205
183
172
197
184
161
245
357
469
762
967
567
-68
-196
10
38
-40
-33
-19
-36
-33
-28
-34
-27
-15
-10
-2
8
25
53
86
116
148
184
226
266
275
254
235
205
133
46
-9
-44
-84
-119
-131
-126
-124
-130
-134
-125
-94
-67
-75
-78
-34
9
-4
-49
-86
-109
-118
-108
-104
-122
-119
-109
-131
-96
33
131
205
252
36
-354
-456
-271
-176
-195
-174
-152
-177
-204
-209
-191
-161
-143
-137
-122
-96
-68
-43
-18
18
70
134
188
223
247
246
199
128
56
-23
-81
-101
-129
-170
-162
-126
-134
-162
-148
-99
-55
-45
-58
-35
40
107
148
191
229
291
415
505
538
690
910
851
452
50
-148
-220
-250
-255
-264
-289
-306
-311
-328
-354
-375
-398
-422
-447
-482
-524
-544
-538
-516
-473
-390
-276
-152
-37
61
137
176
172
147
118
79
44
45
61
50
33
42
53
54
67
78
62
42
41
48
57
62
55
66
119
154
124
82
81
77
46
43
63
65
72
70
48
122
272
387
639
937
687
-10
-304
-111
-13
-75
-74
-62
-84
-83
-64
-49
-43
-49
-35
-7
-11
-19
16
50
66
121
206
273
318
332
306
278
240
153
46
-31
-84
-125
-150
-152
-148
-173
-201
-176
-123
-112
-130
-121
-74
-6
41
27
-28
-75
-112
-121
-73
-55
-105
-100
-67
-97
-22
175
273
380
517
249
-300
-441
-217
-144
-202
-185
-162
-177
-185
-182
-162
-142
-144
-137
-112
-101
-86
-49
-12
39
112
174
215
250
258
227
177
104
8
-75
-130
-174
-205
-211
-198
-190
-206
-225
-208
-158
-115
-107
-121
-102
-24
31
-4
-53
-64
-95
-125
-94
-73
-90
-62
-56
-94
11
182
246
471
779
511
-145
-310
-72
-49
-146
-104
-68
-99
-101
-87
-81
-63
-57
-58
-34
-9
8
46
94
132
183
246
294
324
339
327
289
235
158
64
-4
-26
-35
-43
-41
-44
-53
-44
-7
65
158
240
396
686
936
1098
1352
1506
1146
461
-32
-258
-387
-437
-421
-412
-432
-465
-498
-516
-532
-562
-597
-634
-674
-698
-693
-670
-628
-550
-437
-296
-147
-28
43
81
94
84
70
65
56
44
48
59
58
58
64
54
40
43
48
40
35
33
26
27
41
50
49
33
-1
-12
30
64
38
17
69
137
138
95
76
80
64
39
36
37
41
41
11
9
103
218
317
404
263
-144
-384
-261
-119
-132
-140
-116
-125
-134
-125
-118
-105
-90
-90
-91
-76
-54
-34
-12
19
61
103
138
172
199
202
181
158
129
75
8
-45
-79
-108
-140
-159
-150
-132
-141
-154
-124
-75
-54
-50
-21
24
42
17
-16
-27
-35
-57
-66
-52
-27
8
8
-18
49
178
272
424
504
167
-314
-360
-130
-74
-115
-73
-40
-55
-46
-27
-31
-27
-6
1
0
22
55
75
98
140
197
277
350
373
370
367
330
246
151
58
-21
-65
-83
-93
-113
-143
-153
-134
-125
-131
-126
-102
-48
49
172
285
386
519
694
850
999
1271
1561
1443
788
59
-317
-410
-444
-470
-478
-486
-495
-514
-546
-567
-579
-618
-684
-742
-776
-793
-812
-840
-842
-781
-663
-515
-360
-222
-95
19
76
61
37
33
25
8
-17
-56
-79
-60
-48
-83
-113
-97
-70
-24
52
81
69
103
111
94
230
412
440
521
638
372
-79
-137
51
85
51
73
68
45
46
53
70
83
69
67
85
87
95
140
189
230
283
340
386
406
384
330
249
141
46
-4
-44
-88
-114
-133
-159
-162
-146
-149
-155
-135
-117
-128
-132
-111
-98
-99
-102
-114
-127
-129
-140
-151
-122
-87
-108
-129
-71
6
20
-3
-19
-30
-35
-35
-49
-36
13
-10
-50
54
198
322
599
728
263
-317
-354
-134
-104
-152
-137
-118
-109
-104
-114
-117
-98
-70
-45
-37
-35
-12
28
63
99
153
217
259
281
301
297
250
199
143
56
-11
-18
-30
-74
-94
-72
-59
-80
-100
-79
-35
-20
-38
-35
10
60
85
86
84
108
153
216
332
470
544
663
971
1236
1078
544
16
-275
-370
-385
-387
-397
-416
-426
-420
-427
-464
-501
-508
-512
-551
-601
-630
-643
-640
-602
-535
-447
-339
-228
-121
-17
46
56
49
30
-8
-31
-30
-28
-15
7
9
2
20
42
35
15
13
46
80
77
65
98
146
143
104
81
74
63
61
67
66
84
104
74
79
196
310
396
502
390
-15
-255
-112
49
45
39
67
67
65
76
77
78
94
108
88
27
-40
-80
-107
-150
-183
-172
-133
-82
-8
74
115
98
38
-42
-119
-176
-200
-192
-168
-137
-104
-83
-76
-45
13
48
55
86
147
193
211
204
175
148
147
168
183
177
202
248
220
214
376
537
636
873
951
468
-46
-2
205
176
145
203
164
46
-53
-154
-270
-373
-449
-497
-529
-547
-531
-493
-445
-355
-230
-109
10
117
172
186
177
125
49
6
-12
-30
-32
-24
-31
-46
-76
-147
-238
-309
-365
-413
-413
-339
-242
-205
-242
-294
-304
-270
-228
-217
-236
-232
-216
-215
-122
58
151
258
467
355
-188
-498
-319
-140
-150
-140
-107
-119
-98
-47
-52
-61
-12
13
-4
25
74
78
105
190
264
317
381
424
426
413
378
298
205
138
95
50
-11
-58
-69
-73
-88
-95
-76
-9
99
197
341
631
952
1189
1505
1869
1801
1112
284
-211
-391
-461
-496
-497
-491
-497
-512
-536
-582
-636
-680
-722
-779
-836
-868
-878
-861
-788
-657
-499
-325
-151
-23
54
108
130
109
79
70
77
75
61
52
58
64
64
59
71
116
138
159
304
486
536
660
1034
1257
972
421
-41
-293
-323
-235
-174
-142
-93
-59
-71
-112
-171
-229
-278
-317
-336
-347
-364
-368
-333
-267
-171
-49
54
129
203
252
240
206
190
164
131
133
185
303
458
530
588
838
1128
1168
1048
828
348
-184
-406
-411
-427
-456
-475
-496
-509
-536
-575
-594
-615
-657
-694
-708
-688
-619
-514
-400
-292
-190
-87
7
75
115
122
107
127
179
172
114
107
163
209
246
345
497
573
558
655
891
920
565
124
-121
-209
-233
-228
-237
-254
-250
-257
-281
-291
-310
-355
-379
-386
-411
-424
-407
-375
-307
-208
-132
-66
26
105
123
106
90
79
64
40
24
30
46
48
35
29
42
53
45
28
11
11
35
49
36
44
90
104
62
19
1
-12
-10
11
6
-20
-1
24
-1
22
133
242
369
423
134
-297
-361
-143
-55
-85
-66
-44
-47
-31
-17
-12
8
28
36
54
79
103
140
191
237
283
336
379
398
399
382
335
271
198
108
13
-49
-83
-131
-196
-252
-305
-356
-364
-304
-226
-187
-170
-121
-49
-15
-43
-80
-81
-77
-72
-46
-46
-61
-16
7
-27
59
233
354
554
673
280
-280
-353
-155
-133
-171
-141
-138
-152
-140
-135
-138
-129
-108
-88
-90
-87
-41
13
48
101
173
234
277
288
260
217
163
87
6
-61
-114
-149
-163
-168
-172
-170
-165
-167
-162
-121
-84
-92
-84
-5
68
52
-19
-73
-82
-48
-13
-44
-98
-52
12
-43
-35
149
292
419
594
403
-167
-413
-215
-102
-146
-131
-105
-115
-103
-98
-118
-119
-97
-82
-78
-62
-27
5
37
99
171
213
248
289
300
273
222
142
48
-25
-76
-112
-130
-136
-135
-138
-151
-155
-135
-99
-65
-61
-77
-45
43
94
62
5
-25
-34
-26
-6
-18
-38
-7
-9
-65
7
178
305
574
868
582
-110
-360
-169
-116
-192
-156
-108
-134
-154
-144
-132
-116
-101
-83
-50
-25
-21
2
53
97
145
211
250
255
268
261
197
120
63
-5
-68
-93
-107
-129
-134
-122
-124
-138
-133
-102
-74
-68
-55
-9
38
26
-31
-69
-69
-68
-81
-95
-86
-51
-59
-114
-73
58
140
323
635
556
-19
-380
-261
-149
-219
-236
-178
-153
-149
-138
-139
-151
-152
-128
-98
-88
-80
-39
12
41
74
136
197
224
230
227
200
150
103
53
-3
-38
-51
-71
-80
-69
-63
-62
-43
4
63
93
120
251
477
652
746
876
1006
886
436
-33
-243
-284
-314
-318
-298
-314
-355
-382
-389
-387
-413
-459
-477
-488
-522
-531
-497
-459
-403
-300
-182
-76
20
93
132
135
115
101
93
72
53
52
56
62
72
71
67
72
71
67
68
67
71
84
104
155
225
266
345
520
654
714
884
1061
894
438
70
-99
-177
-204
-204
-216
-237
-257
-285
-319
-351
-384
-426
-480
-537
-578
-602
-621
-620
-574
-486
-380
-260
-142
-53
6
52
88
103
90
63
52
62
67
61
62
73
79
73
68
83
105
101
86
93
106
100
84
82
102
116
105
86
71
50
38
48
49
24
29
94
150
144
113
89
66
53
53
42
47
90
82
27
118
313
440
659
889
580
-105
-340
-123
-39
-100
-78
-50
-67
-68
-60
-46
-29
-45
-63
-38
-5
12
27
52
103
181
249
288
309
319
318
291
207
96
25
-16
-88
-172
-195
-171
-173
-212
-240
-227
-184
-151
-146
-132
-77
-26
-24
-53
-86
-129
-168
-171
-155
-153
-136
-129
-183
-155
27
152
206
304
153
-327
-547
-330
-185
-251
-260
-218
-238
-258
-243
-233
-227
-208
-185
-164
-146
-127
-99
-67
-26
41
125
191
224
234
218
160
69
-26
-110
-178
-228
-262
-284
-298
-300
-291
-289
-296
-274
-225
-202
-201
-165
-96
-49
-54
-92
-125
-140
-134
-103
-86
-87
-56
-54
-97
-11
159
260
500
804
564
-83
-318
-138
-71
-97
-57
-53
-67
-26
-5
-14
6
26
34
71
116
132
146
190
247
299
352
402
434
454
469
449
381
307
256
212
187
190
199
200
202
205
225
275
341
432
528
614
798
1107
1334
1434
1579
1632
1310
779
397
197
78
38
49
55
60
61
44
29
16
-18
-61
-96
-118
-124
-137
-171
-156
-58
55
140
224
285
274
203
107
6
-98
-226
-390
-531
-602
-659
-762
-871
-928
-950
-980
-1010
-1026
-1040
-1066
-1103
-1138
-1139
-1112
-1104
-1111
-1074
-1004
-974
-987
-978
-924
-880
-887
-907
-906
-910
-907
-828
-677
-530
-391
-254
-171
-92
70
252
425
597
524
140
-91
61
242
255
255
290
301
305
323
342
362
378
391
413
435
447
465
496
528
569
625
676
706
721
720
698
676
652
585
480
407
386
359
312
279
264
249
233
230
256
285
269
242
277
332
325
314
368
426
485
622
750
808
1010
1389
1475
969
237
-248
-431
-481
-503
-514
-501
-485
-501
-531
-546
-565
-605
-644
-685
-739
-776
-783
-789
-776
-708
-611
-502
-357
-192
-56
30
61
62
64
60
52
57
57
49
72
100
91
93
133
138
110
119
125
56
-31
-41
19
91
143
149
109
57
32
43
62
55
48
49
-12
-66
23
134
224
481
610
168
-347
-300
-67
-95
-136
-47
-13
-38
-32
-20
-10
10
18
28
49
62
85
139
207
266
314
364
423
461
447
405
349
245
108
10
-48
-108
-168
-204
-222
-238
-256
-265
-254
-235
-232
-240
-222
-178
-163
-218
-295
-339
-371
-412
-430
-433
-435
-425
-464
-531
-458
-278
-170
