# session 9
-45
-27
-7
-37
-118
-193
-248
-301
-346
-377
-386
-371
-362
-368
-356
-326
-319
-336
-331
-292
-249
-236
-248
-247
-192
-106
-58
-73
-99
-106
-118
-126
-105
-91
-91
-63
-59
-108
-49
136
262
401
585
415
-104
-336
-166
-62
-122
-125
-62
-26
-34
-59
-49
11
65
61
27
35
94
140
147
164
222
288
336
390
455
498
513
515
502
449
347
253
225
235
233
243
280
297
259
198
160
156
157
150
159
188
203
196
206
261
287
138
-159
-339
-290
-200
-175
-141
-109
-100
-49
-37
-115
-105
-31
-74
-60
17
-270
-775
-890
-717
-722
-860
-949
-1022
-1036
-925
-771
-645
-540
-449
-367
-292
-224
-155
-70
27
113
172
222
286
358
413
442
447
432
393
334
266
193
124
75
43
14
-9
-20
-20
-20
-31
-44
-47
-37
-21
-4
0
-17
-25
20
76
65
24
34
45
7
-9
14
12
17
49
31
34
164
271
352
617
738
289
-233
-244
-65
-76
-109
-64
-56
-70
-55
-39
-33
-16
6
9
0
12
41
54
66
110
173
227
275
323
357
370
366
348
311
249
173
109
57
9
-18
-35
-65
-83
-75
-79
-85
-52
-19
-8
48
148
253
438
681
846
1030
1299
1282
764
150
-197
-352
-425
-432
-442
-471
-472
-475
-507
-530
-537
-554
-580
-610
-645
-675
-692
-694
-671
-626
-555
-448
-323
-204
-95
0
63
90
94
90
73
50
38
25
2
-16
-24
-30
-31
-35
-57
-71
-52
-38
-54
-65
-53
-43
-44
-39
-34
-35
-24
-3
5
0
-1
-3
-13
-20
-10
17
36
25
25
76
126
120
91
79
77
80
88
86
86
116
130
99
119
237
360
464
498
264
-137
-273
-100
21
1
-1
28
35
42
44
26
28
64
94
108
129
155
176
197
215
238
279
315
330
351
374
372
358
352
336
296
244
196
151
107
71
60
67
74
79
88
97
99
100
99
87
80
98
113
94
75
107
146
127
90
83
20
-172
-379
-484
-532
-569
-593
-674
-774
-744
-660
-606
-452
-394
-799
-1304
-1329
-1079
-966
-912
-776
-618
-472
-313
-137
52
233
388
489
487
395
310
273
251
245
273
304
329
370
401
405
406
390
324
243
172
91
13
-36
-61
-79
-101
-128
-148
-154
-145
-130
-145
-183
-173
-122
-110
-124
-94
-32
18
36
35
54
100
136
173
222
216
165
163
160
118
202
381
458
590
787
530
-108
-356
-148
14
95
170
122
115
290
389
318
285
304
276
252
249
217
182
184
189
181
193
235
266
265
258
256
230
160
54
-56
-131
-187
-254
-307
-316
-323
-351
-363
-343
-326
-327
-310
-251
-198
-163
-45
202
431
395
2
-511
-794
-780
-630
-452
-297
-205
-169
-166
-171
-157
-136
-138
-141
-120
-98
-88
-71
-32
28
111
220
338
443
527
587
603
556
470
392
314
217
130
69
7
-58
-99
-111
-112
-117
-127
-123
-107
-109
-120
-113
-107
-119
-131
-122
-99
-80
-86
-103
-113
-130
-133
-105
-120
-191
-208
-172
-173
-193
-185
-164
-121
-60
-40
-66
-88
-93
-103
-106
-100
-107
-106
-90
-120
-132
-26
102
271
608
712
197
-356
-368
-209
-228
-228
-162
-170
-193
-177
-176
-176
-153
-136
-130
-119
-104
-80
-47
-13
10
52
211
494
737
850
905
909
806
667
574
477
345
232
158
89
21
-24
-50
-72
-94
-109
-126
-150
-170
-178
-165
-138
-132
-133
-95
-57
-67
-76
-63
-83
-131
-146
-143
-158
-146
-97
-93
-98
8
134
202
308
282
-95
-455
-410
-240
-245
-278
-250
-244
-254
-242
-240
-240
-223
-212
-212
-202
-189
-184
-167
-140
-118
-92
-54
-11
39
81
103
126
103
9
-2
121
191
141
57
-17
6
129
176
214
421
555
406
245
241
266
293
341
406
573
784
879
965
1083
908
386
-61
-231
-289
-312
-295
-306
-340
-324
-274
-231
-196
-191
-226
-266
-300
-350
-403
-429
-433
-425
-408
-379
-315
-212
-110
-30
49
115
136
142
181
214
193
149
118
89
62
47
33
13
-5
-23
-42
-47
-50
-62
-66
-60
-55
-48
-47
-54
-54
-49
-60
-79
-82
-71
-69
-80
-77
-48
-12
2
-16
-58
-89
-96
-96
-97
-99
-85
-63
-97
-121
17
193
306
546
679
222
-390
-437
-212
-208
-263
-254
-283
-239
-99
2
146
344
339
147
45
51
35
4
-16
-6
104
267
320
256
210
212
192
136
87
55
20
14
100
246
318
270
195
157
102
-9
-117
-187
-234
-239
-212
-238
-307
-314
-257
-188
-97
0
34
-17
-116
-188
-206
-238
-288
-283
-302
-393
-350
-155
-27
89
171
-137
-647
-746
-559
-547
-597
-523
-483
-516
-514
-485
-460
-448
-468
-481
-452
-427
-438
-480
-477
-254
220
665
842
897
1112
1432
1507
1212
805
569
515
445
270
222
484
809
922
957
1086
1196
1235
1283
1242
985
663
451
332
283
305
326
288
213
135
50
-68
-169
-197
-213
-263
-328
-407
-416
-293
-191
-68
238
291
-269
-798
-775
-626
-667
-693
-654
-646
-645
-644
-645
-600
-548
-547
-539
-487
-448
-433
-384
-271
-93
113
224
195
149
152
138
119
156
150
24
-102
-135
-151
-198
-229
-227
-231
-245
-238
-230
-262
-289
-254
-200
-174
-161
-140
-100
-46
-28
-69
-117
-143
-172
-175
-136
-132
-164
-146
-128
-152
-68
99
190
366
602
398
-137
-276
-32
63
35
92
125
105
134
166
146
123
121
112
90
92
133
165
167
196
262
309
340
396
459
509
560
592
548
428
294
195
124
68
27
-9
-44
-63
-66
-66
-75
-94
-109
-105
-90
-54
-12
-20
-53
-31
11
-1
-29
-38
-65
-87
-74
-88
-124
-81
-12
-53
-97
13
146
229
381
405
57
-283
-246
-107
-117
-135
-116
-139
-140
-78
-37
-30
1
39
39
19
25
44
48
45
50
60
85
128
167
185
187
173
147
108
38
-47
-114
-169
-225
-253
-247
-251
-273
-280
-270
-268
-277
-287
-294
-286
-258
-244
-255
-241
-183
-139
-152
-195
-233
-262
-276
-268
-270
-299
-292
-257
-291
-295
-135
56
235
488
527
181
-74
6
47
-70
-109
-76
-98
-121
-63
60
195
293
340
366
401
430
435
437
438
423
421
449
469
472
481
491
495
481
423
336
252
181
129
94
52
14
5
-7
-52
-92
-104
-116
-136
-150
-151
-134
-116
-124
-132
-96
-50
-55
-104
-143
-162
-183
-186
-168
-174
-182
-163
-175
-155
-5
137
271
557
610
78
-423
-361
-182
-235
-264
-201
-217
-269
-272
-280
-299
-283
-247
-224
-212
-204
-191
-164
-127
-79
-27
16
55
105
159
199
204
156
81
25
-16
-58
-78
-75
-89
-110
-96
-60
-27
19
78
104
94
102
134
133
85
53
73
105
105
74
33
3
-10
-11
-19
-53
-62
-19
-41
-116
-13
176
231
436
808
635
-79
-417
-246
-170
-242
-222
-196
-215
-195
-165
-171
-164
-136
-122
-109
-85
-62
-46
-20
24
76
114
150
211
271
285
286
303
275
179
89
33
-17
-59
-84
-101
-105
-105
-115
-99
-51
-16
-12
-37
-78
-86
-44
-17
-36
-44
-5
32
22
-19
-45
-47
-52
-51
-43
-51
-50
-36
-56
-32
104
234
399
648
574
23
-361
-252
-108
-148
-165
-141
-158
-152
-116
-113
-118
-92
-72
-87
-103
-95
-74
-44
-11
9
36
87
129
150
184
225
231
204
165
113
52
-3
-49
-78
-79
-70
-67
-61
-55
-58
-55
-37
-21
-19
-21
-21
-26
-28
-10
16
17
6
32
78
93
71
41
25
27
34
25
3
4
36
39
16
64
163
254
424
548
297
-136
-244
-90
-46
-101
-95
-52
-39
-53
-62
-53
-54
-68
-63
-43
-39
-37
-11
15
19
32
77
131
167
190
211
224
225
206
152
73
8
-34
-69
-98
-110
-114
-122
-125
-119
-116
-111
-102
-97
-82
-58
-63
-90
-94
-92
-102
-99
-87
-75
-42
-13
-34
-73
-94
-112
-123
-110
-118
-143
-119
-104
-136
-48
144
269
478
748
530
-125
-407
-201
-88
-165
-188
-161
-149
-150
-172
-175
-144
-145
-164
-141
-116
-128
-128
-108
-99
-79
-25
23
61
119
181
205
206
195
148
62
-23
-85
-143
-205
-250
-272
-302
-345
-367
-373
-397
-421
-420
-418
-414
-396
-391
-407
-403
-358
-290
-218
-133
-20
87
127
119
141
179
195
244
311
314
328
405
428
461
624
785
977
1256
1147
520
130
268
392
324
307
322
278
241
218
173
140
141
138
123
125
153
173
175
194
239
269
279
299
327
343
344
336
306
246
162
69
-16
-76
-110
-140
-175
-194
-198
-217
-246
-251
-241
-250
-268
-272
-276
-283
-268
-249
-260
-275
-251
-216
-206
-220
-252
-287
-316
-330
-306
-279
-287
-291
-298
-321
-239
-81
12
245
636
541
-127
-528
-401
-288
-342
-341
-311
-323
-309
-266
-239
-214
-171
-130
-98
-72
-60
-69
-76
-54
-20
11
55
110
148
177
216
229
196
142
87
36
-8
-49
-84
-97
-93
-95
-104
-103
-86
-70
-71
-75
-64
-48
-50
-59
-47
-27
-31
-39
-25
-11
1
41
78
64
34
23
4
-22
-18
-8
-23
-19
7
-12
-19
75
188
330
548
504
30
-333
-241
-76
-81
-77
-17
-3
-15
4
56
117
161
204
288
401
467
453
398
338
292
275
279
287
302
314
297
284
284
237
140
60
5
-42
-77
-111
-152
-163
-146
-138
-143
-142
-131
-116
-104
-94
-76
-50
-43
-51
-40
-20
-21
-37
-44
-43
-32
-12
-5
-23
-46
-52
-56
-73
-88
-103
-115
-102
-91
-82
4
133
251
403
423
90
-274
-279
-143
-141
-156
-118
-113
-121
-106
-106
-115
-112
-106
-96
-83
-84
-86
-69
-45
-28
-4
36
77
112
142
167
182
190
182
144
81
25
-13
-50
-91
-110
-111
-132
-157
-141
-108
-72
4
92
210
455
726
870
1038
1233
1047
437
-92
-299
-351
-327
-229
-142
-116
-110
-100
-109
-159
-231
-291
-338
-405
-495
-572
-617
-645
-640
-566
-434
-300
-191
-97
-14
50
87
87
47
-9
-63
-109
-136
-152
-175
-201
-203
-200
-231
-271
-276
-271
-292
-319
-328
-329
-336
-355
-368
-355
-337
-321
-260
-134
18
150
227
250
268
291
284
266
253
220
172
130
86
47
33
27
13
-31
-104
-122
-63
-29
-40
-1
92
187
280
333
296
231
226
254
226
178
175
133
84
240
498
636
850
1095
813
177
-26
138
134
51
100
133
120
158
177
119
58
36
22
2
-3
19
29
11
17
66
106
127
163
205
223
218
209
213
226
217
178
135
100
75
81
118
137
118
99
91
71
49
53
70
70
51
28
12
12
19
1
-37
-36
23
77
73
32
-6
-35
-59
-59
-36
-30
-14
22
-15
-70
29
150
201
395
519
91
-502
-587
-403
-416
-505
-511
-529
-562
-556
-547
-557
-556
-544
-540
-537
-528
-521
-514
-493
-463
-435
-397
-347
-305
-282
-270
-265
-280
-347
-459
-549
-602
-671
-736
-724
-668
-639
-625
-597
-556
-481
-368
-254
-143
-41
15
42
95
163
211
238
262
310
385
432
424
405
400
393
389
400
409
399
403
428
422
425
507
600
713
903
879
445
69
117
267
254
229
257
255
241
252
259
256
257
260
269
280
283
291
313
328
334
351
386
431
469
486
491
492
474
430
382
324
238
157
110
74
39
20
6
-17
-29
-33
-44
-50
-45
-56
-86
-109
-116
-116
-107
-98
-98
-86
-49
-26
-46
-80
-91
-95
-118
-139
-141
-150
-152
-139
-160
-172
-90
10
99
239
205
-170
-483
-428
-293
-304
-327
-308
-305
-308
-303
-303
-297
-284
-280
-281
-276
-264
-249
-232
-214
-190
-159
-124
-83
-39
-4
18
30
25
-4
-52
-110
-167
-212
-244
-265
-275
-277
-276
-282
-283
-266
-255
-254
-214
-174
-207
-206
-56
72
-67
-446
-799
-911
-807
-649
-502
-346
-207
-140
-133
-129
-107
-87
-77
-56
-22
13
48
93
153
234
337
447
555
664
750
781
762
718
650
543
422
329
252
169
115
97
60
17
19
34
20
19
44
49
43
65
95
100
90
98
123
137
143
179
227
236
235
263
289
302
327
336
319
327
346
317
275
271
268
258
281
304
284
294
367
401
353
309
304
293
288
306
288
250
244
187
118
231
408
487
656
736
265
-360
-450
-274
-320
-428
-426
-434
-464
-458
-457
-474
-486
-508
-536
-534
-513
-498
-484
-459
-410
-341
-284
-193
6
214
268
200
143
107
44
-33
-92
-139
-188
-224
-253
-292
-322
-330
-336
-344
-336
-326
-323
-315
-305
-315
-329
-320
-308
-328
-345
-307
-254
-256
-312
-366
-398
-424
-437
-430
-449
-492
-498
-515
-584
-560
-403
-191
160
475
282
-199
-279
-20
94
81
131
186
197
205
225
252
266
262
279
314
328
344
387
428
459
495
531
569
620
662
674
666
634
572
497
423
344
259
187
143
127
121
112
107
110
120
127
126
142
170
161
122
107
107
87
68
74
91
116
132
101
37
-1
-13
-32
-46
-54
-81
-95
-84
-96
-91
-19
69
206
370
244
-202
-453
-322
-191
-216
-234
-224
-231
-221
-207
-216
-216
-198
-186
-176
-162
-156
-158
-151
-125
-99
-90
-74
-28
18
33
32
37
35
8
-45
-112
-168
-196
-212
-225
-220
-196
-174
-157
-133
-109
-97
-86
-68
-60
-62
-55
-35
-11
18
