# session 193
31
31
9
-23
-61
-115
-172
-209
-228
-237
-238
-239
-237
-225
-214
-212
-206
-191
-169
-140
-116
-89
-17
92
220
446
789
1142
1543
1976
1991
1273
293
-298
-457
-482
-508
-522
-517
-505
-491
-471
-462
-484
-498
-481
-481
-519
-562
-594
-613
-630
-667
-700
-676
-590
-493
-395
-258
-105
-4
58
125
168
190
246
305
300
266
254
253
243
221
189
170
176
216
328
512
705
891
1063
1120
981
711
441
283
243
186
47
-73
-112
-124
-135
-140
-161
-196
-224
-250
-268
-259
-267
-324
-350
-318
-339
-433
-492
-489
-463
-415
-359
-294
-199
-119
-93
-46
48
99
81
60
56
42
24
28
49
63
59
56
58
49
32
35
45
36
26
43
62
57
52
58
53
41
33
30
35
35
20
15
18
13
21
35
24
12
22
23
21
40
45
26
30
49
42
34
60
72
42
24
39
40
13
-11
-24
-55
-86
-70
-31
-28
-41
-5
67
114
105
67
40
33
25
18
16
-4
-24
-15
-28
-54
2
115
256
471
531
174
-241
-262
-96
-66
-82
-53
-48
-62
-56
-51
-57
-58
-49
-35
-31
-31
-16
10
28
33
36
59
100
124
126
148
198
218
196
181
168
120
74
60
25
-49
-103
-120
-146
-186
-199
-193
-193
-192
-178
-165
-156
-148
-146
-153
-167
-175
-156
-126
-115
-100
-55
-23
-36
-64
-76
-80
-79
-75
-74
-70
-65
-73
-66
-48
-69
-52
85
252
440
632
484
-41
-341
-206
-87
-134
-135
-93
-92
-92
-88
-98
-105
-114
-112
-86
-75
-85
-70
-40
-16
19
65
113
174
244
298
328
343
362
378
358
294
205
126
85
54
-2
-44
-49
-62
-88
-97
-107
-124
-122
-102
-88
-97
-121
-119
-73
-36
-56
-74
-12
75
90
57
42
25
-8
-10
17
23
7
-18
-26
25
48
-33
-45
90
225
434
670
449
-155
-403
-224
-140
-191
-180
-172
-199
-197
-187
-179
-165
-174
-192
-182
-164
-150
-128
-112
-98
-61
-10
38
92
159
218
257
280
280
254
207
142
67
-4
-58
-95
-125
-151
-162
-163
-170
-170
-156
-152
-150
-120
-91
-92
-71
16
130
199
216
322
635
1006
1246
1307
979
153
-649
-884
-710
-511
-387
-330
-318
-300
-283
-285
-274
-256
-248
-231
-214
-207
-175
-129
-122
-131
-110
-77
-49
-4
57
106
137
166
182
161
114
70
36
4
-13
-13
-7
4
15
19
35
69
117
187
263
352
524
741
902
1143
1523
1621
1154
488
21
-232
-336
-349
-366
-392
-387
-388
-426
-465
-477
-475
-496
-547
-586
-587
-598
-648
-666
-623
-606
-625
-569
-433
-294
-139
39
165
206
207
189
156
124
101
83
67
52
44
48
48
32
25
38
46
38
30
29
32
31
20
14
16
17
28
43
35
23
33
44
45
50
63
72
71
66
68
81
104
114
86
62
82
94
70
64
90
103
92
77
73
85
90
80
75
72
65
80
96
63
7
-20
-25
-23
-24
-47
-71
-52
-15
-15
-40
-50
-44
-42
-35
-8
13
7
21
55
40
31
120
239
381
577
539
117
-219
-157
-25
-43
-66
-45
-38
-35
-47
-70
-54
-40
-83
-108
-78
-78
-119
-122
-88
-76
-78
-60
-29
1
28
50
72
90
84
67
60
51
30
4
-33
-73
-96
-106
-119
-126
-125
-125
-124
-116
-108
-102
-93
-87
-95
-113
-120
-103
-83
-87
-92
-63
-27
-22
-44
-77
-97
-81
-65
-89
-97
-61
-50
-56
-20
-22
-76
-20
137
254
341
309
4
-301
-257
-60
-19
-56
-36
-4
1
1
5
11
20
25
19
21
39
57
70
85
102
131
181
221
238
263
296
303
286
261
214
147
79
15
-37
-64
-76
-87
-89
-78
-67
-60
-48
-28
-14
-9
6
34
44
32
20
14
15
22
25
33
62
95
101
67
11
-17
5
18
-19
-42
-22
-38
-85
-70
-52
-86
-57
36
139
365
533
244
-241
-336
-168
-144
-186
-137
-95
-104
-103
-94
-97
-95
-85
-73
-60
-50
-38
-24
-11
1
21
51
83
111
136
165
188
192
190
185
151
103
71
29
-46
-88
-71
-67
-88
-93
-111
-133
-105
-111
-122
-13
-177
-677
-367
448
-740
-3314
-3234
-551
762
239
152
488
377
252
325
293
254
291
265
230
263
265
234
244
234
191
245
364
473
656
714
318
-170
-215
-48
-46
-79
-41
-39
-42
0
12
-3
20
50
48
48
71
96
113
132
154
172
195
237
287
323
351
386
408
390
349
301
241
160
63
-22
-62
-70
-79
-92
-115
-156
-167
-142
-140
-164
-165
-164
-177
-171
-162
-198
-234
-216
-189
-203
-221
-187
-117
-75
-86
-113
-131
-143
-136
-119
-120
-115
-97
-96
-83
-62
-93
-72
74
197
350
626
584
28
-376
-276
-138
-183
-198
-158
-153
-159
-164
-170
-163
-150
-120
-79
-81
-102
-70
-23
-19
-11
28
72
120
171
208
248
297
314
293
263
224
149
61
19
18
-11
-67
-65
-14
-7
-48
-69
-71
-86
-104
-114
-123
-131
-135
-137
-137
-138
-141
-138
-112
-74
-56
-40
11
65
73
57
50
45
47
61
65
64
75
80
87
114
95
54
129
259
365
615
840
546
-20
-179
-32
-30
-95
-58
-34
-72
-92
-94
-110
-126
-116
-99
-125
-162
-138
-89
-81
-72
-34
-22
-21
43
125
141
123
144
195
216
172
96
37
-6
-50
-89
-113
-127
-136
-141
-141
-138
-133
-134
-133
-122
-106
-95
-87
-82
-87
-97
-104
-100
-95
-109
-122
-106
-95
-117
-125
-104
-91
-79
-34
18
42
40
14
-17
-28
-21
-10
-6
-8
-2
3
-3
0
-10
-26
26
122
224
360
344
9
-299
-245
-79
-76
-108
-65
-37
-55
-47
-2
37
58
67
63
53
43
25
2
-3
7
17
30
55
86
120
162
207
243
259
249
223
188
138
79
32
9
-2
-15
-27
-17
-1
-18
-47
-37
-10
-8
-16
-21
-6
76
204
316
459
683
861
848
706
591
535
426
136
-273
-522
-470
-327
-313
-363
-353
-307
-298
-341
-395
-411
-402
-414
-437
-433
-415
-400
-370
-318
-258
-192
-120
-58
-11
26
56
67
57
32
3
-24
-46
-62
-70
-70
-67
-58
-55
-63
-56
-23
0
-6
-5
11
22
36
56
53
52
80
79
63
91
72
17
97
110
-169
-307
-37
151
43
5
85
72
29
61
97
105
114
121
111
95
80
64
47
32
22
7
-7
-8
0
6
13
20
28
38
46
48
42
29
39
72
74
64
105
150
126
87
74
54
48
70
60
32
33
35
35
35
-1
-1
95
236
468
700
523
-9
-288
-194
-120
-155
-169
-173
-183
-179
-185
-193
-183
-183
-204
-210
-192
-174
-166
-156
-137
-110
-77
-42
-7
35
82
127
160
175
169
156
147
124
79
32
-4
-40
-75
-94
-103
-119
-127
-119
-112
-109
-99
-84
-75
-72
-69
-61
-52
-46
-47
-65
-71
-29
-4
-46
-58
1
26
-9
-47
-83
-105
-84
-66
-76
-60
-36
-40
-22
6
0
50
173
301
502
635
334
-176
-302
-128
-84
-130
-99
-83
-112
-109
-81
-63
-43
-15
5
5
2
32
76
90
98
137
166
169
204
271
315
345
393
418
379
316
261
189
100
41
12
-29
-82
-99
-89
-93
-95
-79
-87
-113
-109
-97
-111
-125
-116
-106
-114
-131
-137
-136
-149
-173
-186
-182
-164
-148
-143
-123
-68
-26
-39
-69
-67
-58
-71
-84
-75
-56
-62
-85
-65
-37
-83
-71
95
244
408
698
674
94
-367
-274
-89
-115
-147
-113
-109
-106
-81
-86
-105
-99
-92
-101
-109
-119
-108
-71
-56
-54
-9
41
70
132
207
233
266
339
365
322
287
248
171
99
61
23
-19
-51
-79
-100
-112
-128
-141
-136
-122
-114
-105
-87
-68
-57
-46
-33
-38
-64
-71
-49
-44
-70
-76
-28
32
37
-3
-20
-16
-35
-44
-22
-16
-35
-54
-58
-43
-52
-85
-27
93
222
530
825
533
-128
-372
-221
-183
-237
-204
-180
-202
-203
-191
-184
-172
-167
-166
-155
-143
-132
-106
-74
-51
-26
18
75
121
153
195
249
275
261
238
216
172
108
44
-12
-49
-53
-52
-73
-89
-76
-37
17
39
43
170
455
698
843
1105
1425
1314
629
-73
-333
-334
-361
-373
-328
-322
-354
-331
-263
-225
-248
-294
-315
-317
-333
-358
-368
-378
-398
-394
-347
-281
-212
-130
-45
30
91
128
128
107
88
75
58
43
38
42
46
43
49
64
60
44
52
71
66
57
64
67
51
34
34
50
51
38
39
34
8
3
20
24
10
-21
-51
-32
4
6
3
-1
-41
-70
-47
-37
-59
-64
-54
-54
-56
-65
-77
-78
-77
-80
-73
-62
-71
-82
-72
-52
-48
-55
-39
12
45
23
-16
-29
-31
-37
-41
-33
-27
-29
-13
1
-27
-19
78
183
329
538
532
147
-273
-283
-4
-47
-280
58
194
-983
-1821
-765
360
169
-77
154
155
36
107
139
103
132
171
205
262
296
315
351
377
379
372
351
312
272
227
167
103
53
19
-5
-21
-28
-28
-23
-13
0
10
14
18
24
21
8
5
20
24
1
-22
-19
-2
7
-8
-24
3
52
57
16
-16
-16
-11
-22
-39
-48
-67
-97
-87
-33
-34
-81
-36
86
223
451
583
254
-260
-385
-231
-193
-224
-194
-180
-188
-173
-171
-181
-166
-147
-141
-130
-116
-108
-89
-56
-33
-19
-2
26
69
122
167
202
232
243
234
206
154
89
28
-28
-72
-113
-140
-119
-109
-140
-105
-101
-209
-125
-25
-299
-172
297
-874
-2971
-2578
-254
566
20
35
290
168
138
246
243
249
281
244
218
239
238
213
200
193
163
143
163
142
92
163
318
479
753
898
492
-77
-154
43
67
25
57
58
33
36
27
14
34
50
40
39
47
41
45
76
99
102
110
129
159
210
256
261
254
276
273
205
141
99
14
-75
-90
-96
-155
-205
-201
-179
-165
-154
-150
-152
-154
-157
-164
-169
-166
-160
-163
-181
-194
-182
-154
-144
-147
-126
-77
-42
-41
-60
-88
-105
-90
-75
-87
-93
-78
-77
-76
-56
-71
-81
5
115
258
534
612
173
-297
-299
-149
-171
-195
-143
-130
-144
-130
-111
-102
-87
-65
-56
-56
-34
6
33
69
125
161
161
164
194
233
251
249
247
240
216
183
139
71
5
-30
-54
-81
-84
-68
-58
-50
-37
-38
-40
-21
-8
-12
-1
18
5
-11
5
10
-21
-38
-14
10
0
-13
20
72
70
13
-22
-31
-58
-77
-71
-86
-101
-82
-80
-101
-93
-103
-133
-84
22
202
517
616
188
-275
-280
-125
-131
-157
-122
-115
-124
-117
-116
-119
-116
-114
-105
-88
-78
-74
-61
-41
-22
-5
20
56
88
115
145
174
190
203
213
192
138
84
39
-6
-38
-49
-48
-40
-46
-74
-79
-46
-38
-67
-71
-42
-29
-35
-27
-9
-1
-4
-7
-16
-32
-39
-23
8
20
22
70
144
158
120
98
83
51
23
4
-13
-20
-36
-55
-46
-49
-72
-25
81
200
423
580
314
-136
-236
-88
-57
-91
-61
-41
-47
-37
-26
-18
-6
-5
0
22
21
0
17
60
60
42
76
126
129
133
181
222
219
209
203
170
117
70
26
-28
-76
-91
-104
-157
-197
-172
-142
-156
-166
-150
-130
-103
-66
-51
-63
-74
-76
-80
-87
-88
-91
-109
-127
-119
-94
-91
-102
-79
-34
-36
-75
-97
-104
-109
-97
-91
-94
-73
-67
-86
-50
-32
-96
-48
104
180
353
510
202
-172
-206
-317
-142
330
-688
-2600
-2165
-16
562
-35
46
272
104
91
183
126
126
193
187
187
235
270
292
324
363
400
417
406
383
349
290
213
138
80
36
-1
-29
-42
-42
-31
-17
-7
5
13
0
6
64
90
71
135
262
358
529
782
937
1129
1512
1603
1014
226
-199
-334
-387
-357
-285
-266
-297
-349
-416
-449
-430
-432
-477
-503
-504
-529
-558
-559
-566
-597
-596
-535
-451
-362
-258
-135
5
128
185
191
191
241
398
571
622
729
1062
1214
794
150
-217
-320
-354
-360
-352
-365
-389
-393
-379
-373
-384
-393
-401
-424
-452
-467
-486
-513
-521
-497
-442
-365
-272
-164
-63
8
61
96
86
73
92
83
58
157
358
434
231
-158
-467
-522
-442
-390
-317
-162
-3
116
204
239
229
243
304
355
348
317
310
327
353
391
444
509
588
666
710
714
682
607
497
387
293
207
130
73
25
-16
-26
-11
-19
-49
-46
-15
-11
-23
-15
-11
-27
-36
-41
-52
-45
-23
-18
-31
-57
-92
-98
-72
-67
-97
-121
-106
-73
-84
-141
-143
-89
-105
-175
-168
-125
-146
-169
-137
-110
-111
-108
-103
-109
-115
-116
-120
-120
-111
-102
-107
-121
-129
-120
-109
-116
-125
-96
-46
-36
-69
-96
-104
-112
-119
-113
-99
-99
-111
-94
-58
-68
-87
-4
159
325
484
444
-12
-435
-243
-8
-311
-222
274
-589
-2098
-1594
46
297
-177
-39
111
-26
3
82
57
81
117
129
195
249
248
270
314
328
319
298
260
223
191
154
118
85
42
11
4
-6
-12
24
71
99
142
188
272
513
822
1033
1334
1751
1706
956
139
-222
-282
-294
-295
-300
-323
-331
-308
-292
-316
-358
-380
-379
-375
-384
-417
-464
-497
-485
-427
-375
-338
-250
-115
-17
50
143
204
174
113
82
59
19
-18
-31
-33
-48
-55
-29
0
-1
-3
15
25
9
