# session 85
-23
-10
-15
-8
7
5
8
26
34
36
47
60
72
81
94
125
164
195
229
267
293
312
317
291
235
166
97
46
8
-29
-48
-46
-49
-53
-48
-47
-61
-52
12
84
65
-15
-35
-8
-26
-58
-38
0
25
32
-2
-18
45
118
222
422
443
80
-260
-231
-79
-37
-41
-56
-79
-55
-12
-3
-11
-8
14
45
51
56
102
148
159
186
231
254
279
308
287
243
221
174
81
0
-46
-76
-95
-110
-131
-154
-155
-127
-112
-125
-105
-42
-21
-69
-118
-132
-142
-153
-154
-166
-176
-146
-139
-181
-119
43
155
306
450
191
-324
-465
-262
-189
-238
-221
-213
-249
-241
-210
-211
-212
-187
-175
-184
-171
-137
-111
-72
-12
45
121
217
262
263
280
268
178
82
20
-43
-95
-116
-141
-172
-169
-137
-108
-98
-114
-117
-45
54
67
17
12
37
25
20
51
64
74
99
69
64
203
347
490
770
793
233
-288
-262
-96
-103
-109
-77
-90
-99
-91
-86
-55
-26
-44
-46
2
27
14
29
85
149
201
249
311
357
346
300
243
152
47
-17
-59
-111
-135
-128
-140
-160
-147
-129
-135
-120
-65
-21
-13
-20
-37
-72
-112
-120
-96
-100
-114
-79
-69
-93
4
136
199
430
674
370
-210
-347
-200
-214
-254
-203
-214
-250
-222
-208
-226
-208
-187
-195
-179
-137
-114
-89
-29
42
102
164
227
274
298
284
232
166
89
-6
-74
-79
-78
-110
-129
-120
-118
-104
-62
-56
-67
1
91
101
102
164
219
286
447
610
705
908
1292
1496
1159
464
-108
-354
-411
-431
-452
-454
-442
-451
-475
-476
-467
-484
-522
-565
-592
-597
-636
-709
-710
-622
-530
-418
-261
-135
-35
103
207
207
177
171
163
157
160
160
156
157
162
167
149
122
133
160
145
125
148
188
211
208
170
125
111
110
102
91
73
67
84
66
40
102
193
298
500
522
105
-314
-313
-177
-191
-225
-205
-196
-199
-200
-188
-154
-133
-120
-86
-58
-51
-37
-11
33
102
153
180
233
287
286
258
247
230
179
109
41
-11
-28
-31
-57
-74
-45
-19
-30
-40
-30
-14
-3
-19
-65
-99
-114
-131
-138
-137
-139
-114
-96
-131
-115
0
110
247
382
214
-206
-383
-260
-182
-195
-188
-192
-195
-164
-159
-181
-172
-154
-156
-147
-119
-95
-73
-41
-1
52
111
163
213
257
266
224
152
69
-18
-87
-123
-147
-172
-174
-152
-150
-161
-145
-119
-87
-10
71
74
22
5
20
1
-26
3
68
110
91
37
88
273
416
569
811
729
200
-117
28
141
78
89
131
89
64
98
106
88
95
104
82
62
86
131
146
150
201
270
309
360
409
337
151
-11
-117
-215
-292
-329
-351
-368
-380
-378
-351
-342
-358
-331
-242
-142
-38
60
135
248
431
608
792
1107
1473
1546
1105
353
-249
-493
-566
-639
-652
-606
-610
-646
-652
-658
-689
-714
-720
-736
-782
-830
-849
-851
-836
-771
-650
-496
-316
-134
6
87
129
146
136
111
96
96
92
86
87
90
96
109
120
127
133
120
100
119
157
144
120
175
252
243
184
158
147
126
132
153
132
107
127
126
96
145
245
363
610
757
400
-148
-290
-161
-139
-157
-121
-131
-170
-157
-122
-115
-118
-104
-69
-23
4
-3
1
42
85
123
184
255
304
331
344
343
319
265
193
127
84
60
31
0
-6
12
40
72
92
115
200
312
381
478
643
777
933
1196
1305
1008
494
61
-208
-333
-369
-385
-394
-391
-408
-440
-448
-460
-506
-552
-570
-600
-661
-715
-734
-725
-680
-584
-455
-322
-190
-71
13
60
87
90
63
17
-19
-25
-15
-20
-36
-37
-27
-24
-27
-36
-59
-90
-105
-86
-70
-115
-177
-146
-50
-6
-25
-40
-31
-32
-52
-55
-26
-1
10
-5
-53
-8
168
306
492
802
714
69
-346
-212
-82
-137
-137
-111
-122
-93
-69
-100
-102
-62
-53
-65
-42
2
28
48
104
186
252
312
370
388
379
371
311
189
93
34
-55
-125
-133
-159
-206
-179
-128
-155
-188
-146
-67
-1
7
-53
-97
-98
-121
-133
-92
-93
-121
-80
-60
-77
40
203
295
476
544
142
-301
-271
-94
-98
-109
-65
-60
-56
-43
-49
-28
-3
-19
-22
8
23
34
73
119
164
228
299
355
386
378
323
247
168
73
-22
-77
-100
-118
-128
-138
-161
-161
-127
-109
-99
-60
-23
-2
21
11
-38
-53
-22
-12
-45
-76
-55
-28
-42
2
111
191
393
684
548
-20
-319
-198
-121
-176
-171
-134
-137
-139
-125
-98
-74
-72
-75
-55
-24
10
33
37
52
92
124
134
136
138
135
106
57
21
-20
-79
-110
-117
-142
-156
-135
-110
-93
-77
-74
-70
-39
-1
3
-32
-72
-91
-93
-87
-86
-94
-80
-49
-74
-100
-5
128
213
299
234
-98
-361
-302
-162
-148
-179
-185
-172
-149
-140
-144
-134
-120
-118
-105
-78
-63
-54
-26
23
83
145
196
234
261
270
254
209
135
57
-2
-38
-60
-72
-76
-76
-72
-45
-10
-10
-15
24
57
41
24
22
3
-16
-4
16
11
14
43
36
15
99
223
287
410
483
194
-208
-242
-72
-49
-89
-69
-73
-102
-95
-75
-70
-67
-65
-61
-50
-37
-16
18
61
106
152
201
257
305
328
330
307
243
163
107
63
12
-24
-40
-64
-83
-68
-47
-63
-76
-28
40
61
40
15
-9
-35
-40
-26
-41
-61
-13
18
-43
-5
172
287
448
677
471
-143
-403
-217
-155
-247
-221
-167
-185
-191
-187
-205
-198
-164
-157
-175
-173
-128
-72
-43
-18
54
153
215
238
265
272
209
107
21
-54
-130
-185
-212
-222
-227
-233
-240
-236
-214
-186
-164
-123
-72
-64
-101
-140
-172
-183
-161
-154
-173
-156
-145
-187
-135
50
160
226
367
265
-193
-443
-270
-140
-199
-190
-114
-115
-155
-161
-139
-107
-92
-95
-75
-33
-9
15
71
137
206
296
368
376
365
365
336
266
174
81
27
10
-18
-38
-32
-53
-82
-53
-11
-16
-11
46
101
115
99
67
39
21
11
18
19
14
37
41
20
99
225
316
578
858
575
-55
-253
-82
-55
-118
-87
-67
-77
-46
-27
-49
-48
-15
5
6
22
60
84
97
130
176
208
240
273
275
241
216
184
101
11
-20
-24
-43
-61
-67
-75
-77
-69
-57
-45
-39
-28
-2
8
-9
-23
-25
-29
-27
-26
-34
-15
-2
-36
2
132
198
265
406
302
-93
-275
-134
-52
-86
-71
-56
-76
-70
-71
-103
-101
-67
-58
-72
-67
-44
-28
-14
23
68
102
141
178
184
173
154
96
5
-69
-112
-145
-175
-202
-230
-250
-259
-247
-216
-207
-225
-200
-145
-155
-223
-262
-285
-323
-324
-287
-290
-305
-269
-263
-299
-234
-82
48
195
214
-131
-520
-507
-306
-277
-321
-290
-263
-272
-265
-248
-250
-256
-241
-208
-183
-178
-173
-150
-111
-62
-3
56
99
128
153
154
109
44
-22
-91
-142
-155
-164
-182
-190
-192
-200
-214
-244
-260
-204
-107
-39
-2
30
87
231
463
668
832
1105
1434
1424
875
141
-318
-454
-461
-444
-416
-398
-400
-402
-390
-373
-377
-409
-434
-425
-409
-426
-462
-457
-390
-295
-170
8
199
371
532
651
714
767
806
813
844
901
914
919
986
1055
1081
1123
1195
1238
1251
1301
1381
1408
1396
1458
1599
1690
1684
1673
1696
1699
1686
1708
1728
1723
1757
1785
1745
1805
1983
2078
2247
2568
2441
1763
1347
1397
1367
1189
1002
607
20
-526
-1091
-1714
-2195
-2529
-2875
-3210
-3482
-3766
-4061
-4302
-4516
-4693
-4740
-4683
-4660
-4691
-4692
-4636
-4557
-4464
-4324
-4125
-3873
-3544
-3139
-2718
-2321
-1930
-1542
-1203
-941
-703
-421
-134
69
194
299
397
498
625
744
824
920
1028
1060
1107
1285
1449
1601
1902
1991
1534
1086
1132
1295
1280
1274
1314
1302
1295
1309
1289
1271
1282
1275
1249
1242
1266
1299
1302
1287
1298
1332
1355
1360
1344
1305
1257
1187
1075
957
881
823
756
714
706
673
604
572
591
586
533
498
513
531
498
426
370
329
283
263
260
228
196
175
123
101
152
230
414
651
518
-13
-355
-309
-257
-317
-337
-332
-345
-331
-318
-338
-341
-322
-318
-317
-302
-289
-280
-251
-211
-179
-152
-123
-101
-94
-104
-136
-189
-252
-309
-351
-376
-389
-398
-408
-412
-405
-392
-373
-353
-335
-305
-249
-176
-119
-67
42
196
327
468
650
725
529
102
-362
-680
-805
-840
-884
-931
-952
-966
-985
-1002
-1018
-1043
-1080
-1120
-1153
-1175
-1179
-1174
-1147
-1071
-945
-785
-581
-378
-241
-142
-33
42
55
52
47
39
50
65
72
100
135
147
175
217
213
180
180
209
237
232
200
218
320
396
362
290
266
274
283
295
291
290
327
317
267
361
552
701
936
1099
716
90
-40
189
236
162
183
207
184
183
187
176
186
212
220
220
235
262
287
320
379
430
458
507
557
536
493
470
383
237
149
94
11
-20
4
-37
-106
-82
-38
-64
-50
70
181
264
434
636
734
851
1131
1302
1036
494
26
-289
-462
-486
-487
-539
-548
-510
-531
-576
-590
-630
-682
-686
-706
-793
-860
-867
-863
-846
-768
-631
-468
-314
-191
-94
-10
38
20
-35
-65
-64
-63
-72
-80
-82
-77
-63
-49
-52
-64
-58
-44
-60
-90
-90
-62
-54
-83
-90
-27
49
53
10
-7
7
11
-4
-19
-22
-3
11
-10
28
170
270
413
769
865
310
-236
-201
-17
-44
-90
-82
-85
-55
-16
-22
-29
-17
-7
2
8
22
63
104
130
180
251
304
340
367
360
323
285
231
146
65
16
-13
-43
-75
-93
-88
-69
-51
-36
-29
-12
40
87
64
-1
-32
-39
-49
-41
-29
-42
-44
-45
-71
-38
59
165
379
551
279
-217
-347
-204
-175
-201
-173
-175
-189
-169
-159
-156
-141
-133
-121
-104
-101
-88
-43
8
58
117
176
227
261
262
232
187
120
36
-24
-43
-55
-70
-69
-70
-96
-109
-80
-55
-60
-57
-22
10
-1
-53
-93
-90
-87
-111
-123
-105
-86
-95
-129
-116
-13
95
184
275
179
-176
-424
-342
-200
-194
-209
-179
-160
-160
-157
-147
-126
-95
-67
-42
-16
10
45
92
137
190
263
321
342
353
352
309
242
171
87
5
-37
-41
-45
-65
-81
-72
-35
4
14
0
18
76
106
74
33
18
5
-9
-1
2
-6
16
20
-19
21
145
254
437
586
307
-220
-387
-229
-162
-182
-164
-163
-172
-150
-138
-137
-118
-100
-79
-47
-31
-25
9
60
106
165
230
271
299
323
313
261
189
107
18
-46
-72
-79
-81
-90
-118
-141
-136
-126
-135
-132
-78
-13
-2
-38
-66
-86
-116
-113
-74
-84
-107
-65
-74
-137
-31
159
235
360
455
117
-365
-405
-210
-184
-207
-172
-175
-177
-140
-130
-139
-122
-109
-110
-95
-65
-28
16
67
126
192
252
296
322
320
282
211
116
15
-57
-93
-126
-160
-158
-134
-134
-141
-129
-112
-88
-31
65
172
250
316
456
656
820
1010
1336
1609
1472
863
136
-319
-459
-485
-516
-539
-534
-515
-509
-531
-556
-568
-598
-662
-718
-751
-787
-818
-807
-739
-617
-457
-294
-129
40
157
202
216
199
152
138
154
145
121
115
114
122
137
127
108
113
110
73
46
53
62
52
51
85
131
143
134
135
123
88
87
116
104
75
94
104
80
124
216
311
526
674
364
-145
-266
-98
-51
-92
-69
-41
-43
-40
-32
-24
-15
-22
-24
-2
15
9
8
31
77
131
170
206
241
252
233
196
134
62
6
-40
-74
-95
-126
-164
-177
-168
-154
-128
-101
-87
-67
-31
-6
-15
-41
-60
-70
-71
-61
-60
-79
-80
-72
-97
-83
14
102
156
155
-52
-362
-425
-268
-194
-221
-211
-182
-176
-170
-163
-158
-142
-121
-98
-71
-51
-35
-6
36
86
141
202
258
285
270
240
200
118
11
-68
-118
-156
-161
-146
-146
-149
-123
-88
-63
-47
-28
7
61
101
113
115
144
216
301
409
587
749
826
1041
1436
1493
927
218
-168
-284
-293
-274
-288
-316
-327
-355
-382
-380
-406
-483
-552
-579
-599
-658
-740
-783
-751
-671
-566
-440
-295
-132
21
121
167
187
184
156
123
101
86
77
70
68
68
59
47
55
85
92
58
55
138
226
219
162
143
143
117
96
93
81
103
145
97
63
195
340
443
639
625
140
-283
-224
-65
-88
-111
-76
-86
-114
-107
-86
-73
-75
-88
-89
-64
-28
-2
24
81
158
218
258
298
326
316
265
192
114
30
-50
-99
-119
-140
-161
-168
-173
-180
-169
-143
-126
-111
-80
-44
-36
-72
-118
-145
-156
-154
-152
-167
-155
-118
-149
-169
-50
73
149
305
291
-112
-439
-361
-237
-271
-272
-221
-220
-225
-204
-192
-178
-149
-128
-110
-63
-11
12
37
100
167
208
250
306
333
305
247
182
105
18
-53
-93
-111
-116
-109
-106
-116
-112
-73
-44
-60
-66
-8
54
48
13
13
29
25
21
28
27
39
56
22
11
110
201
263
402
391
42
-241
-166
-24
-17
-23
-6
-13
-12
4
11
22
35
30
35
68
93
107
148
198
231
268
319
357
367
350
315
270
211
147
94
48
18
19
18
-19
-51
-39
-9
4
-7
-22
-8
25
22
-22
-50
-53
-72
-85
-72
-89
-126
-128
-146
-165
-86
20
140
352
361
-69
-462
-423
-279
-294
-326
-315
-317
-299
-272
-283
-287
-265
-270
-282
-249
-211
-212
-218
-196
-151
-102
-61
-29
