# session 45
-4
-53
-61
-52
-52
-75
-131
-174
-177
-201
-256
-286
-315
-374
-393
-348
-323
-322
-255
-116
9
104
212
297
301
263
241
214
164
143
157
144
115
122
144
147
142
137
121
108
110
109
93
84
102
116
96
68
63
66
62
52
31
4
-4
9
3
-30
-35
17
72
76
34
-21
-51
-43
-43
-79
-85
-53
-55
-84
-93
-91
-40
81
210
371
491
265
-212
-395
-214
-101
-138
-127
-92
-115
-122
-90
-92
-114
-89
-58
-71
-74
-42
-24
-25
-10
23
73
138
190
231
275
295
289
283
252
178
106
49
-22
-86
-121
-146
-162
-157
-158
-159
-137
-113
-111
-99
-73
-73
-87
-77
-55
-41
-32
-26
-14
24
54
28
-30
-63
-65
-59
-54
-47
-59
-81
-51
-2
-39
-75
23
145
239
375
322
-64
-355
-273
-130
-123
-122
-102
-99
-80
-61
-70
-72
-65
-70
-67
-46
-23
-12
-7
11
48
84
117
165
221
262
285
298
292
252
188
120
57
-3
-50
-76
-92
-105
-107
-95
-86
-84
-79
-72
-72
-80
-81
-74
-68
-65
-59
-43
-11
24
32
8
-19
-41
-61
-73
-70
-54
-59
-91
-82
-40
-80
-123
5
177
291
491
548
105
-387
-361
-130
-119
-162
-113
-101
-133
-124
-101
-97
-84
-67
-63
-56
-45
-39
-14
38
78
106
160
231
292
357
419
438
414
364
274
159
68
-8
-84
-128
-149
-188
-214
-196
-178
-184
-179
-162
-151
-139
-135
-139
-114
-77
-79
-88
-43
20
44
41
27
-14
-56
-49
-21
-20
-27
-22
-14
-8
-38
-55
50
198
331
551
600
150
-346
-352
-169
-172
-205
-161
-143
-143
-126
-125
-136
-135
-122
-101
-83
-80
-72
-40
-1
28
65
127
204
275
329
362
371
352
298
212
116
34
-30
-81
-113
-123
-127
-135
-127
-90
-56
-16
77
188
309
553
858
1071
1355
1790
1875
1270
440
-85
-316
-425
-464
-490
-532
-559
-571
-581
-586
-610
-659
-695
-712
-750
-804
-824
-805
-781
-730
-617
-475
-345
-208
-62
50
113
136
126
104
89
66
40
33
26
3
-6
8
15
11
26
53
52
22
17
48
62
50
48
53
39
21
17
16
18
25
26
24
31
46
54
55
58
69
81
89
90
92
96
94
82
69
69
75
79
77
64
65
108
162
176
146
107
88
83
70
51
36
34
57
59
3
15
151
274
403
571
459
-7
-297
-196
-91
-128
-123
-94
-127
-135
-92
-87
-106
-89
-66
-64
-53
-38
-31
-13
21
54
91
130
169
222
271
285
282
279
256
211
171
128
66
12
-17
-46
-80
-99
-104
-107
-100
-86
-87
-103
-108
-92
-76
-82
-98
-88
-57
-44
-65
-101
-140
-169
-166
-148
-148
-152
-147
-144
-136
-133
-149
-116
-14
76
166
226
33
-335
-449
-266
-139
-154
-153
-121
-116
-116
-103
-90
-89
-90
-77
-53
-33
-18
1
28
62
102
148
197
249
303
350
374
369
339
275
175
73
0
-59
-112
-136
-130
-125
-130
-127
-118
-107
-98
-105
-123
-118
-89
-71
-67
-61
-45
-4
48
65
43
14
-9
-17
-24
-38
-31
-16
-32
-20
6
-51
-52
126
283
441
719
648
12
-433
-296
-121
-163
-174
-132
-142
-151
-142
-151
-139
-109
-108
-104
-68
-53
-56
-23
20
45
96
178
239
285
343
385
398
389
328
214
111
47
-3
-46
-86
-118
-119
-112
-122
-109
-63
-25
36
137
224
385
708
981
1096
1362
1750
1632
852
54
-322
-433
-484
-508
-530
-558
-569
-573
-582
-587
-600
-637
-680
-709
-731
-761
-789
-803
-799
-762
-678
-546
-379
-207
-67
44
130
155
132
114
93
49
26
43
62
65
63
64
67
66
63
72
85
82
66
54
47
34
17
17
33
51
61
58
52
62
70
64
69
88
90
80
88
96
87
85
95
86
62
54
66
72
62
50
71
126
150
113
81
102
118
78
46
61
65
58
63
30
27
144
274
430
683
660
157
-267
-233
-88
-90
-122
-120
-116
-113
-114
-119
-120
-117
-102
-78
-63
-55
-40
-19
6
36
68
103
151
202
235
259
280
272
242
221
192
128
52
1
-34
-70
-92
-98
-115
-132
-117
-105
-133
-152
-131
-114
-115
-114
-120
-125
-96
-64
-82
-119
-141
-157
-170
-159
-134
-131
-157
-156
-116
-123
-150
-61
89
180
251
217
-74
-354
-312
-146
-111
-123
-110
-115
-111
-83
-75
-82
-75
-63
-57
-52
-39
-16
12
39
69
106
146
191
239
281
303
296
276
244
172
73
-4
-54
-97
-117
-120
-129
-126
-100
-91
-94
-73
-49
-54
-67
-62
-37
-13
-18
-23
16
63
64
35
8
-5
-4
-14
-31
-17
-6
-32
-35
-25
-48
-12
106
200
339
495
303
-179
-373
-218
-131
-159
-132
-98
-113
-123
-120
-119
-110
-106
-102
-84
-62
-49
-32
-8
21
57
101
158
226
284
329
369
387
371
327
247
144
61
21
1
-23
-54
-76
-74
-67
-75
-72
-49
-42
-42
-15
32
94
183
303
501
790
1018
1129
1302
1494
1304
645
-14
-318
-368
-373
-411
-466
-492
-482
-480
-492
-501
-520
-559
-599
-621
-638
-675
-729
-760
-757
-742
-700
-604
-483
-362
-217
-54
71
134
147
115
73
56
46
27
20
26
20
13
20
30
31
24
22
29
33
25
16
6
-7
-9
7
19
11
4
18
29
27
41
68
64
39
30
41
56
51
31
60
146
204
197
159
124
110
106
99
103
99
85
98
86
43
123
294
414
619
817
516
-109
-323
-142
-81
-136
-117
-97
-111
-90
-64
-70
-79
-80
-88
-87
-56
-23
-20
-22
5
45
84
134
192
236
270
303
318
298
252
195
135
74
10
-50
-91
-112
-125
-132
-125
-112
-102
-105
-117
-113
-85
-61
-64
-74
-56
-5
34
26
-14
-48
-56
-52
-69
-87
-80
-92
-119
-100
-99
-134
-44
129
219
324
388
84
-369
-442
-246
-171
-195
-187
-177
-175
-163
-156
-147
-138
-140
-129
-97
-83
-82
-54
-17
4
41
103
159
218
289
335
339
320
283
210
113
32
-24
-84
-133
-148
-155
-177
-186
-170
-151
-140
-135
-125
-104
-87
-96
-110
-88
-51
-52
-63
-15
61
82
51
26
22
19
0
-9
18
33
5
10
39
2
-7
111
246
403
594
479
-13
-320
-206
-71
-103
-130
-107
-97
-92
-87
-97
-95
-68
-44
-40
-33
-12
0
-3
9
52
101
148
201
247
278
307
329
320
275
207
134
65
11
-24
-47
-58
-60
-61
-56
-42
-40
-55
-61
-47
-27
-13
-14
-18
6
45
49
18
-16
-38
-46
-52
-66
-72
-69
-79
-82
-78
-114
-111
8
135
227
300
138
-274
-476
-314
-171
-189
-186
-141
-132
-134
-124
-116
-100
-76
-61
-50
-37
-24
-8
11
32
72
137
200
238
276
324
349
347
337
286
167
54
-2
-45
-87
-98
-102
-126
-141
-137
-140
-142
-132
-131
-143
-145
-129
-106
-93
-97
-90
-45
0
1
-17
-26
-35
-42
-41
-34
-15
-4
-5
21
25
-16
55
228
347
575
890
701
9
-358
-207
-86
-131
-143
-140
-155
-136
-116
-133
-150
-140
-113
-96
-99
-83
-49
-55
-78
-56
5
81
165
231
274
311
317
273
211
137
37
-55
-101
-127
-161
-179
-186
-201
-209
-193
-173
-161
-155
-154
-139
-111
-111
-123
-78
-1
20
2
6
-9
-55
-60
-43
-58
-62
-38
-22
-6
-34
-84
29
240
346
502
654
330
-250
-382
-185
-148
-182
-138
-134
-152
-128
-130
-148
-120
-86
-84
-79
-60
-41
-25
4
51
90
116
175
268
332
351
363
358
300
207
106
16
-46
-75
-95
-113
-129
-140
-120
-77
-56
-26
65
180
334
595
854
1054
1392
1756
1604
863
130
-211
-310
-364
-403
-434
-464
-478
-479
-486
-496
-510
-550
-596
-618
-649
-710
-750
-749
-739
-699
-583
-438
-311
-172
-14
106
171
204
196
169
155
136
110
100
83
55
57
72
68
63
65
69
93
111
78
49
84
112
77
46
54
47
22
23
39
32
18
23
27
12
-6
-4
8
11
6
8
15
8
-14
-24
-11
-7
-26
-21
41
99
94
61
45
40
30
17
16
21
20
29
25
-23
-1
149
289
443
632
487
-53
-367
-240
-127
-182
-193
-158
-163
-163
-138
-124
-123
-132
-133
-99
-45
-25
-40
-29
21
56
76
124
172
189
218
267
275
247
228
193
121
56
19
-23
-70
-94
-90
-89
-103
-105
-85
-76
-95
-110
-108
-112
-119
-111
-107
-109
-70
-7
3
-39
-67
-72
-72
-70
-62
-43
-30
-43
-43
-24
-37
-15
100
225
379
533
355
-132
-353
-186
-76
-114
-93
-54
-77
-85
-64
-63
-62
-46
-38
-36
-25
-4
19
32
44
73
113
166
230
276
302
330
336
291
224
147
60
-5
-40
-75
-101
-101
-107
-127
-129
-116
-116
-119
-111
-109
-121
-121
-104
-94
-99
-92
-56
-13
-1
-18
-34
-44
-52
-61
-70
-62
-51
-72
-73
-30
-46
-67
58
214
341
577
620
126
-382
-355
-152
-162
-208
-166
-146
-163
-171
-176
-170
-147
-119
-100
-98
-101
-80
-43
-13
16
69
145
223
283
330
370
389
373
324
243
149
64
0
-47
-83
-112
-121
-106
-88
-86
-88
-79
-70
-74
-73
-55
-47
-68
-86
-67
-19
16
10
-20
-61
-113
-147
-139
-113
-94
-96
-95
-55
-43
-63
44
223
354
622
841
441
-237
-358
-114
-90
-148
-86
-71
-105
-81
-73
-97
-73
-49
-74
-85
-65
-59
-53
-22
19
64
109
159
231
302
334
341
334
286
195
94
10
-51
-94
-124
-141
-152
-160
-163
-159
-150
-140
-131
-125
-131
-147
-137
-102
-105
-148
-143
-66
2
4
-31
-66
-82
-77
-73
-73
-56
-48
-51
-24
-30
-71
32
222
335
578
851
552
-129
-353
-157
-104
-162
-133
-112
-121
-105
-108
-125
-109
-89
-96
-97
-72
-50
-45
-26
24
68
98
161
255
321
350
371
369
309
217
132
47
-39
-94
-119
-148
-166
-158
-165
-186
-170
-137
-137
-142
-124
-118
-133
-134
-113
-98
-105
-114
-76
-7
14
-17
-43
-62
-97
-119
-104
-70
-61
-84
-71
-26
-27
13
172
289
411
695
723
197
-250
-174
-22
-68
-78
-30
-51
-73
-43
-32
-54
-67
-55
-29
-13
-25
-31
-9
20
47
97
150
178
218
288
323
300
271
237
171
93
13
-68
-113
-103
-86
-110
-142
-128
-89
-84
-104
-108
-100
-99
-103
-114
-119
-97
-78
-89
-100
-74
-30
-5
0
-10
-39
-63
-60
-49
-40
-27
-28
-30
-12
-20
-35
46
155
226
380
459
139
-282
-311
-132
-104
-134
-114
-118
-133
-122
-126
-135
-124
-119
-120
-95
-67
-64
-66
-44
4
49
78
115
177
229
259
292
311
281
217
152
86
18
-30
-42
-51
-90
-117
-94
-70
-82
-91
-69
-49
-48
-52
-60
-73
-64
-26
-4
-9
1
34
51
40
15
-19
-48
-58
-61
-67
-65
-69
-74
-47
-36
-62
-9
114
196
325
456
244
-192
-316
-142
-69
-102
-80
-59
-77
-73
-49
-41
-42
-43
-34
-12
3
4
20
56
74
78
109
166
214
258
310
344
341
306
244
168
89
5
-57
-79
-95
-133
-155
-144
-147
-170
-169
-152
-166
-199
-199
-166
-143
-144
-138
-101
-56
-37
-46
-64
-84
-96
-94
-94
-99
-88
-83
-75
-40
-49
-76
43
216
313
552
770
410
-227
-363
-138
-71
-94
-60
-67
-98
-87
-76
-82
-82
-79
-77
-72
-58
-34
-20
-16
11
59
109
173
251
315
351
379
391
343
248
161
73
-34
-103
-110
-119
-141
-134
-125
-143
-144
-112
-90
-95
-100
-73
-9
79
195
306
372
516
793
953
885
731
397
-129
-382
-254
-237
-414
-432
-314
-290
-322
-314
-299
-308
-330
-359
-380
-389
-415
-457
-476
-467
-455
-430
-376
-301
-204
-90
11
99
192
260
271
251
227
192
158
134
106
65
26
10
31
59
44
11
17
40
36
19
14
7
-3
5
19
17
16
29
21
-8
-8
20
29
17
5
-1
0
-2
-21
-31
-16
-17
-31
0
62
87
68
36
1
-19
-16
0
5
-13
-10
27
8
-17
103
256
376
654
824
400
-192
-258
-57
-65
-134
-98
-82
-101
-98
-101
-110
-98
-98
-113
-97
-63
-63
-76
-50
3
30
40
84
168
233
251
256
266
261
230
179
112
40
-22
-72
-101
-116
-138
-165
-172
-153
-131
-124
-127
-130
-123
-109
-103
-99
-87
-64
-26
15
19
-14
-38
-44
-57
-75
-73
-59
-71
-91
-74
-70
-100
-46
84
194
363
494
239
-222
-336
-156
-85
-109
-77
-55
-67
-51
-33
-38
-38
-31
-28
-15
6
19
32
50
62
91
150
197
223
269
324
342
322
286
229
150
70
5
-43
-76
-90
-103
-129
-141
-123
-97
-80
-79
-103
-124
-101
-63
-72
-106
-109
-85
-69
-65
-58
-34
-2
11
-3
-21
-28
-32
-35
-33
-21
-15
-32
-39
-21
-36
-43
48
157
232
330
269
-76
-334
-245
-99
-107
-128
-99
-88
-97
-95
-84
-88
-107
-105
-78
-67
-74
-61
-38
-28
-7
36
82
124
169
208
233
249
250
219
165
103
39
-16
-51
-75
-92
-96
-95
-100
-105
-99
-83
-75
-87
-103
-96
-65
-30
-16
-19
9
63
80
52
25
9
0
-2
-3
-1
1
-13
-10
0
-33
-21
100
220
369
587
500
-6
-338
-219
-64
-67
-57
-25
-26
-17
5
8
11
