# session 31
-51
-39
-25
-6
-7
2
100
246
329
353
385
477
650
804
899
1149
1604
1803
1352
543
-60
-291
-346
-374
-387
-383
-378
-380
-386
-391
-395
-398
-404
-424
-450
-474
-501
-524
-538
-559
-577
-554
-484
-385
-257
-117
-1
101
190
223
205
196
184
136
103
107
94
72
88
110
95
77
86
104
124
154
187
229
310
400
430
496
749
1039
1199
1326
1221
514
-370
-717
-628
-477
-286
-127
-120
-154
-181
-251
-282
-241
-224
-243
-248
-254
-270
-279
-280
-267
-242
-207
-150
-71
8
86
160
216
248
241
204
185
179
145
104
91
79
56
43
37
25
16
19
26
20
-4
-7
19
26
5
-3
2
-1
-8
-9
2
12
-7
-43
-49
-26
-17
-33
-45
-45
-44
-44
-49
-63
-64
-39
-25
-38
-56
-71
-75
-53
-30
-27
-31
-42
-49
-13
43
50
12
-19
-28
-26
-19
-14
-16
-25
-21
5
1
-24
39
168
282
426
468
155
-262
-330
-171
-125
-157
-150
-143
-153
-154
-153
-156
-163
-172
-169
-156
-141
-117
-105
-111
-87
-56
-60
3
108
11
-171
-70
166
193
128
135
112
41
2
-19
-55
-93
-120
-122
-107
-101
-112
-116
-88
-57
-54
-43
-8
-7
-41
-45
-17
-6
-10
4
51
102
111
78
37
1
-21
-21
-32
-47
-21
-5
-37
-19
22
1
63
248
410
691
1018
758
-3
-329
-115
-5
-61
-30
2
-31
-40
-25
-17
-8
-5
-3
11
28
36
35
37
63
102
128
155
214
298
378
421
426
413
363
252
136
56
-15
-68
-92
-119
-136
-125
-135
-161
-149
-133
-160
-183
-181
-195
-216
-214
-202
-207
-217
-192
-113
-1
118
210
276
382
518
600
748
1145
1496
1267
528
-122
-399
-471
-487
-483
-494
-512
-505
-495
-504
-516
-530
-542
-542
-561
-608
-639
-650
-684
-732
-744
-717
-677
-615
-501
-337
-164
-34
39
92
131
133
118
103
57
12
22
40
22
24
52
45
26
54
91
94
91
110
130
141
150
158
164
169
166
144
120
123
128
97
64
97
167
198
176
139
108
98
108
105
96
113
108
72
87
100
33
64
238
363
594
997
920
204
-267
-152
-28
-72
-36
26
0
-33
-40
-34
-1
25
16
10
17
17
26
58
89
104
134
195
260
319
383
428
422
393
372
331
245
149
70
-5
-71
-117
-157
-186
-191
-201
-236
-260
-268
-279
-276
-255
-244
-237
-210
-198
-219
-214
-151
-88
-74
-93
-125
-152
-136
-103
-120
-164
-172
-164
-153
-140
-171
-176
-53
82
196
417
475
52
-419
-445
-282
-269
-303
-276
-253
-258
-247
-202
-158
-143
-131
-99
-65
-35
-12
-3
13
44
65
100
176
252
294
328
362
370
336
261
169
86
-8
-118
-187
-182
-157
-159
-167
-158
-142
-133
-127
-120
-115
-123
-131
-122
-102
-81
-60
-34
13
69
88
62
42
49
48
28
18
36
56
50
53
84
71
35
114
244
327
521
705
446
-64
-225
-85
-31
-46
-6
19
-1
-23
-36
-19
15
16
-5
4
32
46
59
83
104
119
152
207
253
277
306
349
366
340
292
222
125
39
-11
-48
-78
-93
-103
-111
-107
-101
-107
-119
-127
-136
-151
-161
-165
-159
-141
-130
-136
-121
-74
-51
-68
-85
-99
-112
-98
-79
-78
-69
-63
-75
-56
-47
-99
-62
95
215
408
664
468
-168
-474
-309
-217
-277
-255
-212
-226
-218
-204
-234
-255
-240
-231
-238
-228
-205
-183
-153
-112
-62
-4
46
94
171
258
301
299
288
256
173
69
-6
-61
-115
-133
-112
-114
-143
-146
-127
-115
-114
-114
-95
-74
-89
-110
-81
-40
-33
-21
28
81
110
110
82
43
32
43
39
35
67
86
72
103
129
72
119
327
452
618
967
908
218
-248
-107
51
-12
-35
-6
-17
-20
-4
-2
-3
4
17
14
-13
-22
6
32
46
75
113
144
195
273
324
336
348
338
259
138
26
-65
-134
-181
-219
-239
-237
-238
-243
-227
-203
-193
-179
-172
-205
-233
-199
-154
-173
-211
-190
-128
-88
-93
-125
-168
-205
-216
-213
-221
-228
-206
-189
-183
-133
-100
-141
-82
109
236
452
820
714
18
-383
-210
-78
-140
-121
-67
-80
-81
-63
-65
-57
-36
-27
-23
-10
5
10
11
17
24
34
76
154
222
264
295
310
297
256
182
80
-17
-81
-116
-143
-166
-172
-159
-139
-122
-110
-107
-101
-78
-57
-55
-53
-32
-15
-22
-18
30
80
80
49
22
-9
-43
-56
-57
-59
-59
-73
-76
-39
-35
-71
-1
143
239
441
685
482
-78
-313
-157
-74
-115
-106
-87
-87
-65
-62
-83
-68
-39
-35
-30
-19
-15
7
50
77
85
97
123
170
226
257
262
261
247
202
137
69
7
-38
-65
-88
-108
-107
-95
-101
-113
-101
-80
-80
-80
-69
-63
-61
-56
-49
-34
-17
-18
-6
41
71
53
26
14
7
3
-3
-13
-10
-9
-16
-1
5
-23
29
165
249
372
557
423
-43
-268
-132
-43
-78
-71
-57
-89
-122
-163
-211
-231
-245
-266
-274
-291
-312
-283
-227
-182
-116
-37
2
34
105
178
214
223
215
188
147
94
36
-10
-34
-41
-40
-39
-31
-18
-21
-30
-17
4
9
16
30
28
16
20
39
53
49
48
73
100
86
33
-22
-56
-56
-38
-35
-38
-22
-24
-55
-68
-90
-107
-12
133
263
502
645
299
-208
-294
-131
-110
-147
-108
-72
-62
-41
-27
-33
-36
-26
-15
-10
3
30
48
56
71
98
137
190
249
301
328
321
287
236
165
76
-1
-46
-73
-103
-126
-125
-127
-148
-157
-140
-126
-140
-155
-147
-141
-161
-173
-165
-164
-168
-167
-182
-177
-100
-15
-12
-50
-65
-80
-109
-115
-94
-79
-92
-115
-99
-79
-119
-91
85
226
360
581
459
-152
-530
-376
-233
-283
-273
-236
-258
-241
-204
-216
-217
-185
-162
-150
-143
-149
-139
-94
-37
6
45
107
194
277
340
387
419
422
377
286
179
92
33
-13
-47
-66
-66
-56
-51
-46
-23
1
9
33
71
75
51
42
47
58
80
83
64
86
167
219
204
180
175
174
175
169
161
176
194
189
188
172
166
274
416
513
790
1123
895
220
-132
-103
-136
-209
-162
-97
-99
-143
-191
-201
-182
-167
-143
-107
-89
-87
-65
-13
40
82
143
222
269
291
342
402
410
382
364
330
224
99
49
44
6
-31
-26
-27
-53
-81
-134
-209
-258
-285
-322
-372
-430
-505
-595
-688
-782
-880
-944
-933
-886
-877
-932
-1037
-1110
-1060
-960
-897
-788
-622
-538
-495
-380
-291
-255
-128
65
281
568
630
228
-147
-71
125
145
143
185
188
174
182
195
203
204
206
222
239
242
243
248
248
267
328
391
424
469
538
568
555
550
520
418
319
291
275
227
193
188
188
194
189
163
163
179
146
124
192
289
360
439
538
712
952
1010
810
637
565
425
313
280
90
-209
-310
-260
-272
-317
-323
-334
-358
-379
-412
-450
-480
-507
-534
-542
-526
-500
-465
-397
-295
-179
-67
29
104
168
203
178
133
119
88
7
-42
-21
-26
-91
-132
-131
-155
-204
-221
-194
-175
-206
-240
-214
-173
-184
-205
-190
-181
-188
-160
-107
-90
-104
-109
-102
-104
-105
-80
-44
-31
-22
9
26
4
-18
-6
18
7
-34
-41
15
61
39
-5
-18
-15
-22
-32
-21
13
24
18
40
20
-63
-35
111
270
610
953
619
-179
-453
-198
-108
-180
-128
-80
-131
-148
-115
-114
-130
-121
-108
-105
-88
-58
-32
3
34
55
108
182
225
259
306
340
367
383
356
299
240
175
113
48
-31
-76
-66
-65
-86
-83
-70
-71
-46
5
51
120
221
333
520
789
985
1110
1347
1529
1253
600
46
-221
-338
-409
-442
-450
-474
-517
-530
-515
-525
-567
-622
-685
-737
-762
-781
-809
-824
-822
-807
-743
-600
-423
-255
-103
21
111
160
147
96
67
59
48
44
55
68
79
90
95
88
74
66
58
42
38
55
51
23
14
24
33
51
65
54
49
57
55
62
80
72
53
55
56
47
47
47
55
84
82
31
22
101
181
192
155
111
82
68
50
35
44
48
36
36
14
-25
69
259
367
563
899
792
121
-309
-195
-72
-125
-125
-92
-128
-156
-148
-155
-175
-182
-184
-184
-171
-150
-139
-135
-114
-64
-8
42
100
168
220
244
255
265
263
232
172
105
51
-4
-64
-106
-117
-121
-133
-139
-136
-129
-118
-108
-116
-139
-151
-138
-125
-142
-165
-135
-53
32
111
186
252
350
491
603
737
1041
1337
1222
680
105
-231
-356
-384
-393
-400
-394
-396
-416
-414
-402
-421
-442
-432
-432
-463
-490
-494
-494
-499
-499
-477
-428
-350
-252
-156
-70
18
86
104
97
86
64
46
46
45
40
47
50
42
47
58
55
54
68
71
58
59
81
87
72
72
85
78
55
48
66
78
58
40
69
115
136
133
103
61
48
59
48
30
39
41
22
30
47
19
23
118
242
442
659
510
-1
-279
-157
-53
-98
-110
-86
-92
-94
-84
-84
-75
-55
-46
-38
-14
14
24
27
53
92
110
136
199
251
255
261
296
312
288
251
198
120
49
-2
-52
-84
-91
-108
-138
-147
-139
-147
-169
-186
-194
-193
-186
-170
-152
-147
-147
-128
-94
-84
-108
-140
-153
-147
-139
-142
-138
-114
-107
-118
-98
-74
-78
-31
99
252
413
418
74
-316
-332
-149
-108
-142
-121
-103
-111
-110
-108
-107
-94
-78
-65
-51
-40
-28
-5
28
59
95
144
195
245
307
363
397
418
403
336
268
217
151
71
11
-19
-31
-42
-56
-51
-41
-64
-96
-97
-91
-97
-94
-81
-74
-70
-52
-16
16
15
-23
-69
-93
-86
-77
-95
-99
-72
-81
-106
-81
-85
-114
-5
176
311
515
575
124
-396
-381
-135
-110
-156
-116
-97
-120
-119
-87
-65
-75
-79
-50
-40
-63
-57
-19
7
25
60
107
156
216
295
364
380
354
330
284
164
32
-29
-62
-129
-177
-172
-176
-208
-212
-180
-176
-194
-180
-159
-171
-167
-132
-133
-149
-95
-11
15
-1
-23
-53
-65
-36
-20
-36
-29
-10
-14
9
33
-30
-31
145
303
445
677
574
-39
-440
-278
-104
-153
-150
-85
-97
-119
-94
-70
-62
-60
-57
-41
-11
9
22
57
99
121
149
215
284
323
369
427
441
396
334
260
158
67
30
3
-62
-114
-119
-127
-141
-125
-106
-113
-107
-84
-100
-140
-140
-108
-104
-119
-98
-55
-40
-48
-64
-103
-140
-140
-129
-132
-127
-125
-129
-98
-82
-119
-72
82
199
374
604
443
-106
-376
-214
-95
-132
-125
-96
-113
-110
-84
-79
-70
-52
-61
-76
-50
-14
-12
-11
20
58
85
119
176
246
295
304
289
267
224
159
87
7
-67
-101
-109
-136
-161
-146
-123
-125
-129
-111
-83
-73
-90
-112
-107
-79
-57
-58
-57
-18
38
56
36
21
17
16
7
-17
-31
-18
-24
-55
-53
-49
-70
-17
105
210
371
476
203
-241
-329
-150
-103
-163
-160
-143
-144
-123
-97
-93
-91
-78
-62
-46
-26
-6
15
51
81
85
108
171
224
259
303
327
316
312
297
225
130
65
21
-26
-67
-81
-68
-58
-65
-69
-68
-76
-73
-50
-42
-64
-83
-78
-57
-36
-33
-37
-13
25
27
-2
-24
-40
-56
-56
-50
-44
-29
-22
-22
-4
-12
-32
48
179
257
367
413
129
-251
-288
-126
-92
-122
-104
-101
-123
-123
-120
-131
-128
-106
-91
-100
-109
-94
-82
-77
-37
24
48
62
128
210
254
274
286
271
222
160
103
36
-37
-81
-84
-79
-85
-97
-104
-104
-105
-112
-107
-84
-63
-58
-59
-51
-33
-18
-23
-41
-24
30
53
21
-25
-54
-69
-75
-80
-72
-50
-62
-80
-33
-13
-57
30
226
358
620
931
643
-104
-390
-175
-99
-178
-149
-100
-113
-123
-132
-144
-129
-119
-118
-86
-59
-90
-119
-87
-41
-18
12
71
137
188
230
275
302
274
208
123
16
-78
-117
-138
-180
-218
-227
-222
-220
-226
-234
-232
-226
-222
-217
-189
-119
-40
17
125
321
521
750
1097
1509
1835
1775
1034
20
-470
-431
-418
-509
-514
-499
-528
-535
-531
-555
-575
-583
-599
-617
-633
-666
-707
-711
-676
-653
-643
-582
-458
-332
-222
-106
-1
56
69
81
115
135
140
185
258
345
533
782
971
1250
1709
1911
1478
688
30
-321
-432
-436
-429
-431
-426
-406
-383
-382
-393
-395
-412
-461
-508
-536
-559
-568
-550
-499
-395
-245
-92
60
210
307
346
378
401
363
270
191
171
171
148
123
118
126
152
185
203
221
233
205
194
235
237
240
346
439
519
742
815
413
-27
-45
112
149
126
112
120
150
151
125
121
127
129
132
118
100
103
90
59
68
113
136
139
158
190
198
172
137
105
60
2
-51
-94
-110
-100
-102
-118
-109
-83
-76
-88
-114
-149
-172
-184
-214
-253
-260
-223
-170
-150
-186
-244
-271
-266
-270
-290
-295
-278
-266
-271
-272
-274
-278
-231
-132
-37
109
232
24
-445
-657
-515
-388
-389
-392
-381
-368
-347
-353
-373
-359
-325
-307
-297
-287
-283
-270
-235
-194
-157
-109
-61
-30
11
73
108
97
74
53
16
-39
-87
-116
-135
-149
-158
-159
-151
-138
-129
-122
-106
-84
-72
-58
-26
16
75
176
294
418
619
857
1008
1152
1366
1387
1029
557
262
144
117
139
157
165
193
223
220
207
221
240
230
203
187
190
