# session 232
226
-56
-1315
-2189
-1513
-2267
-6032
-7629
-4333
-1208
-1520
-3272
-4593
-4338
-2425
-1200
-1608
-1870
-1545
-1561
-1647
-1337
-1012
-805
-550
-396
-396
-355
-303
-293
-205
-169
-230
-122
-116
-314
17
203
-1048
-2103
-1265
-16
484
-502
-4447
-7802
-5179
-776
-1254
-3187
-2397
-1723
-1641
111
1635
1414
1061
1033
1361
1634
36
-1533
261
1993
148
-1102
735
1911
1366
1295
1450
1286
1394
1163
971
1777
648
-3874
-5843
-1837
2084
1242
-1337
-2586
-2526
-1018
1160
1980
1658
1709
1921
1913
2041
1835
1263
1274
1385
1085
1502
1669
-370
-1933
-199
1806
1527
1046
1376
1334
1123
1190
1119
1193
1352
1006
1096
1556
338
-1178
-732
-1503
-4406
-4114
-888
-506
-2091
-1294
778
1410
1097
999
987
792
665
694
676
804
1041
850
817
1364
631
-1446
-1561
427
1199
635
643
822
496
193
-144
-658
-699
-432
-1116
-2096
-674
1722
-324
-5126
-4809
-497
-210
-3451
-3986
-1391
862
1587
1621
1525
1403
1660
1909
1359
1339
2163
971
-1310
-364
2202
2230
1175
1303
1345
839
816
902
590
637
899
427
384
1308
-303
-4497
-4520
159
1424
-1942
-4058
-4197
-3890
-2535
-1946
-2647
-1229
1480
1819
1067
1323
1440
1158
1337
1517
1537
1923
2088
1366
531
380
550
528
412
432
547
575
498
466
473
446
513
583
445
570
623
-1762
-6179
-7032
-2688
295
-1316
-3085
-2959
-2420
-688
1583
1371
430
1624
1124
-3090
-4546
-738
1975
1234
839
1417
1295
1097
1356
1387
1256
1279
1199
1050
1102
1073
888
1039
1059
576
1014
1371
-1973
-6441
-5811
-2070
-535
-466
-854
-2263
-1901
814
1880
1018
986
1393
1207
1165
1337
1255
1164
1211
1187
1116
1173
1248
1119
1115
1353
1096
902
1705
898
-3195
-5882
-3748
-95
1753
1055
-1439
-1923
497
578
-2343
-3425
-3075
-3412
-1898
1375
2616
2134
2271
2660
2679
2365
1666
1324
982
-580
-1600
-281
1047
685
317
582
517
265
232
136
-22
-50
-76
-159
-198
-156
-22
105
160
371
580
418
453
738
148
-521
-33
-396
-2036
-1626
519
960
255
393
600
375
414
535
433
413
501
473
354
347
418
245
79
291
158
-203
463
477
-2513
-5831
-6459
-5698
-4051
-1032
862
580
619
1190
305
-1696
-2987
-2463
-309
1608
1745
965
647
666
555
628
790
425
331
1038
329
-2031
-2173
308
1446
781
689
1026
910
851
987
970
921
1012
1127
1088
972
994
926
657
674
709
304
443
883
-467
-2309
-1418
675
903
354
569
705
517
579
633
486
456
511
471
450
485
456
416
446
436
390
423
483
617
898
964
731
582
-253
-3247
-6864
-6319
-1157
1128
-2932
-5327
-1723
440
-2195
-3599
-1652
37
349
673
1238
1025
216
693
1262
-1509
-4627
-2652
1252
1744
781
1058
1268
947
966
1049
944
939
960
933
934
886
876
1012
1144
1316
1595
1648
1672
2244
2750
2634
2421
1428
-824
-2165
-2157
-2714
-2579
-382
1014
383
17
294
159
-5
86
58
-14
-49
-123
-89
34
124
271
440
500
537
598
649
649
451
321
549
463
155
751
669
-2386
-5210
-3131
1289
1180
-3962
-6685
-3378
-257
-1388
-2438
-1614
-1682
-1573
397
1604
895
344
489
477
428
755
1042
732
658
1336
663
-1661
-1890
544
1811
1251
1179
1735
1959
1764
1224
737
774
938
802
743
923
811
535
860
756
-1977
-6014
-6805
-3644
-1119
-1457
-1704
-75
1491
1714
1489
1470
1484
1451
1411
1339
1264
1209
1136
1042
963
907
848
780
764
813
791
710
749
774
791
1149
1331
1079
1738
2246
-928
-5511
-5105
-800
1137
423
426
748
209
236
635
-951
-3281
-2918
-982
-495
-582
133
462
53
-115
-104
-264
-215
214
507
436
665
1042
265
-923
-420
902
1018
611
745
821
667
723
716
555
672
726
410
612
921
-1120
-4991
-6512
-5309
-5474
-6536
-4298
-872
-968
-1959
-116
1806
1571
1180
1366
1251
1110
1185
1182
1204
1231
1168
1274
1480
1619
1929
2094
1514
769
662
841
823
739
705
709
679
580
637
692
473
573
802
264
403
1449
-582
-4977
-5201
-1839
-950
-1647
-330
1223
1100
688
675
466
111
22
161
136
143
545
361
-817
-1082
119
778
473
465
682
588
525
637
634
547
620
666
443
472
749
332
227
1406
424
-3995
-5616
-1613
1605
206
-1494
-729
-509
-1884
-1678
276
911
328
415
722
600
618
771
740
715
758
774
823
871
875
905
869
754
770
704
395
379
471
91
212
751
-456
-2348
-1910
-181
863
851
-1413
-3804
-1913
1008
-601
-3288
-2655
-1583
-1921
-1157
605
1035
519
365
329
308
603
888
1069
1406
1490
969
412
308
437
523
520
479
511
561
505
482
518
432
412
485
325
333
539
60
17
1041
-787
-5576
-5905
-1204
327
-2186
-3200
-2406
-1370
415
1610
1164
773
925
729
556
752
860
905
1066
1138
1104
1103
1061
963
947
962
889
842
821
737
810
870
512
632
1456
357
-3299
-5294
-3352
-498
789
1000
729
594
1069
623
-1436
-2610
-1916
-1324
-1029
149
1386
1275
323
462
1435
45
-2990
-2808
-173
554
399
1327
1626
1067
1064
1181
970
936
979
916
850
733
760
874
702
744
980
492
546
1502
-833
-5856
-5860
-1477
-895
-2955
-1935
-25
105
504
1148
743
438
850
1244
1353
1072
629
586
736
695
664
691
640
590
568
618
683
506
443
729
540
270
976
471
-2626
-3900
-941
1556
908
420
1362
86
-4711
-7612
-4461
-346
-855
-2525
-1498
-217
4
635
1027
380
-253
-439
-473
-380
-217
33
188
125
414
667
-230
-1029
-112
941
681
443
872
990
889
1175
1265
738
329
424
505
377
345
420
420
382
368
361
376
380
327
308
348
328
281
340
429
444
460
507
506
466
410
273
91
4
11
8
-4
26
59
53
55
96
122
97
77
117
198
264
271
227
185
197
261
332
412
543
700
857
1046
1328
1756
1959
1318
397
175
-360
-1992
-2538
-1056
-31
-285
-381
-392
-607
-648
-1060
-1116
-89
-1114
-4497
-4626
-1483
-745
-1571
-418
514
-253
-329
374
418
434
782
748
592
715
705
554
616
676
576
573
552
409
643
683
-1574
-5626
-6814
-3360
-191
-607
-1777
-1814
-1615
-611
1179
1823
1286
1084
1453
1377
-34
-1454
-458
1946
2630
1649
1067
1100
1037
976
1053
1027
879
798
764
695
714
828
856
872
875
701
813
1176
550
-516
28
1174
428
-1599
-2822
-2330
-457
1091
1218
847
669
764
1130
119
-3378
-6568
-6059
-2485
734
1619
1229
1160
1335
1224
1062
1114
1240
1261
1209
1265
1398
1467
1575
1638
1470
1596
1845
312
-2772
-3434
-641
1091
145
281
1190
-1421
-4942
-3499
306
1030
61
188
440
76
8
325
169
-229
385
769
-1817
-5044
-3768
599
1848
-890
-2623
-1640
-1383
-2191
-1004
949
1151
1097
912
-787
-1406
502
1630
1026
907
1255
1134
1010
1041
973
936
904
875
889
777
832
1010
590
619
1632
-215
-5508
-6669
-1716
514
-2477
-3100
102
1599
885
841
1165
940
819
919
876
898
1040
1000
932
1092
1087
948
1270
1314
771
1335
1839
-556
-2731
-1235
-130
-2095
-3558
-3116
-2078
-176
1437
777
-5
1234
1094
-2288
-3697
-569
2053
1726
1492
2080
2112
2198
2641
2389
1550
939
599
431
327
70
4
145
-55
62
604
-396
-2061
-1356
-577
-2677
-3487
-580
884
-940
-1566
14
827
545
591
874
937
950
967
851
679
697
776
595
556
897
456
-1959
-5601
-7286
-4620
-1012
-892
-1291
621
206
-3004
-2329
1530
2295
1404
1911
441
-2772
-2149
1092
1679
722
973
1133
676
808
955
623
668
637
153
556
818
-1478
-3724
-2036
1066
1101
-1039
-1697
-250
1006
939
644
856
1048
841
558
644
974
1067
904
778
795
854
682
509
854
796
-519
-1206
8
929
513
565
747
-1012
-3427
-3842
-2991
-2398
-1026
1058
1372
561
1331
1489
-1463
-3120
-486
1839
1254
751
1253
1189
890
1046
1020
811
1016
1164
972
1276
1445
447
345
1286
-1064
-4960
-3214
1256
24
-3697
-2482
883
1357
657
904
1030
738
749
908
854
811
1028
1084
778
918
1159
548
815
1788
-871
-4946
-3598
-966
-3876
-6039
-1960
1649
1012
124
-500
-2129
-2120
170
1477
1068
849
1025
934
890
1010
985
999
1189
1302
1379
1447
1141
649
605
821
782
671
705
757
769
583
412
846
564
-2709
-6841
-6507
-1723
1627
741
-1695
-3079
-2640
-486
1557
1879
1398
1209
1107
1080
1217
1200
1054
1046
1083
986
915
985
861
646
817
738
386
1121
1002
-2710
-5874
-4676
-3465
-3881
-1640
1474
1285
815
1388
-834
-3549
-1906
779
1119
1541
863
-3248
-5250
-1641
1633
1261
757
1280
1242
1006
1162
1180
1037
983
965
971
903
756
751
791
772
849
767
606
953
1077
642
1212
1453
-1529
-4383
-2856
-397
-975
-2925
-3851
-2741
-85
1408
934
652
1004
971
874
1041
1068
1004
1002
935
890
928
916
931
1043
1090
1105
1243
1430
1557
1479
1065
616
431
308
206
170
-325
-1095
-714
468
30
-1626
-1936
-2067
-3694
-3811
-1368
56
103
271
-1037
-2794
-1542
729
741
210
639
789
581
670
693
568
632
800
893
933
1072
1384
1704
1941
1862
1140
338
-52
-360
14
720
-1036
-4027
-3219
71
545
-1127
-2087
-2660
-2524
-1147
-489
-1111
-1240
-737
-497
-267
130
359
497
662
714
663
616
609
630
582
501
532
528
429
465
470
308
371
383
98
507
890
-870
-2749
-1400
834
678
67
589
-158
-2496
-2991
-894
657
457
215
491
542
443
506
565
577
608
610
589
568
561
592
575
481
412
332
231
221
212
258
597
904
833
424
-340
-427
688
-21
-3555
-4791
-1686
1031
739
-862
-1788
-809
758
623
289
1056
175
-2126
-1726
724
1398
774
873
1065
827
796
873
749
661
628
526
483
504
452
391
393
412
439
430
425
571
628
453
435
24
-1416
-1948
-259
1272
1460
1646
1134
-531
-892
131
-257
-1767
-1698
-142
359
-287
220
496
-2540
-5037
-2263
720
-1105
-2818
-850
784
296
102
480
445
454
721
816
813
888
896
814
822
820
613
601
813
469
335
1228
139
-4250
-6138
-2202
1472
103
-2334
-1672
26
33
-586
-431
-125
-113
33
306
446
513
604
692
706
671
756
913
980
1172
1500
1361
722
344
439
581
611
591
544
498
484
563
614
473
506
713
413
266
944
446
-1823
-2901
-2445
-3022
-3769
-2336
-60
770
539
438
500
478
487
513
469
447
404
306
380
468
204
4
303
594
529
441
438
407
419
429
358
352
470
545
508
580
849
961
1008
1379
1199
92
8
682
-1092
-3592
-2033
814
-692
-3768
-3561
-2211
-2088
-1186
502
729
156
266
405
200
246
391
340
406
514
372
361
367
-873
-3110
-3733
-1815
207
569
268
343
487
454
489
598
632
751
1053
1159
948
1056
1704
2136
1854
1222
669
292
96
23
-41
-82
-79
-127
-135
-60
-200
-392
-311
-528
-827
-190
-229
-2413
-3452
-1304
489
114
-112
363
382
251
371
360
274
297
278
231
255
270
251
254
263
254
255
259
251
244
221
171
155
165
130
126
165
131
160
253
114
68
266
-43
-235
527
-59
-2623
-3011
-508
659
-25
-23
466
514
464
308
-9
-155
24
342
-38
-1180
-1369
-231
381
75
8
181
128
96
164
146
128
166
193
240
302
316
321
354
354
315
293
269
210
167
159
127
77
78
117
116
82
88
146
194
204
209
215
179
118
106
140
143
113
114
125
67
18
138
343
464
617
649
69
-458
114
-20
-3315
-6978
-6039
-1762
654
423
167
416
388
313
400
388
352
414
456
469
519
564
579
570
526
468
421
354
255
176
144
134
129
129
108
60
42
54
52
72
140
174
149
121
94
56
40
44
37
32
49
21
-51
5
175
249
268
291
96
-222
-262
-114
-78
-84
-47
-39
-20
26
22
5
37
62
57
64
82
93
108
131
150
166
189
207
196
164
131
84
15
-51
-95
-105
-88
-90
-116
-113
-88
-89
-107
-101
-65
-5
36
27
-8
-43
-66
-49
-18
-33
-60
-72
-113
-114
-22
71
255
569
559
55
-336
-296
-184
-173
-158
-167
-197
-163
-116
-122
-133
-127
-132
-133
-121
-118
-115
-87
-49
-16
23
51
51
47
54
47
12
-28
-53
-60
-57
-65
-78
-74
-79
-89
-71
-60
-33
104
261
327
461
699
857
1061
1418
1457
911
259
-113
-304
-388
-379
-396
-457
-455
-412
-431
-504
-548
-561
-596
-635
-642
-646
-657
-620
-518
-369
-194
-38
76
158
191
161
104
56
25
7
-6
-18
-23
-23
-24
-21
-16
-20
-24
-16
-11
-29
-47
-33
-13
-14
-3
54
114
119
86
72
77
67
61
77
77
69
86
87
96
195
311
430
647
690
282
-146
-150
-12
-47
-127
-126
-88
-60
-92
-128
-50
8
-160
-339
-216
35
127
137
191
240
271
321
366
367
318
259
225
193
129
51
-5
-19
-6
-1
-11
-12
-13
-17
25
109
150
119
87
81
56
22
36
57
36
36
55
17
21
148
240
232
187
-1
-276
-309
-141
-87
-120
-108
-122
-121
-67
-77
-99
-69
-99
-70
20
-80
-16
244
-57
-80
820
-102
-3153
-3465
-426
1026
207
33
362
126
-1
129
57
-10
44
9
-55
-59
-50
7
104
130
86
55
39
11
9
34
34
40
83
69
37
122
229
323
571
702
331
-137
-181
-38
-38
-76
-68
-77
-84
-69
-74
-84
-65
-54
-75
-73
-32
-16
-18
28
94
109
110
137
128
68
37
37
9
-36
-61
-70
-68
-68
-99
-136
-130
-104
-106
-101
-42
25
34
6
-6
-12
-23
-15
-4
-12
11
50
21
3
86
161
279
574
693
311
-118
-150
-41
-53
-83
-71
-67
-57
-37
-36
-43
-29
-3
13
