# session 149
-12
0
19
38
57
86
118
137
154
199
265
313
342
392
438
431
394
365
319
250
190
148
115
91
68
43
29
31
31
27
29
22
-3
-6
15
5
-18
8
46
49
50
45
-1
-37
-16
10
16
20
14
14
24
0
15
128
230
353
546
471
12
-294
-196
-75
-103
-124
-115
-115
-96
-86
-93
-68
-46
-72
-79
-48
-39
-25
30
72
97
151
209
246
275
276
236
178
111
29
-45
-89
-111
-129
-141
-140
-145
-163
-160
-142
-147
-168
-168
-142
-113
-107
-109
-80
-32
-23
-47
-64
-72
-77
-78
-76
-64
-51
-62
-62
-43
-70
-88
-8
86
161
249
141
-213
-406
-289
-182
-193
-182
-168
-191
-193
-176
-175
-169
-148
-126
-107
-96
-84
-53
2
60
105
139
184
238
274
281
261
218
163
107
56
18
-6
-24
-35
-33
-29
-36
-50
-57
-57
-60
-61
-39
-11
-13
-12
28
66
60
46
38
18
5
7
-1
-11
-11
-19
-14
-6
-37
-31
62
151
285
469
360
-74
-306
-186
-93
-124
-115
-90
-104
-108
-98
-92
-86
-81
-79
-60
-28
-6
11
55
120
171
210
263
323
360
368
346
297
238
174
99
33
-2
-15
-29
-38
-31
-19
-12
-6
15
79
168
256
449
764
1006
1225
1635
1897
1470
588
-94
-387
-473
-493
-515
-547
-563
-582
-615
-633
-646
-692
-753
-783
-789
-811
-846
-853
-802
-691
-529
-352
-202
-77
39
112
116
84
56
34
12
-12
-32
-31
-14
-15
-32
-33
-23
-24
-29
-22
-10
-5
-6
-2
4
3
-1
0
4
12
22
21
12
12
4
-10
2
17
-4
-30
-5
73
137
116
49
40
66
34
-8
23
46
14
15
26
-1
69
224
314
487
733
543
-59
-338
-176
-84
-133
-129
-122
-142
-117
-97
-120
-127
-105
-87
-71
-45
-3
48
86
117
171
244
303
343
371
366
323
277
235
170
92
40
8
-31
-69
-78
-74
-74
-63
-50
-60
-67
-36
-10
-34
-55
-12
53
68
38
1
-26
-34
-36
-49
-56
-48
-50
-44
-22
-48
-75
14
135
221
384
451
140
-237
-259
-125
-109
-107
-75
-102
-137
-122
-109
-122
-136
-134
-116
-104
-104
-77
-22
15
48
111
169
201
233
255
242
211
160
77
4
-38
-72
-90
-82
-77
-86
-81
-58
-38
-17
30
85
172
370
590
702
837
1010
867
361
-72
-243
-325
-381
-380
-369
-380
-394
-411
-427
-434
-451
-491
-520
-534
-570
-604
-582
-529
-469
-358
-202
-73
26
114
157
143
111
71
23
-13
-40
-63
-67
-56
-49
-50
-43
-26
-22
-32
-23
1
3
-7
-3
-6
-18
-12
3
3
-4
-3
5
13
22
32
31
29
59
98
94
83
117
153
141
112
99
90
80
77
86
87
66
59
76
55
35
113
221
339
543
572
175
-226
-210
-55
-57
-87
-62
-60
-66
-56
-60
-59
-37
-32
-37
-11
26
42
60
98
150
209
257
295
341
372
356
331
316
261
173
115
75
22
-6
-10
-36
-59
-36
12
66
122
216
464
819
1053
1248
1610
1765
1224
324
-276
-489
-568
-598
-597
-616
-649
-663
-678
-705
-721
-728
-752
-799
-844
-857
-836
-790
-696
-546
-381
-228
-82
27
72
71
49
11
-28
-52
-57
-57
-66
-78
-74
-60
-54
-53
-48
-44
-51
-58
-54
-40
-31
-39
-55
-51
-33
-30
-42
-45
-41
-36
-23
-15
-29
-50
-51
-40
-46
-47
-3
70
110
97
69
55
49
39
38
64
73
45
43
51
15
45
177
298
479
659
426
-109
-289
-92
-3
-46
-35
-30
-56
-41
-15
-19
-30
-22
12
42
41
43
87
140
181
230
289
333
357
371
382
386
369
311
224
163
145
111
46
8
10
6
-7
-2
6
-8
-27
-9
31
34
4
10
54
71
46
15
-7
-32
-51
-53
-47
-55
-70
-60
-60
-104
-98
1
112
243
323
84
-331
-438
-266
-196
-238
-248
-245
-235
-211
-228
-261
-252
-229
-223
-209
-184
-161
-130
-77
-8
62
129
194
248
280
296
279
197
91
37
2
-77
-140
-129
-106
-139
-181
-154
-105
-119
-99
35
150
255
534
840
968
1163
1442
1247
504
-137
-372
-427
-455
-456
-437
-426
-458
-496
-486
-497
-562
-608
-621
-635
-651
-683
-702
-647
-539
-427
-284
-104
59
170
232
250
224
165
109
84
67
45
31
29
37
61
80
78
74
90
102
90
70
62
54
44
45
50
41
30
33
25
-5
-20
-3
17
19
32
76
124
143
129
106
99
100
90
83
82
65
55
76
67
45
121
232
357
650
847
478
-107
-233
-57
-24
-70
-51
-45
-59
-45
-27
-18
-16
-15
4
38
54
47
46
68
112
159
198
235
264
272
273
273
235
157
107
90
38
-33
-52
-46
-83
-127
-124
-121
-149
-151
-102
-64
-73
-83
-52
-10
-2
-31
-66
-89
-99
-104
-102
-97
-107
-118
-106
-121
-157
-105
4
70
174
236
-10
-379
-442
-289
-234
-256
-248
-239
-244
-242
-240
-237
-228
-211
-189
-174
-156
-118
-73
-37
10
79
147
202
244
267
257
213
151
80
0
-71
-114
-134
-141
-134
-116
-99
-97
-120
-141
-117
-85
-99
-115
-68
-3
16
-6
-40
-61
-56
-50
-49
-27
-14
-16
28
56
9
53
207
306
510
809
613
-49
-337
-144
-71
-162
-140
-82
-90
-96
-97
-98
-68
-46
-52
-34
10
39
62
108
172
236
298
367
430
458
448
408
335
241
158
91
39
-4
-37
-43
-28
-28
-35
-18
20
84
165
237
407
731
1004
1192
1497
1701
1345
598
4
-285
-408
-458
-484
-491
-473
-492
-561
-601
-603
-639
-695
-721
-754
-820
-860
-853
-831
-763
-629
-486
-351
-186
-30
48
65
69
55
22
-2
-17
-43
-61
-55
-46
-49
-61
-66
-55
-42
-38
-39
-41
-38
-26
-13
-6
-6
-18
-23
-10
-13
-29
-14
-1
-31
-35
23
83
118
119
70
22
27
41
23
-8
-22
5
25
-16
4
163
309
452
657
581
79
-287
-218
-104
-139
-142
-103
-113
-130
-117
-102
-86
-69
-62
-54
-34
-10
11
36
76
138
204
252
284
313
324
303
264
225
175
115
58
13
-19
-39
-46
-45
-46
-45
-31
1
53
136
219
318
550
891
1155
1371
1656
1724
1235
446
-130
-368
-433
-453
-483
-510
-504
-502
-532
-553
-557
-577
-616
-667
-717
-737
-727
-710
-660
-556
-420
-275
-138
-30
36
70
86
77
26
-21
-6
65
196
347
408
470
747
1068
1122
962
674
219
-185
-315
-319
-345
-342
-316
-314
-320
-336
-377
-419
-452
-477
-501
-550
-599
-594
-554
-516
-451
-344
-228
-120
-23
49
99
123
112
96
99
101
87
66
57
73
84
58
35
40
40
41
54
56
58
73
75
80
105
113
110
121
108
83
94
99
66
58
77
76
69
75
81
93
112
117
116
118
113
106
104
96
79
69
74
78
59
30
26
39
19
-10
18
75
87
64
51
47
43
37
38
43
42
41
33
22
66
163
282
481
599
307
-170
-288
-128
-75
-100
-76
-80
-107
-90
-76
-83
-64
-44
-49
-42
-19
-4
17
45
71
119
183
219
232
252
256
230
204
184
141
86
46
4
-40
-64
-81
-107
-124
-130
-148
-173
-179
-163
-138
-131
-147
-147
-110
-83
-104
-145
-169
-174
-179
-175
-154
-146
-152
-132
-120
-146
-111
5
108
232
298
37
-382
-475
-302
-238
-260
-222
-208
-244
-240
-210
-212
-217
-189
-152
-133
-119
-93
-60
-25
25
110
217
294
327
357
383
359
276
170
77
18
-18
-56
-77
-69
-73
-93
-86
-65
-63
-49
-19
-25
-57
-40
28
73
64
38
26
25
31
46
54
29
12
46
44
-11
48
192
281
478
692
399
-211
-370
-145
-88
-153
-122
-85
-92
-83
-70
-68
-57
-38
-21
-9
1
28
74
124
171
220
284
359
404
407
403
388
327
239
154
72
5
-42
-73
-73
-55
-74
-112
-99
-48
-7
46
125
240
471
800
1045
1198
1421
1559
1257
565
-89
-437
-545
-592
-641
-653
-633
-640
-665
-670
-679
-711
-737
-762
-811
-859
-867
-854
-834
-776
-658
-502
-335
-167
-23
68
108
107
79
57
58
41
4
-1
21
14
-8
-1
15
16
17
25
22
15
17
13
0
6
32
26
-24
-46
-5
21
-25
-64
-12
77
123
125
81
22
32
82
79
41
24
44
86
80
55
132
246
377
672
823
405
-132
-179
-2
1
-41
-16
-19
-49
-57
-58
-62
-63
-53
-37
-36
-26
17
62
101
162
236
297
353
401
421
415
397
358
295
223
158
111
77
39
5
-6
-11
-27
-43
-33
-9
-8
-24
-10
30
46
20
-18
-35
-35
-58
-101
-109
-86
-80
-75
-74
-121
-126
17
236
479
706
614
110
-305
-326
-260
-296
-290
-246
-270
-305
-299
-303
-317
-303
-280
-277
-268
-244
-228
-215
-185
-152
-122
-78
-25
15
45
73
86
76
51
22
-4
-29
-53
-70
-82
-100
-122
-136
-138
-126
-115
-126
-130
-85
-29
-30
-71
-100
-114
-128
-128
-107
-95
-108
-100
-82
-111
-104
18
152
285
414
272
-148
-354
-204
-75
-90
-86
-53
-62
-72
-54
-44
-49
-32
5
15
11
46
96
126
178
272
358
431
507
554
558
530
464
366
261
173
113
62
3
-35
-48
-65
-69
-41
-12
33
124
216
357
671
1018
1193
1382
1696
1669
993
154
-282
-370
-419
-480
-483
-468
-500
-539
-543
-550
-587
-619
-641
-681
-716
-722
-732
-753
-724
-620
-474
-311
-148
-12
70
104
114
105
73
41
23
8
-8
-16
-23
-30
-25
-21
-34
-56
-74
-80
-73
-71
-80
-79
-75
-89
-97
-90
-110
-141
-131
-114
-139
-152
-95
-14
26
6
-36
-43
-23
-27
-42
-40
-32
-15
-23
-70
-27
118
224
423
728
609
0
-348
-212
-109
-163
-146
-108
-127
-117
-80
-85
-91
-60
-39
-40
-16
31
57
82
146
226
283
330
390
438
433
406
403
379
288
189
136
99
62
40
19
-13
-27
10
66
113
180
250
319
503
772
929
1028
1158
1043
549
37
-242
-379
-441
-442
-445
-453
-438
-429
-438
-436
-437
-463
-495
-515
-532
-542
-543
-532
-477
-364
-227
-107
-5
93
165
185
161
109
67
78
79
14
24
184
253
30
-333
-598
-706
-702
-649
-582
-473
-299
-123
-17
20
27
26
29
47
98
187
282
344
399
493
598
648
637
597
540
465
381
298
225
154
81
19
-23
-53
-74
-82
-92
-105
-111
-111
-117
-123
-129
-136
-139
-139
-145
-152
-148
-139
-137
-134
-128
-124
-125
-127
-126
-122
-119
-125
-132
-124
-115
-121
-125
-114
-108
-116
-114
-101
-93
-85
-72
-66
-60
-41
-36
-57
-74
-61
-35
-22
-15
11
51
73
74
71
58
44
47
52
46
62
84
57
74
220
362
495
736
755
254
-235
-223
-61
-94
-158
-143
-125
-123
-122
-108
-84
-73
-65
-37
-22
-17
18
58
93
154
212
235
272
320
318
291
286
264
206
157
103
27
-16
-21
-40
-68
-94
-131
-132
-76
-3
73
150
278
575
941
1138
1271
1461
1334
680
-19
-348
-442
-498
-530
-555
-593
-619
-636
-659
-685
-715
-752
-784
-815
-859
-904
-917
-888
-817
-697
-534
-348
-168
-24
74
124
122
129
215
295
362
626
1016
1134
891
483
-6
-391
-437
-310
-278
-285
-253
-244
-253
-242
-241
-238
-214
-215
-237
-211
-137
-72
4
140
317
463
515
477
423
381
318
235
169
131
114
101
77
54
56
64
40
6
15
41
15
-32
-25
-6
-28
-37
-7
12
10
12
6
1
16
17
-10
-26
-27
-37
-41
-40
-55
-70
-62
-54
-50
-26
-6
-20
-30
-11
1
-3
11
27
12
-2
3
-4
-24
-19
-2
5
22
64
90
70
38
32
35
18
6
14
24
36
33
16
65
180
320
522
591
246
-196
-252
-100
-77
-95
-63
-62
-75
-59
-54
-65
-64
-56
-47
-33
-24
-27
-17
14
47
83
126
155
170
192
204
188
159
130
99
64
24
-10
-25
-35
-60
-79
-77
-80
-89
-69
-40
-53
-70
-32
7
-19
-69
-98
-125
-156
-159
-144
-153
-163
-129
-113
-160
-128
31
172
283
340
102
-313
-413
-220
-136
-173
-149
-118
-128
-116
-97
-108
-107
-84
-84
-97
-75
-29
10
57
120
187
264
345
395
397
367
310
225
119
32
-8
-33
-72
-96
-96
-95
-103
-117
-132
-137
-146
-156
-122
-70
-68
-102
-132
-158
-169
-153
-136
-135
-147
-137
-96
-103
-113
18
180
255
377
379
-9
-373
-295
-111
-116
-140
-122
-127
-118
-99
-101
-97
-94
-96
-70
-42
-40
-21
27
70
114
182
255
314
356
365
326
264
196
107
9
-72
-130
-153
-147
-162
-199
-208
-191
-173
-147
-119
-77
31
186
305
418
601
780
890
1058
1306
1324
908
296
-160
-361
-413
-429
-450
-466
-477
-481
-475
-485
-527
-566
-584
-603
-638
-686
-732
-745
-714
-654
-550
-386
-198
-28
117
231
296
306
285
262
252
255
269
280
277
276
281
286
300
320
309
280
274
269
232
201
213
225
209
195
202
228
258
254
220
201
191
167
157
149
106
77
82
50
22
84
154
244
437
443
39
-341
-321
-180
-163
-167
-159
-179
-182
-166
-177
-195
-196
-193
-189
-183
-180
-169
-136
-95
-61
-26
12
43
60
53
34
13
-29
-96
-155
-192
