# session 26
112
52
53
109
145
131
121
132
131
128
155
187
184
181
225
279
287
256
208
152
114
95
81
87
79
50
66
77
41
123
304
413
592
778
461
-183
-370
-128
-37
-103
-89
-59
-71
-63
-53
-58
-42
-31
-52
-44
11
27
-4
4
52
93
142
212
273
318
357
374
342
267
168
67
-29
-107
-151
-170
-195
-230
-250
-255
-250
-228
-207
-216
-239
-229
-194
-187
-212
-213
-168
-118
-99
-110
-139
-169
-180
-181
-177
-156
-149
-164
-137
-110
-148
-92
98
236
454
785
638
-65
-465
-310
-179
-226
-222
-204
-227
-217
-190
-193
-202
-186
-146
-116
-129
-136
-105
-74
-48
9
72
124
201
293
340
350
346
303
221
131
42
-29
-67
-105
-145
-151
-137
-144
-152
-137
-116
-108
-99
-72
-30
-3
-8
-23
-5
39
61
39
-7
-47
-65
-76
-85
-64
-47
-68
-53
-22
-51
-5
163
288
480
781
663
47
-313
-183
-56
-83
-94
-95
-101
-77
-67
-78
-61
-37
-39
-28
11
32
24
36
74
100
116
159
227
297
343
345
327
310
250
146
66
23
-23
-61
-71
-75
-87
-94
-96
-87
-65
-58
-90
-126
-135
-127
-115
-102
-104
-109
-92
-73
-76
-97
-125
-144
-138
-126
-115
-104
-99
-86
-76
-87
-43
77
160
267
428
320
-107
-343
-220
-96
-102
-104
-98
-104
-83
-54
-55
-67
-58
-31
-21
-28
-12
22
42
53
63
77
136
231
290
295
294
302
295
254
191
127
61
6
-17
-27
-45
-45
-25
-25
-40
-32
-6
4
0
6
25
42
58
69
77
107
146
142
97
59
41
28
18
15
15
-2
-13
8
-4
-36
39
170
263
431
540
233
-229
-293
-96
-46
-85
-64
-61
-100
-106
-90
-110
-175
-269
-388
-507
-573
-571
-525
-459
-391
-323
-239
-152
-72
19
102
139
136
106
42
-27
-74
-124
-188
-212
-186
-163
-139
-66
10
9
-29
-31
-22
-36
-43
-26
-19
-38
-43
2
72
107
90
57
38
30
26
27
35
31
32
75
82
24
94
289
409
619
960
802
69
-345
-191
-65
-113
-106
-87
-106
-93
-74
-73
-49
-33
-63
-91
-73
-36
-29
-48
-38
24
97
158
234
313
351
359
361
327
240
143
66
6
-32
-53
-77
-91
-82
-80
-97
-99
-72
-47
-40
-41
-41
-28
-5
3
-18
-24
23
82
96
70
36
15
6
-5
-9
10
16
15
52
47
-7
86
272
388
667
1002
702
-61
-341
-136
-87
-177
-155
-140
-181
-168
-144
-183
-234
-239
-244
-307
-368
-337
-263
-218
-164
-79
-24
6
69
142
175
179
178
158
104
19
-72
-131
-158
-182
-205
-215
-219
-217
-206
-194
-182
-169
-174
-189
-189
-175
-159
-146
-150
-162
-135
-73
-32
-29
-44
-70
-84
-74
-62
-53
-41
-39
-17
13
-8
13
145
250
400
710
716
145
-326
-250
-86
-116
-132
-96
-96
-92
-79
-68
-27
-6
-39
-42
9
36
29
43
78
110
144
186
237
297
353
386
388
356
302
241
166
90
47
21
-20
-44
-20
-3
-25
-38
-17
-1
-4
0
6
-7
-22
-37
-64
-80
-70
-62
-74
-68
-33
-8
-21
-53
-78
-83
-78
-69
-52
-46
-51
-23
3
-26
-1
120
214
360
582
470
-41
-337
-213
-105
-156
-158
-103
-104
-138
-130
-81
-59
-82
-93
-79
-77
-74
-56
-44
-36
-5
45
97
150
202
244
270
272
249
210
154
88
34
0
-27
-49
-63
-77
-89
-94
-104
-114
-109
-97
-100
-107
-100
-94
-106
-110
-86
-58
-50
-44
-9
53
97
80
37
26
16
-13
4
18
-34
0
49
-82
-24
221
-223
-907
-323
790
588
-324
-470
-198
-202
-228
-141
-139
-177
-173
-185
-194
-160
-123
-107
-98
-91
-73
-44
-23
-2
44
108
181
254
318
371
404
404
376
327
263
199
130
46
-21
-40
-39
-50
-78
-116
-125
-94
-78
-94
-91
-71
-71
-66
-46
-59
-82
-66
-52
-58
-19
58
84
61
46
39
15
-15
-29
-23
-20
-11
29
26
-25
59
254
377
581
876
690
-4
-389
-248
-128
-171
-163
-128
-133
-125
-120
-141
-130
-96
-99
-105
-67
-52
-69
-33
43
74
87
146
238
311
344
349
346
315
236
136
48
-30
-97
-137
-156
-179
-200
-202
-192
-182
-176
-164
-139
-120
-120
-114
-95
-105
-148
-152
-107
-99
-146
-156
-85
2
38
5
-53
-69
-60
-87
-104
-77
-87
-116
-93
-99
-93
62
217
351
676
790
228
-372
-360
-178
-219
-235
-167
-165
-168
-140
-147
-151
-120
-102
-93
-69
-51
-37
-2
45
82
113
162
226
286
339
377
387
366
314
240
161
76
-5
-53
-72
-86
-91
-83
-78
-73
-56
-38
-29
-22
-15
-6
1
-15
-45
-48
-32
-32
-37
-20
13
49
74
63
26
8
12
-9
-39
-32
-26
-46
-26
-16
-63
-13
113
178
436
868
739
8
-386
-237
-154
-222
-184
-136
-169
-169
-143
-167
-193
-168
-141
-154
-166
-138
-105
-95
-79
-34
15
64
123
177
216
252
271
252
196
131
73
12
-40
-57
-58
-79
-100
-94
-86
-90
-87
-73
-71
-89
-100
-82
-56
-67
-114
-145
-133
-101
-87
-102
-116
-94
-56
-46
-59
-82
-110
-129
-127
-109
-100
-109
-97
-56
-65
-88
4
131
225
440
574
219
-279
-318
-105
-68
-104
-68
-53
-64
-52
-42
-46
-48
-47
-40
-34
-36
-28
-4
18
41
78
128
185
244
304
352
370
362
348
318
259
194
142
94
61
49
32
14
28
44
26
20
60
80
48
29
46
51
32
8
-18
-34
-18
7
4
7
47
74
56
27
0
-28
-41
-43
-40
-29
-28
-20
8
0
-16
59
162
273
472
489
77
-329
-311
-154
-149
-164
-124
-110
-115
-105
-96
-88
-77
-66
-47
-27
-14
2
19
34
62
107
148
179
222
283
340
361
342
294
225
137
29
-52
-70
-118
-215
-194
-166
-498
-1098
-1475
-1359
-842
-323
-177
-269
-275
-227
-250
-291
-306
-302
-278
-261
-260
-227
-159
-117
-122
-136
-138
-142
-148
-135
-97
-72
-82
-67
-26
-59
-76
92
280
429
777
979
469
-210
-262
-13
6
-45
-18
-14
-12
20
36
51
79
92
98
112
131
159
184
205
247
296
326
366
449
531
581
616
610
541
465
396
304
222
169
98
34
21
16
1
10
20
1
-13
-7
-13
-22
-5
7
-21
-39
18
152
348
550
668
712
739
658
476
452
533
316
-111
-280
-214
-216
-254
-227
-215
-236
-245
-257
-276
-281
-295
-325
-332
-319
-318
-315
-288
-258
-240
-214
-174
-140
-128
-126
-116
-101
-106
-141
-181
-205
-225
-241
-233
-212
-203
-207
-217
-227
-219
-195
-181
-194
-219
-235
-232
-212
-200
-208
-206
-189
-183
-179
-158
-142
-151
-157
-136
-117
-121
-115
-86
-68
-71
-63
-44
-40
-44
-23
24
63
73
52
18
0
-2
-2
10
26
22
34
56
36
65
209
342
522
822
795
224
-228
-157
-6
-43
-55
6
12
-14
-8
10
13
8
15
38
55
39
21
53
107
120
120
163
226
267
298
328
346
348
327
286
244
198
138
77
28
-1
-12
-9
0
0
-17
-22
7
34
47
93
164
246
414
629
762
885
1041
929
443
-6
-154
-182
-237
-282
-313
-345
-359
-370
-390
-401
-411
-448
-495
-526
-559
-601
-629
-656
-680
-649
-555
-441
-309
-159
-43
31
94
125
99
46
-5
-44
-66
-75
-79
-63
-18
1
-10
71
234
328
462
819
1139
1074
690
227
-150
-312
-294
-265
-276
-269
-247
-238
-241
-252
-264
-266
-276
-311
-341
-341
-342
-368
-373
-329
-262
-190
-110
-26
65
150
194
199
210
237
248
233
205
170
140
126
119
110
105
101
97
106
111
102
118
122
82
112
235
333
455
566
338
-133
-295
-125
-36
-67
-58
-46
-66
-69
-55
-51
-51
-47
-33
-20
-18
-3
38
77
108
148
201
260
307
327
321
298
257
192
111
40
1
-35
-96
-150
-167
-171
-172
-153
-125
-105
-84
-68
-75
-87
-80
-66
-68
-88
-98
-66
-9
22
19
-5
-56
-111
-141
-174
-225
-259
-278
-283
-276
-315
-322
-132
102
247
498
617
127
-489
-502
-235
-206
-249
-198
-172
-184
-182
-165
-130
-104
-111
-104
-72
-60
-42
27
87
99
140
231
302
347
388
397
372
345
298
222
143
58
-24
-63
-71
-90
-106
-106
-105
-93
-60
-45
-50
-26
2
-21
-50
-30
-10
-27
-44
-17
54
120
124
71
23
12
20
12
-9
-19
-38
-55
-26
-23
-61
25
218
377
601
728
312
-320
-433
-191
-139
-209
-199
-184
-183
-153
-141
-150
-132
-107
-99
-90
-77
-68
-49
-13
20
52
110
184
246
292
326
331
299
244
171
86
6
-54
-94
-114
-124
-135
-145
-141
-117
-83
-54
-20
30
109
302
616
844
980
1374
1928
1889
1052
152
-278
-420
-509
-556
-580
-597
-588
-582
-608
-637
-650
-664
-695
-732
-766
-806
-832
-825
-798
-728
-592
-432
-268
-84
74
156
185
183
162
145
135
114
91
86
99
104
86
69
76
76
41
10
20
42
42
45
60
57
46
59
79
75
61
62
77
84
74
68
75
75
70
74
69
47
29
27
34
50
63
84
133
163
126
74
69
80
55
23
38
60
35
18
25
11
52
178
296
497
734
546
-40
-328
-183
-92
-137
-111
-62
-75
-86
-76
-70
-64
-64
-70
-75
-72
-59
-39
-23
-5
32
76
112
154
206
239
244
246
241
215
186
155
103
48
16
-8
-35
-52
-60
-63
-54
-50
-60
-61
-54
-74
-112
-113
-81
-76
-104
-111
-77
-45
-45
-69
-108
-147
-163
-170
-175
-145
-104
-95
-51
37
74
149
363
549
658
788
665
126
-311
-317
-238
-281
-289
-247
-243
-247
-239
-247
-258
-262
-274
-297
-319
-337
-358
-374
-379
-374
-354
-322
-279
-212
-130
-65
-13
49
98
115
120
112
88
78
83
74
66
82
100
106
120
133
121
100
95
95
101
121
128
121
148
189
173
108
52
22
14
14
13
16
1
-24
2
23
-21
28
193
301
475
725
527
-103
-373
-161
-43
-98
-85
-57
-70
-61
-53
-58
-50
-48
-45
-12
17
23
40
57
72
131
211
249
282
354
411
425
436
425
341
216
110
30
-34
-76
-112
-158
-191
-194
-190
-193
-181
-165
-196
-245
-230
-178
-189
-243
-241
-183
-132
-114
-130
-165
-177
-167
-173
-187
-168
-145
-156
-135
-84
-118
-140
31
249
411
626
600
56
-425
-347
-130
-140
-174
-130
-116
-130
-138
-141
-131
-124
-130
-126
-111
-101
-85
-53
-16
26
87
162
240
318
378
396
384
367
325
237
140
70
18
-31
-78
-118
-135
-125
-117
-118
-112
-104
-95
-70
-45
-47
-67
-81
-67
-17
26
27
19
15
-17
-52
-57
-63
-69
-51
-40
-37
-28
-62
-64
53
173
354
728
824
264
-295
-277
-100
-134
-180
-147
-140
-146
-134
-126
-116
-101
-95
-84
-58
-35
-20
6
44
78
112
168
233
281
314
344
363
362
322
232
130
66
24
-34
-85
-88
-78
-94
-101
-84
-100
-139
-131
-101
-106
-122
-118
-125
-137
-109
-67
-68
-87
-90
-115
-155
-151
-128
-130
-124
-100
-97
-98
-93
-103
-60
72
212
404
598
432
-72
-327
-184
-66
-99
-107
-90
-105
-113
-112
-117
-106
-84
-82
-85
-64
-26
11
38
54
81
128
178
221
265
305
326
329
316
276
213
146
84
31
5
-7
-33
-64
-74
-69
-67
-68
-75
-95
-118
-132
-145
-156
-148
-139
-147
-128
-71
-49
-83
-121
-152
-179
-185
-181
-171
-140
-120
-115
-101
-116
-129
-31
108
214
389
440
66
-371
-379
-187
-149
-167
-135
-129
-139
-118
-99
-98
-94
-73
-42
-20
-5
20
41
51
77
123
169
219
286
353
406
440
434
382
310
231
142
67
14
-24
-48
-72
-98
-106
-100
-102
-108
-114
-119
-107
-90
-85
-69
-41
-44
-67
-37
52
119
123
103
83
61
53
68
92
114
108
92
121
128
85
176
376
491
688
947
670
-57
-336
-99
-6
-98
-77
-11
-6
-2
-2
-22
-30
-45
-89
-122
-131
-146
-162
-164
-161
-146
-113
-87
-72
-44
-14
-14
-43
-88
-161
-258
-327
-331
-308
-305
-299
-273
-259
-255
-228
-187
-162
-142
-110
-80
-67
-62
-47
-21
-10
-25
-31
16
95
143
139
112
85
67
51
35
35
45
26
11
45
35
-13
75
227
335
612
876
542
-115
-290
-85
-35
-85
-47
-16
-29
-30
-30
-21
12
26
8
3
11
5
-11
-29
-59
-65
-6
62
93
133
180
165
109
83
42
-54
-142
-183
-216
-267
-328
-376
-374
-337
-319
-306
-265
-235
-236
-225
-190
-173
-180
-185
-180
-164
-124
-84
-76
-53
19
68
48
22
22
21
21
33
46
36
12
18
25
-17
-6
111
216
365
591
508
9
-309
-178
-16
-19
-16
16
18
27
40
29
34
69
82
67
69
95
117
133
162
198
217
234
294
380
418
406
408
411
356
267
188
120
76
57
23
-18
-27
-13
-14
-29
-34
-29
-24
-21
-8
12
26
33
35
21
1
-7
1
15
18
12
30
70
80
49
14
-13
-32
-39
-44
-43
-39
-50
-48
-35
-72
-75
45
152
238
421
404
-37
-407
-343
-197
-212
-229
-207
-220
-237
-246
-270
-285
-280
-277
-293
-324
-333
-317
-326
-353
-335
-284
-246
-196
-132
-100
-92
-80
-74
