# session 77
46
51
76
48
67
207
331
503
732
574
-5
-311
-152
-20
-51
-48
-25
-28
-12
5
-6
-24
-24
8
36
28
32
68
94
122
185
256
316
386
449
475
458
399
311
220
128
40
-19
-52
-89
-124
-137
-138
-135
-116
-98
-102
-106
-99
-104
-111
-93
-74
-76
-79
-64
-20
44
69
44
32
45
36
14
17
44
56
55
84
88
29
86
296
444
630
914
728
6
-378
-207
-147
-302
-293
-190
-238
-397
-542
-634
-677
-698
-718
-743
-766
-778
-779
-756
-653
-464
-267
-114
26
154
225
235
213
165
86
2
-66
-111
-126
-128
-129
-101
-42
29
127
237
372
627
945
1167
1406
1753
1783
1164
335
-112
-185
-182
-223
-283
-336
-364
-383
-418
-458
-487
-515
-554
-595
-628
-653
-675
-675
-612
-481
-318
-135
48
192
275
311
319
311
286
248
224
211
186
165
168
182
196
196
167
138
139
141
128
126
125
97
75
78
70
44
39
49
48
35
17
14
35
49
28
2
-2
-3
-6
-2
-9
-43
-78
-95
-101
-100
-100
-107
-92
-31
32
44
13
-15
-24
-38
-49
-31
-16
-27
-13
0
-45
-29
104
220
386
636
524
-48
-410
-296
-164
-194
-201
-182
-196
-201
-200
-200
-178
-157
-151
-137
-125
-126
-101
-48
-5
34
92
151
202
251
278
267
246
218
174
131
65
-38
-100
-87
-82
-119
-145
-138
-120
-104
-96
-86
-87
-100
-86
-67
-95
-121
-79
-16
37
137
333
559
676
669
646
568
404
410
597
484
-10
-337
-323
-292
-339
-347
-336
-344
-338
-322
-321
-327
-333
-340
-343
-337
-326
-313
-294
-268
-233
-192
-145
-100
-65
-33
11
42
39
36
61
81
108
233
465
702
928
1139
1153
904
627
461
278
32
-160
-250
-284
-294
-289
-291
-307
-318
-311
-318
-359
-408
-441
-450
-437
-420
-410
-371
-270
-151
-69
-18
25
54
64
61
57
58
56
49
51
64
71
73
79
83
81
80
82
77
66
64
69
61
36
20
20
13
-3
-6
3
6
-8
-27
-39
-47
-52
-55
-59
-58
-53
-60
-76
-71
-60
-71
-89
-93
-92
-90
-81
-78
-79
-69
-62
-68
-66
-46
-35
-47
-52
-33
-12
-24
-52
-48
-14
-7
-30
-19
42
101
122
107
80
69
63
65
102
126
111
127
131
76
135
317
454
671
890
581
-97
-348
-161
-87
-148
-129
-84
-90
-122
-131
-87
-37
-35
-36
-14
-7
0
42
101
147
185
237
307
367
400
416
413
384
344
283
190
106
46
-26
-86
-93
-91
-137
-186
-170
-119
-98
-61
40
145
277
544
832
1012
1238
1466
1279
626
2
-313
-460
-550
-572
-582
-632
-674
-670
-668
-697
-731
-760
-789
-825
-871
-911
-922
-901
-850
-751
-589
-391
-210
-67
45
108
100
51
1
-38
-61
-77
-94
-88
-84
-112
-46
93
-81
-649
-1156
-1453
-1762
-1945
-1804
-1607
-1533
-1364
-1010
-610
-188
252
553
657
711
795
878
992
1148
1284
1421
1604
1750
1821
1902
1980
1967
1915
1897
1843
1696
1508
1310
1077
820
569
344
167
31
-93
-203
-278
-326
-360
-392
-424
-426
-398
-401
-430
-418
-395
-421
-446
-425
-408
-411
-399
-379
-371
-355
-325
-299
-286
-280
-266
-245
-236
-242
-236
-207
-188
-196
-207
-206
-202
-192
-180
-177
-171
-149
-133
-133
-137
-138
-127
-98
-76
-84
-106
-98
-71
-76
-104
-113
-111
-119
-120
-109
-85
-34
1
-18
-33
-6
-5
-49
-61
-42
-46
-37
-10
-38
-46
59
195
360
545
441
-14
-301
-196
-67
-81
-83
-65
-84
-80
-48
-42
-40
-12
9
10
24
49
66
83
100
122
167
221
250
270
294
295
270
239
202
149
81
14
-37
-77
-117
-138
-138
-139
-140
-130
-127
-132
-120
-105
-118
-127
-97
-71
-81
-74
-25
7
-2
-20
-31
-38
-30
-11
15
30
5
-19
9
20
-17
30
180
314
408
350
1
-333
-288
-83
-37
-60
-36
-24
-36
-32
-29
-37
-40
-38
-39
-37
-25
-3
20
50
101
167
238
311
380
426
441
422
359
263
164
71
-15
-80
-122
-157
-176
-171
-166
-167
-163
-170
-188
-183
-164
-156
-146
-136
-135
-102
-35
-12
-52
-90
-91
-89
-111
-128
-100
-80
-105
-92
-56
-95
-79
91
246
422
660
517
-86
-425
-257
-115
-171
-188
-155
-162
-172
-161
-145
-132
-136
-140
-122
-101
-75
-22
31
63
107
191
300
408
473
471
444
417
348
219
89
7
-42
-87
-130
-155
-162
-171
-173
-138
-90
-58
-4
104
271
534
813
990
1242
1659
1716
1033
147
-325
-468
-537
-548
-540
-569
-582
-554
-538
-562
-614
-652
-646
-644
-710
-799
-822
-791
-761
-713
-594
-412
-221
-53
86
175
195
168
144
136
121
101
99
104
92
86
108
116
86
54
45
41
32
22
14
14
24
34
48
64
73
76
84
95
103
110
110
98
82
67
66
86
85
46
52
137
190
154
111
101
87
78
97
116
83
34
51
89
57
61
177
327
587
889
715
62
-303
-178
-82
-137
-119
-73
-92
-101
-82
-83
-94
-100
-106
-94
-53
-24
-30
-24
16
59
103
170
245
299
319
304
273
245
203
125
36
-17
-42
-81
-133
-154
-138
-132
-151
-165
-174
-192
-198
-179
-159
-159
-174
-169
-117
-68
-94
-159
-185
-186
-193
-194
-194
-214
-240
-217
-161
-177
-224
-140
9
89
192
222
-78
-440
-422
-211
-144
-153
-129
-116
-99
-69
-81
-106
-81
-42
-36
-24
18
56
78
124
200
263
318
395
460
463
432
405
354
258
150
63
-5
-53
-81
-101
-119
-122
-112
-93
-69
-53
-54
-51
-30
-4
9
13
35
77
93
64
31
20
13
3
9
30
32
9
16
45
22
6
89
202
341
541
506
71
-290
-237
-78
-77
-111
-99
-91
-92
-93
-103
-111
-104
-100
-103
-90
-58
-33
-9
29
65
103
158
205
234
261
263
223
173
117
29
-61
-113
-142
-169
-188
-189
-177
-174
-175
-152
-115
-85
-18
93
212
403
659
841
1012
1273
1310
858
242
-146
-316
-384
-394
-405
-425
-430
-442
-469
-481
-494
-536
-582
-613
-647
-690
-724
-736
-718
-654
-539
-394
-224
-40
100
156
167
165
129
70
37
36
28
14
19
30
22
8
8
7
-2
9
38
47
32
31
51
62
56
59
83
105
105
97
98
99
94
88
72
46
40
38
3
-21
31
107
128
99
54
24
29
43
51
55
39
35
54
31
48
204
355
536
868
867
236
-290
-227
-61
-81
-90
-68
-84
-86
-86
-94
-69
-39
-39
-41
-36
-30
-12
24
61
96
146
221
293
337
366
382
357
301
237
149
42
-39
-89
-135
-172
-188
-197
-202
-196
-179
-150
-96
-2
107
239
462
733
943
1182
1495
1513
966
213
-266
-440
-501
-531
-536
-533
-540
-560
-574
-579
-600
-632
-658
-691
-745
-805
-847
-854
-815
-731
-607
-443
-237
-37
84
137
175
166
91
41
44
26
-18
-29
-7
1
-19
-35
-22
2
7
-5
-13
6
34
34
21
32
50
47
35
26
19
21
36
52
55
37
17
21
46
60
54
65
110
154
165
141
102
76
65
55
58
59
32
31
66
48
44
169
320
487
726
677
159
-241
-159
1
-16
-38
-14
-15
-16
-6
-12
-19
-5
10
8
10
35
57
62
95
153
190
231
301
348
361
377
366
297
227
184
116
28
-29
-57
-90
-126
-141
-126
-107
-115
-126
-118
-129
-165
-170
-133
-108
-124
-138
-110
-71
-72
-98
-113
-121
-133
-141
-129
-110
-112
-109
-81
-89
-114
-50
61
141
231
186
-144
-435
-370
-199
-181
-199
-171
-161
-168
-157
-140
-137
-141
-127
-101
-91
-80
-40
4
31
71
134
195
252
301
318
309
294
250
162
76
18
-45
-111
-130
-103
-89
-99
-100
-94
-95
-84
-69
-82
-95
-63
-19
-24
-39
11
81
73
10
-23
-21
-21
-20
2
32
37
37
68
68
27
76
199
294
482
666
404
-162
-369
-199
-113
-142
-117
-93
-100
-90
-78
-64
-34
-23
-20
-1
6
8
37
75
122
187
232
274
346
385
385
418
420
297
162
109
43
-68
-131
-137
-155
-182
-191
-202
-218
-211
-190
-193
-217
-221
-194
-163
-160
-166
-122
-51
-45
-91
-98
-75
-82
-109
-100
-70
-81
-105
-75
-73
-137
-96
52
167
351
503
199
-356
-504
-302
-217
-256
-249
-219
-198
-186
-190
-173
-138
-134
-137
-110
-79
-58
-27
16
62
122
196
278
359
416
430
410
374
303
196
100
35
-18
-62
-93
-120
-137
-151
-166
-156
-126
-106
-59
28
150
393
701
866
1052
1484
1684
1173
392
-74
-279
-405
-428
-389
-390
-418
-411
-379
-381
-402
-396
-389
-423
-463
-486
-504
-492
-427
-333
-224
-87
58
177
257
289
270
222
177
141
109
83
66
53
42
33
27
24
20
12
6
2
-6
-18
-21
-18
-25
-26
-8
-7
-28
-29
-19
-32
-30
3
10
-13
-7
6
-34
-78
-66
-35
-33
-32
-4
36
63
63
43
25
16
6
4
16
17
-3
-18
-34
-64
-35
52
128
315
597
498
-68
-448
-368
-248
-280
-293
-266
-263
-259
-241
-225
-207
-182
-158
-140
-124
-101
-65
-18
30
78
136
213
295
357
389
404
407
381
314
224
136
66
8
-43
-78
-103
-133
-152
-148
-153
-164
-151
-139
-164
-192
-193
-182
-176
-175
-150
-95
-61
-83
-118
-128
-138
-159
-155
-117
-105
-124
-93
-46
-87
-80
94
261
410
630
539
-18
-377
-213
-30
-55
-48
7
0
-17
-11
-12
-2
20
16
-7
-11
17
52
77
112
176
260
355
448
505
525
525
483
383
252
134
47
-13
-55
-81
-95
-107
-117
-119
-92
-15
86
177
331
614
896
1132
1524
1930
1785
1020
231
-218
-421
-503
-529
-563
-591
-587
-600
-639
-659
-676
-716
-744
-769
-821
-865
-882
-895
-865
-745
-590
-444
-280
-120
-19
35
58
37
-4
-22
-23
-33
-46
-46
-32
-20
-12
-1
16
30
26
19
29
39
25
8
5
-2
-8
-2
3
10
34
43
18
5
20
26
21
27
33
31
17
-9
-10
12
-4
-37
0
69
85
69
59
38
7
-10
11
48
34
4
26
27
25
161
319
420
646
747
310
-207
-224
-59
-82
-102
-43
-40
-52
-29
-28
-37
-14
11
20
23
24
37
69
111
162
214
263
326
389
403
389
388
370
314
247
173
95
38
-4
-43
-64
-75
-88
-89
-79
-79
-85
-86
-82
-75
-76
-85
-92
-89
-70
-23
18
-5
-72
-103
-71
-49
-81
-105
-90
-83
-73
-60
-101
-120
-25
85
245
498
452
-45
-402
-305
-157
-186
-223
-196
-166
-165
-194
-211
-190
-171
-165
-150
-132
-121
-103
-61
14
93
138
178
251
322
343
334
307
238
138
49
-33
-107
-149
-169
-201
-225
-211
-189
-194
-202
-194
-190
-200
-198
-174
-147
-139
-133
-107
-67
-36
-47
-104
-137
-109
-89
-103
-103
-99
-101
-71
-61
-96
-57
56
162
351
498
239
-221
-332
-160
-73
-57
-32
-57
-73
-24
4
-3
22
63
84
99
119
148
184
207
235
292
346
386
435
473
471
446
410
341
238
140
71
15
-41
-75
-89
-105
-118
-126
-140
-145
-127
-110
-110
-105
-79
-56
-54
-54
-28
7
11
-23
-56
-64
-65
-84
-93
-75
-76
-84
-57
-55
-83
-33
74
199
426
529
174
-300
-356
-182
-158
-188
-147
-128
-147
-145
-133
-122
-100
-84
-89
-89
-70
-47
-32
-16
7
42
94
163
230
262
264
261
233
148
39
-44
-103
-151
-179
-186
-184
-179
-178
-165
-120
-80
-57
16
135
259
480
772
942
1113
1519
1756
1283
431
-118
-292
-359
-398
-410
-424
-434
-437
-450
-479
-526
-561
-569
-607
-690
-756
-788
-801
-778
-713
-610
-446
-246
-81
46
154
213
208
176
139
89
50
48
50
33
25
31
31
37
53
55
59
78
82
84
115
132
103
88
107
107
82
72
69
61
58
50
26
1
-13
-11
-1
-8
-21
-5
37
83
123
128
82
48
66
81
58
41
37
62
114
75
-10
109
349
480
656
788
408
-194
-306
-104
-80
-127
-111
-128
-124
-85
-116
-139
-87
-91
-154
-141
-74
-54
-58
-19
48
105
170
264
340
361
356
342
293
218
135
43
-43
-111
-164
-207
-238
-255
-252
-243
-245
-236
-213
-207
-209
-183
-156
-165
-173
-136
-77
-35
-35
-73
-101
-93
-93
-121
-122
-91
-98
-103
-46
-48
-105
-3
181
290
530
756
407
-233
-395
-210
-166
-187
-155
-167
-177
-134
-121
-137
-123
-97
-85
-82
-66
-9
49
66
93
160
236
330
428
461
447
442
388
255
135
50
-46
-95
-75
-97
-166
-169
-123
-78
15
131
238
443
710
882
1062
1253
1079
506
22
-191
-330
-417
-406
-401
-425
-416
-417
-456
-471
-461
-486
-536
-567
-594
-629
-637
-607
-559
-475
-327
-152
-7
110
206
251
239
211
182
148
113
82
68
84
101
79
50
56
65
44
37
61
57
22
16
29
15
7
25
25
10
17
24
2
-25
-31
-11
24
43
27
-3
-26
-43
-51
-46
-39
-36
-18
28
71
75
40
5
-5
-3
-1
10
10
-2
10
15
-7
41
171
288
426
495
227
-199
-306
-148
-83
-110
-96
-84
-97
-99
-97
-90
-81
-82
-75
-53
-42
-39
-16
14
48
101
150
190
245
293
301
292
278
240
186
139
90
31
