# session 138
32
12
39
154
260
410
675
632
107
-252
-143
-29
-74
-57
-17
-61
-90
-71
-68
-76
-77
-89
-85
-45
-17
-15
13
74
132
181
229
278
326
347
325
279
225
158
93
37
-6
-18
-16
-41
-75
-76
-59
-58
-63
-51
-36
-46
-38
31
82
34
-28
-9
8
-48
-82
-34
-8
-38
-37
-39
-74
-36
54
139
337
479
201
-237
-328
-210
-204
-223
-190
-193
-208
-186
-176
-179
-155
-125
-106
-83
-52
-10
33
62
100
161
217
250
273
289
285
254
200
132
65
5
-33
-47
-66
-97
-100
-87
-111
-140
-110
-51
1
65
159
342
620
800
858
1049
1256
1020
413
-84
-331
-447
-467
-450
-472
-494
-481
-482
-506
-523
-548
-587
-609
-634
-698
-749
-736
-705
-677
-592
-443
-282
-122
34
152
206
207
183
168
166
153
129
121
125
112
90
91
95
76
57
55
41
22
30
42
30
23
30
18
-4
-7
5
5
-10
-3
54
127
153
129
103
85
61
53
78
83
63
91
109
58
117
317
459
647
893
672
17
-251
-27
64
-26
-7
35
-1
-6
18
-1
-30
-21
3
9
13
26
28
51
125
197
227
259
314
357
355
311
246
172
79
-26
-115
-177
-219
-249
-271
-279
-275
-280
-285
-259
-221
-213
-208
-163
-96
-58
-70
-112
-146
-162
-176
-190
-191
-193
-198
-186
-206
-235
-142
6
83
223
330
24
-448
-503
-294
-250
-288
-251
-219
-207
-178
-174
-181
-156
-124
-109
-88
-62
-37
7
69
132
210
304
382
431
460
459
416
340
245
141
59
19
1
-23
-50
-60
-44
-9
29
86
174
272
420
649
878
1123
1452
1595
1220
524
-32
-311
-427
-471
-481
-472
-471
-498
-515
-499
-500
-532
-561
-579
-598
-618
-635
-629
-589
-518
-408
-249
-78
66
186
265
293
300
305
282
229
183
172
178
170
155
144
125
102
98
99
84
63
39
9
-14
-15
-8
-27
-63
-63
-47
-80
-131
-116
-59
-39
-52
-48
-23
-10
-31
-70
-96
-101
-96
-81
-71
-82
-76
-51
-55
-37
61
168
291
416
282
-122
-330
-197
-82
-106
-111
-96
-115
-125
-120
-129
-135
-123
-108
-96
-81
-61
-31
8
50
89
134
187
239
282
307
314
306
273
222
176
128
63
11
-9
-17
-28
-30
-35
-52
-50
-17
10
3
-11
4
36
42
-2
-63
-89
-86
-88
-91
-94
-104
-88
-67
-89
-47
109
244
369
484
291
-160
-326
-150
-66
-118
-111
-95
-121
-120
-114
-138
-141
-110
-91
-89
-69
-34
-12
18
85
157
214
274
327
362
394
396
338
244
147
59
1
-26
-50
-77
-88
-80
-82
-106
-119
-93
-62
-66
-80
-60
-12
22
15
-27
-58
-68
-92
-113
-102
-98
-89
-66
-104
-119
18
158
266
503
542
65
-380
-332
-190
-242
-271
-227
-228
-236
-217
-210
-212
-202
-190
-177
-158
-139
-120
-86
-35
21
82
153
217
262
289
288
251
195
133
56
-23
-73
-81
-75
-84
-99
-103
-107
-119
-116
-80
-48
-56
-51
4
47
34
10
-10
-42
-66
-62
-55
-70
-82
-58
-47
-71
-24
94
189
334
444
205
-205
-293
-145
-121
-167
-136
-116
-147
-153
-127
-114
-117
-109
-75
-36
-18
-6
30
72
104
152
226
286
315
328
332
315
269
199
126
60
14
-2
-13
-31
-26
-5
-7
-7
21
76
167
236
269
459
800
983
1045
1231
1262
817
224
-122
-275
-353
-356
-351
-381
-394
-386
-399
-415
-415
-433
-476
-509
-525
-533
-537
-534
-503
-418
-303
-189
-71
45
133
189
214
192
139
106
97
80
56
46
36
11
-10
-19
-39
-68
-82
-82
-89
-99
-103
-109
-119
-122
-122
-123
-129
-139
-137
-109
-81
-79
-69
-15
38
37
4
-15
-19
-29
-34
-25
-35
-59
-47
-42
-70
-13
119
235
441
622
347
-209
-380
-187
-115
-168
-152
-125
-140
-150
-156
-155
-135
-127
-133
-108
-64
-43
-32
0
52
115
183
247
309
367
394
388
373
332
253
180
129
79
22
-21
-23
-7
-18
-32
-14
-7
-16
6
23
11
35
90
89
39
-3
-28
-45
-60
-71
-71
-70
-72
-84
-113
-73
76
201
317
477
371
-94
-381
-251
-100
-104
-104
-86
-88
-74
-65
-75
-68
-54
-46
-22
4
9
22
63
107
152
220
303
361
388
398
381
322
238
139
41
-11
-27
-73
-128
-133
-123
-135
-135
-118
-120
-135
-140
-134
-115
-73
-23
-14
-69
-134
-157
-163
-175
-168
-168
-184
-156
-132
-170
-122
47
151
245
373
194
-261
-420
-231
-138
-181
-166
-139
-153
-151
-139
-143
-142
-126
-110
-94
-69
-48
-38
-11
43
93
139
208
275
305
316
312
271
203
127
47
-12
-34
-57
-98
-112
-96
-103
-132
-128
-103
-96
-92
-84
-85
-54
16
38
-13
-49
-49
-71
-100
-96
-103
-111
-66
-61
-118
-54
84
158
382
653
403
-182
-349
-164
-123
-173
-155
-155
-170
-156
-154
-158
-151
-155
-151
-119
-90
-64
-19
32
85
157
229
279
327
369
377
362
341
291
209
139
102
80
59
42
37
47
48
24
-6
-15
2
26
25
24
74
132
140
164
267
419
565
615
536
424
313
255
436
681
499
-10
-289
-272
-265
-313
-322
-309
-311
-318
-319
-326
-353
-383
-402
-419
-428
-420
-409
-401
-384
-350
-304
-252
-199
-147
-89
-22
36
64
81
97
97
92
100
102
85
64
50
49
59
67
101
162
207
286
463
621
727
919
1044
786
290
-66
-233
-321
-350
-353
-365
-368
-378
-409
-423
-422
-451
-495
-525
-566
-611
-623
-609
-590
-539
-438
-302
-150
1
131
209
226
218
208
171
117
93
82
41
5
19
45
31
10
18
21
5
6
18
20
46
83
74
50
59
72
71
80
92
93
88
75
49
29
30
41
40
32
50
106
156
148
102
80
79
59
55
86
86
82
111
80
62
211
361
488
824
963
402
-231
-238
-34
-68
-118
-74
-79
-93
-56
-55
-94
-94
-66
-47
-29
-22
-24
0
46
97
162
220
255
293
331
334
306
275
236
166
74
11
-27
-78
-122
-138
-159
-176
-177
-192
-198
-162
-146
-173
-167
-114
-85
-88
-99
-132
-174
-185
-186
-190
-170
-163
-178
-154
-144
-171
-87
58
153
370
548
212
-326
-411
-247
-256
-286
-232
-245
-282
-250
-230
-246
-242
-224
-209
-180
-154
-141
-120
-75
-6
69
129
189
257
300
306
284
230
155
92
56
26
-24
-59
-46
-33
-52
-57
-50
-57
-50
-25
-31
-45
-14
30
29
-8
-40
-51
-55
-58
-36
-7
-11
1
53
58
51
137
234
307
438
423
78
-222
-171
-45
-57
-66
-25
-19
-30
-31
-41
-47
-36
-24
-18
-10
4
21
46
86
129
170
215
263
298
312
311
297
264
208
142
90
59
37
24
24
24
15
12
14
12
19
36
40
41
64
90
89
62
27
0
-23
-52
-77
-90
-110
-125
-117
-142
-179
-128
-23
128
413
534
128
-397
-477
-338
-344
-377
-335
-315
-316
-300
-295
-290
-259
-232
-222
-201
-167
-135
-100
-47
16
65
110
176
240
265
271
267
223
139
61
12
-24
-59
-81
-84
-85
-103
-120
-120
-118
-107
-78
-77
-91
-52
5
6
-16
-26
-56
-90
-90
-61
-26
-23
-24
82
296
491
628
760
941
1131
1026
436
-185
-350
-275
-303
-344
-303
-284
-304
-300
-287
-297
-300
-280
-272
-299
-330
-332
-329
-342
-359
-359
-333
-288
-234
-153
-57
4
32
66
90
85
73
66
71
94
104
85
72
90
121
154
211
292
389
575
880
1110
1162
1338
1727
1757
1106
324
-78
-231
-314
-291
-232
-264
-350
-387
-372
-371
-403
-426
-440
-484
-552
-602
-613
-597
-588
-565
-480
-356
-244
-112
60
177
182
144
115
66
6
-27
-37
-46
-51
-58
-63
-54
-51
-64
-62
-41
-33
-42
-39
-23
-20
-35
-43
-41
-48
-56
-52
-58
-79
-67
-4
46
44
19
-8
-28
-33
-29
-29
-37
-48
-28
-7
-43
-39
78
191
344
580
505
-7
-354
-248
-103
-129
-149
-121
-114
-122
-126
-111
-80
-74
-80
-59
-27
-2
20
27
41
97
159
196
236
275
285
278
262
229
195
156
99
46
13
-13
-26
-20
-19
-35
-48
-41
-11
23
29
18
37
73
67
20
-16
-22
-25
-40
-38
-18
-25
-34
-9
-16
-50
5
109
211
395
467
144
-244
-261
-125
-129
-155
-116
-102
-119
-117
-99
-80
-75
-80
-69
-46
-20
15
43
56
93
166
223
244
261
281
278
247
195
120
45
6
-15
-53
-89
-95
-86
-90
-112
-139
-148
-127
-104
-109
-121
-101
-73
-96
-152
-183
-188
-200
-211
-193
-168
-170
-165
-143
-158
-148
-38
69
171
366
375
-16
-354
-290
-144
-153
-163
-132
-142
-163
-159
-160
-166
-155
-130
-106
-91
-79
-56
-15
30
72
123
190
262
317
341
333
311
277
210
126
65
33
11
-4
-22
-41
-49
-50
-52
-43
-17
-4
0
41
145
267
366
488
662
817
959
1212
1488
1458
989
335
-153
-351
-392
-429
-458
-449
-449
-463
-447
-439
-479
-519
-531
-550
-591
-641
-693
-727
-724
-679
-602
-506
-389
-230
-56
54
85
105
143
144
84
38
50
62
34
14
29
46
49
42
27
33
62
64
39
27
13
-6
12
35
6
-21
25
110
151
118
62
51
57
28
12
33
32
34
61
35
22
156
340
492
617
475
12
-273
-167
-52
-83
-77
-57
-102
-109
-64
-80
-112
-80
-69
-120
-110
-29
-12
-46
13
139
205
232
299
361
360
323
282
219
121
19
-50
-88
-128
-166
-180
-181
-188
-179
-139
-89
-33
38
132
316
611
870
1053
1332
1610
1447
776
69
-338
-502
-548
-545
-556
-574
-571
-574
-595
-599
-599
-627
-673
-717
-754
-780
-798
-805
-768
-670
-528
-370
-228
-103
24
116
129
119
131
106
51
65
96
82
173
370
469
619
1068
1491
1447
964
285
-276
-423
-277
-191
-214
-235
-259
-283
-273
-264
-266
-256
-253
-259
-240
-221
-232
-226
-169
-83
27
154
255
317
350
345
299
239
192
165
147
131
122
113
90
78
93
100
82
70
72
65
67
90
85
53
51
66
55
50
54
35
23
40
36
8
-1
-3
-30
-62
-65
-54
-68
-93
-85
-65
-79
-98
-88
-78
-84
-89
-108
-132
-127
-111
-118
-134
-134
-95
-36
-32
-86
-102
-68
-61
-73
-57
-31
-16
-24
-38
19
137
264
441
516
214
-229
-332
-188
-148
-192
-187
-182
-203
-207
-198
-193
-181
-170
-164
-142
-115
-107
-87
-32
26
72
128
188
222
237
258
281
271
226
189
175
151
108
73
48
35
48
58
34
21
36
46
42
26
4
5
24
13
-31
-70
-95
-110
-104
-78
-66
-79
-80
-50
-40
-53
-5
98
203
326
327
43
-258
-245
-94
-62
-70
-50
-58
-73
-66
-69
-77
-66
-57
-56
-42
-18
3
27
63
109
158
205
251
292
315
312
288
248
186
107
47
15
-16
-42
-34
-19
-38
-73
-90
-84
-62
-54
-78
-88
-45
-10
-35
-84
-112
-124
-131
-137
-141
-150
-153
-137
-148
-188
-145
-33
70
272
474
262
-240
-424
-276
-219
-264
-238
-201
-211
-212
-198
-188
-172
-143
-112
-96
-92
-69
-24
13
52
112
172
216
263
312
328
306
267
218
143
58
6
-17
-45
-67
-63
-66
-81
-63
-12
51
129
223
401
727
1034
1176
1365
1648
1558
880
104
-304
-418
-470
-507
-511
-511
-526
-539
-544
-555
-578
-614
-671
-730
-749
-742
-759
-770
-712
-609
-489
-317
-126
18
136
233
245
189
154
138
110
86
67
38
23
28
36
41
38
22
20
42
51
40
33
40
56
67
54
42
56
60
38
26
29
45
98
167
176
125
84
75
71
82
99
89
85
110
83
41
140
292
423
724
962
588
-83
-265
-76
-55
-142
-117
-81
-115
-140
-132
-128
-138
-146
-134
-114
-111
-101
-55
-11
4
33
97
150
177
196
208
198
167
128
84
27
-31
-68
-88
-98
-96
-89
-94
-103
-95
-71
-59
-67
-60
-16
13
-18
-68
-98
-130
-161
-157
-136
-149
-176
-156
-131
-165
-164
-53
76
238
424
309
-142
-399
-274
-142
-153
-161
-145
-142
-132
-129
-132
-116
-103
-118
-115
-71
-24
9
43
83
124
178
243
296
315
311
302
267
181
96
45
-11
-62
-58
-40
-52
-54
-41
-42
-32
-3
3
-12
-4
29
49
45
19
-23
-47
-38
-26
-27
-32
-31
1
27
-2
6
101
184
330
546
457
12
-244
-140
-49
-83
-96
-89
-96
-81
-70
-85
-87
-72
-69
-61
-27
7
26
54
94
138
195
257
290
295
297
291
258
208
156
106
65
34
17
16
11
-13
-36
-48
-59
-65
-65
-71
-75
-65
-70
-113
-168
-210
-236
-255
-265
-256
-246
-244
-228
-223
-238
-190
-81
8
125
201
-5
-335
-380
-218
-172
-210
-198
-183
-197
-204
-208
-212
-206
-201
-200
-184
-153
-120
-90
-64
-28
32
102
166
218
252
260
238
194
137
67
4
-27
-48
-81
-92
-74
-83
-104
-70
-2
42
107
233
406
663
958
1133
1288
1628
1850
1461
642
-3
-269
-346
-378
-400
-413
-412
-421
-444
-453
-468
-520
-555
-548
-566
-627
-663
-657
-639
-595
-490
-335
-176
-33
95
201
256
253
228
217
212
192
160
144
149
154
159
170
164
151
156
163
155
147
142
128
106
