# session 39
64
7
184
354
486
782
843
294
-255
-256
-90
-86
-86
-50
-57
-66
-69
-82
-74
-60
-63
-56
-45
-43
-32
-13
6
34
71
108
156
209
248
275
301
314
305
278
229
162
99
50
5
-41
-86
-142
-210
-263
-319
-408
-463
-427
-364
-320
-263
-216
-217
-212
-154
-87
-59
-67
-101
-133
-138
-143
-157
-133
-108
-142
-142
-74
-103
-167
-34
157
244
415
510
132
-340
-339
-140
-130
-155
-108
-98
-107
-92
-95
-98
-77
-58
-43
-28
-22
-8
23
56
88
123
166
225
286
329
363
380
356
302
234
146
58
-9
-71
-118
-122
-104
-101
-100
-89
-78
-68
-50
-45
-56
-51
-24
-15
-24
-19
9
54
87
83
58
37
13
-4
-1
4
-1
-12
-13
1
-17
-50
11
133
256
475
617
311
-191
-316
-148
-88
-116
-91
-77
-101
-107
-101
-100
-92
-80
-77
-77
-69
-62
-59
-36
10
48
77
127
192
247
287
314
315
290
248
189
118
53
1
-37
-53
-59
-73
-75
-64
-70
-80
-59
-40
-58
-80
-73
-58
-65
-83
-65
-5
18
-36
-85
-74
-70
-104
-138
-144
-122
-113
-146
-155
-114
-107
-113
-35
80
190
275
126
-249
-422
-266
-125
-130
-126
-93
-90
-96
-92
-81
-70
-73
-80
-64
-39
-21
-3
17
30
48
84
132
182
227
264
289
300
297
269
209
136
72
21
-16
-35
-41
-45
-44
-31
-27
-41
-41
-16
-14
-48
-61
-39
-20
-17
-11
17
64
86
56
11
-11
-15
-11
-20
-41
-37
-24
-29
-15
-15
-77
-51
107
236
419
674
517
-88
-407
-252
-149
-208
-196
-158
-177
-172
-144
-150
-154
-133
-126
-130
-107
-72
-59
-47
-11
33
77
132
203
283
349
375
370
352
309
233
144
63
1
-34
-55
-84
-114
-117
-102
-105
-118
-118
-114
-120
-132
-144
-138
-108
-109
-146
-135
-73
-51
-66
-69
-86
-118
-118
-111
-130
-127
-103
-107
-103
-94
-132
-81
130
290
417
615
487
-81
-406
-238
-101
-158
-164
-121
-105
-87
-79
-77
-51
-42
-54
-41
-29
-32
-20
-7
-3
38
101
144
202
296
368
386
381
362
314
236
150
75
14
-23
-26
-29
-57
-77
-61
-37
-33
-36
-25
-12
-9
-1
7
-3
-16
-26
-29
17
102
136
102
60
27
5
-2
-22
-60
-103
-177
-217
-146
-122
-207
-155
42
205
460
659
297
-325
-446
-223
-190
-250
-206
-176
-191
-181
-169
-166
-151
-138
-127
-102
-84
-77
-51
-8
26
60
119
194
254
302
361
404
389
341
289
216
119
37
-14
-57
-93
-111
-115
-118
-129
-147
-144
-118
-112
-131
-133
-119
-117
-120
-117
-117
-118
-101
-51
0
3
-32
-56
-63
-72
-79
-75
-82
-108
-101
-56
-65
-89
2
143
305
584
676
233
-281
-313
-145
-138
-152
-106
-118
-150
-132
-120
-132
-127
-112
-110
-106
-85
-56
-31
-4
36
86
136
182
234
297
347
371
380
363
295
209
141
83
39
21
4
-19
-24
-22
-34
-45
-37
-19
-9
-26
-52
-50
-42
-56
-55
-29
-32
-49
-18
23
13
-21
-49
-74
-75
-59
-68
-70
-49
-58
-69
-43
-55
-84
-5
106
220
473
605
247
-222
-279
-142
-145
-175
-140
-127
-135
-120
-102
-92
-79
-65
-60
-59
-45
-14
11
16
30
73
122
156
185
218
248
269
275
251
202
136
52
-29
-68
-75
-103
-149
-165
-142
-117
-124
-157
-170
-152
-135
-138
-152
-159
-149
-129
-114
-104
-93
-64
-8
34
21
-24
-47
-41
-27
-21
-23
-11
10
4
-14
-12
-15
3
96
208
336
479
372
-57
-346
-259
-128
-138
-151
-140
-151
-150
-130
-119
-104
-84
-76
-66
-43
-22
-10
10
47
81
109
148
201
251
288
324
366
384
355
308
253
168
87
51
26
-9
-19
-22
-56
-81
-68
-53
-58
-71
-81
-88
-91
-98
-111
-125
-113
-81
-69
-82
-61
-2
18
-17
-50
-60
-64
-71
-88
-98
-86
-88
-98
-69
-67
-105
-25
140
253
447
613
304
-246
-359
-143
-89
-136
-99
-74
-93
-82
-64
-62
-56
-55
-61
-47
-15
5
8
15
37
77
119
149
196
273
324
334
341
327
261
179
96
2
-71
-105
-128
-152
-169
-172
-165
-166
-176
-162
-139
-144
-153
-138
-139
-173
-172
-121
-104
-149
-178
-138
-64
-18
-18
-29
-33
-45
-47
-34
-35
-37
-27
-42
-45
-18
-63
-97
57
250
406
681
723
161
-391
-348
-135
-143
-166
-112
-100
-103
-82
-74
-66
-41
-25
-15
2
9
14
46
85
109
145
201
249
292
345
391
406
390
351
299
230
141
48
-21
-57
-79
-100
-114
-114
-113
-117
-112
-96
-98
-116
-108
-78
-82
-126
-155
-142
-117
-117
-134
-125
-77
-34
-34
-62
-90
-101
-95
-93
-98
-87
-74
-87
-78
-42
-62
-50
101
234
366
652
686
154
-303
-216
-52
-107
-133
-92
-108
-122
-103
-104
-108
-103
-103
-97
-92
-89
-66
-52
-65
-45
18
63
106
172
213
227
256
265
225
177
120
31
-43
-71
-83
-105
-134
-148
-133
-122
-132
-129
-108
-101
-92
-57
-25
-14
-16
-30
-48
-46
-28
-22
-28
-15
22
43
28
-1
-27
-52
-60
-52
-47
-35
-16
-17
-6
28
15
7
117
245
349
542
579
187
-217
-206
-62
-63
-67
-24
-23
-36
-31
-40
-48
-23
13
16
-14
-20
14
35
34
53
80
97
114
134
161
209
249
252
232
197
127
42
-14
-47
-83
-111
-116
-121
-131
-131
-127
-127
-126
-126
-129
-129
-130
-134
-134
-138
-152
-154
-133
-105
-86
-74
-46
-1
21
-1
-32
-40
-35
-39
-49
-39
-19
-32
-49
-16
-10
-67
-23
136
270
476
691
449
-162
-426
-258
-159
-211
-206
-166
-164
-172
-168
-156
-146
-146
-132
-103
-88
-73
-45
-28
-6
43
93
137
195
253
306
360
390
381
345
283
197
122
60
-1
-43
-56
-74
-105
-115
-110
-118
-127
-118
-102
-95
-99
-103
-94
-86
-103
-114
-88
-64
-77
-86
-45
24
68
65
47
35
19
7
9
15
30
42
30
32
43
8
35
190
338
551
861
747
73
-379
-265
-110
-150
-176
-155
-138
-127
-143
-139
-78
-56
-106
-119
-71
-44
-46
-25
8
23
54
127
198
244
291
330
331
311
282
210
100
6
-53
-95
-127
-149
-160
-160
-158
-160
-160
-155
-151
-138
-115
-111
-129
-129
-117
-132
-152
-135
-115
-142
-174
-136
-56
-18
-28
-53
-92
-125
-124
-117
-119
-105
-104
-121
-87
-64
-123
-80
115
262
473
790
633
-60
-422
-232
-117
-200
-184
-127
-147
-149
-116
-110
-106
-74
-38
-25
-34
-30
12
56
70
79
110
162
227
284
317
340
360
356
312
236
156
94
35
-28
-66
-77
-88
-94
-83
-69
-58
-54
-61
-63
-51
-37
-18
-8
-38
-79
-73
-48
-49
-66
-61
-18
31
44
43
35
-8
-52
-45
-28
-31
-29
-35
-46
-21
-20
-51
21
152
251
523
843
599
-79
-365
-204
-141
-205
-183
-146
-157
-153
-147
-155
-147
-132
-123
-104
-83
-76
-66
-41
-12
22
70
128
180
229
276
313
322
310
283
226
137
53
2
-25
-48
-71
-79
-79
-95
-115
-102
-76
-91
-131
-142
-128
-128
-137
-137
-141
-144
-119
-93
-91
-90
-70
-42
-12
-3
-29
-65
-90
-98
-79
-56
-58
-67
-63
-51
-54
-89
-74
51
196
346
491
342
-134
-403
-256
-98
-110
-120
-95
-90
-83
-70
-70
-73
-72
-76
-73
-53
-31
-20
-7
22
53
80
115
165
220
274
319
345
344
320
278
216
142
91
75
51
4
-26
-34
-29
2
32
11
-27
-22
13
21
-10
-34
-27
-29
-61
-87
-85
-74
-81
-90
-62
-9
0
-35
-55
-60
-73
-75
-67
-67
-56
-48
-70
-76
-66
-100
-102
-5
92
185
285
150
-233
-416
-271
-140
-139
-129
-104
-103
-97
-84
-80
-75
-69
-63
-49
-36
-29
-11
16
36
48
74
116
150
183
244
314
334
303
282
271
191
36
-78
-102
-108
-137
-159
-160
-155
-156
-155
-137
-98
-51
-6
73
271
550
746
915
1263
1560
1287
505
-140
-329
-295
-267
-262
-289
-338
-348
-335
-359
-398
-411
-429
-477
-524
-551
-575
-601
-608
-586
-535
-447
-305
-139
-16
60
140
218
230
193
176
164
118
82
85
79
68
86
93
82
103
111
64
46
82
82
44
46
65
47
15
-8
-16
6
30
14
-7
4
-10
-57
-45
14
29
29
61
67
24
-9
1
26
27
9
10
25
-3
-61
-65
-16
-14
-66
-68
-4
39
40
22
-20
-47
-27
-11
-24
-32
-33
-21
5
-24
-47
80
253
408
715
877
414
-218
-310
-123
-126
-183
-149
-151
-193
-196
-178
-172
-180
-191
-185
-163
-147
-137
-116
-89
-65
-44
-16
38
112
163
185
215
249
248
226
207
167
104
41
-21
-77
-96
-93
-105
-123
-109
-75
-60
-21
94
216
340
559
778
887
1018
1085
737
133
-219
-276
-286
-282
-248
-261
-319
-362
-376
-374
-366
-374
-401
-424
-435
-456
-491
-507
-487
-449
-401
-323
-200
-68
38
128
212
261
251
210
184
164
117
75
85
105
99
79
48
31
64
96
76
40
22
14
6
-10
-18
-1
8
-11
-16
2
-9
-26
2
23
-2
-10
14
16
5
16
20
0
-11
2
12
5
-5
-5
-8
-25
-45
-41
-20
-17
-36
-33
11
58
64
30
-3
-11
-7
-15
-17
-1
-7
-33
-19
-8
-36
11
150
291
489
602
279
-250
-402
-245
-183
-206
-195
-200
-212
-202
-204
-209
-193
-177
-173
-167
-148
-118
-90
-70
-47
-8
43
92
139
196
251
282
292
290
274
246
206
155
107
76
53
30
12
4
-4
-13
-20
-18
-11
-15
-37
-49
-48
-64
-89
-87
-67
-68
-90
-89
-36
35
61
43
42
76
123
187
276
391
541
678
759
955
1402
1707
1356
550
-61
-275
-331
-354
-345
-356
-391
-404
-404
-416
-428
-435
-454
-478
-499
-530
-570
-601
-620
-636
-640
-631
-608
-542
-430
-314
-197
-67
27
66
92
98
63
31
13
-26
-51
-34
-31
-56
-54
-26
-13
-7
17
35
32
38
65
72
42
19
44
73
49
18
68
161
191
164
150
136
99
82
99
101
75
42
36
82
91
1
13
211
368
524
801
722
76
-380
-252
-87
-150
-175
-123
-127
-153
-145
-127
-129
-145
-144
-121
-108
-103
-82
-50
-17
25
78
131
192
274
357
401
414
423
406
342
259
174
82
11
-27
-68
-114
-128
-121
-128
-137
-122
-97
-87
-89
-108
-137
-137
-106
-94
-100
-65
4
33
2
-34
-42
-39
-52
-68
-67
-57
-61
-66
-46
-42
-97
-103
21
175
363
590
499
-17
-385
-307
-174
-211
-241
-193
-157
-160
-171
-161
-131
-114
-129
-149
-134
-100
-88
-83
-54
-9
39
91
147
206
261
295
303
289
254
192
119
57
-2
-60
-95
-104
-107
-107
-102
-97
-89
-77
-69
-69
-70
-72
-67
-46
-27
-37
-40
6
58
56
21
-5
-16
-30
-51
-58
-30
-10
-22
-16
21
92
286
541
662
760
945
815
205
-285
-307
-224
-257
-261
-205
-180
-193
-201
-191
-182
-191
-203
-205
-203
-206
-209
-210
-209
-209
-208
-200
-179
-138
-87
-43
4
62
98
99
95
93
69
35
11
-3
-17
-29
-35
-32
-28
-23
-13
-2
6
15
30
47
65
78
95
131
160
142
100
75
64
53
47
52
62
52
25
30
45
5
-4
101
227
387
574
440
-71
-380
-262
-134
-169
-177
-141
-140
-142
-133
-139
-149
-149
-146
-136
-120
-106
-91
-73
-45
-4
41
82
138
211
272
312
336
335
301
244
174
95
23
-32
-65
-73
-77
-96
-108
-93
-79
-82
-73
-57
-66
-79
-67
-57
-64
-60
-29
18
50
42
-1
-44
-63
-53
-48
-70
-88
-99
-117
-88
-53
-89
-51
131
268
404
593
416
-165
-462
-289
-143
-169
-172
-151
-154
-154
-147
-125
-100
-111
-123
-92
-58
-47
-33
-12
10
52
115
176
241
314
361
377
380
355
279
190
107
2
-102
-149
-161
-180
-192
-195
-206
-199
-158
-126
-132
-142
-127
-102
-83
-73
-88
-105
-56
41
80
43
15
18
4
-23
-28
-16
-13
-41
-54
-6
6
-42
37
234
386
574
682
311
-264
-372
-141
-82
-148
-124
-83
-101
-126
-113
-81
-76
-87
-74
-52
-47
-34
-8
10
34
74
116
167
237
300
336
354
360
334
261
163
75
6
-46
-85
-109
-121
-124
-133
-137
-126
-113
-106
-88
-69
-81
-95
-66
-45
-89
-122
-67
1
14
5
-26
-82
-99
-74
-80
-105
-100
-95
-92
-51
-60
-123
-47
131
239
424
609
318
-246
-386
-186
-132
-168
-139
-146
-175
-144
-118
-124
-118
-102
-83
-50
-28
-22
-7
15
34
63
110
158
207
261
302
318
315
295
248
178
109
50
-10
-54
-61
-54
-64
-72
-56
-39
-44
-50
-41
-37
-52
-57
-32
-24
-54
-65
-11
48
47
15
3
-3
-35
-72
-83
-69
-62
-80
-79
-49
-79
-131
-58
71
189
439
618
297
-235
-369
-214
-166
-203
-192
-162
-141
-135
-135
-115
-99
-112
-110
-81
-67
-62
-48
-30
2
44
75
111
175
240
275
291
298
284
239
168
96
37
-7
-26
-30
-46
-70
-68
-54
-60
-70
-66
-67
-84
-104
-120
-123
-96
-64
-74
-94
-60
4
12
-28
-51
-50
-51
-56
-63
-53
-21
-3
7
32
24
18
118
254
362
498
461
81
-228
-139
18
20
28
