# session 169
-13
-41
-53
-77
-111
-132
-161
-212
-263
-304
-339
-356
-341
-292
-215
-116
9
141
246
322
381
391
358
336
324
292
257
233
210
197
191
171
149
146
154
154
147
146
152
154
148
143
144
146
144
139
129
117
111
105
95
86
82
75
59
45
35
23
9
6
9
-1
-20
-30
-33
-39
-39
-36
-51
-75
-87
-83
-69
-63
-86
-97
-46
18
24
-3
-23
-42
-57
-59
-61
-57
-48
-63
-76
-58
-76
-96
3
140
284
593
777
368
-235
-360
-204
-194
-237
-211
-202
-214
-211
-219
-225
-207
-191
-195
-198
-185
-164
-148
-127
-91
-61
-44
-13
38
95
150
191
205
199
185
164
127
69
7
-45
-85
-115
-137
-153
-153
-144
-141
-125
-87
-41
37
136
227
398
670
859
993
1237
1297
817
133
-230
-295
-308
-332
-361
-391
-405
-408
-415
-423
-421
-415
-424
-447
-471
-491
-509
-517
-516
-499
-451
-377
-292
-183
-54
59
141
201
219
175
119
103
95
66
48
54
54
50
59
70
67
59
59
58
51
51
61
66
62
57
53
45
39
37
32
25
27
34
31
23
22
25
24
32
45
51
56
69
79
76
73
79
84
67
40
33
50
64
56
45
74
118
118
88
72
57
44
57
64
46
38
31
17
33
33
2
46
148
270
514
652
303
-202
-294
-147
-132
-163
-135
-135
-148
-129
-125
-140
-131
-118
-126
-135
-130
-125
-125
-117
-95
-65
-37
-5
44
101
143
175
209
237
241
227
208
178
135
88
47
12
-10
-23
-32
-35
-29
-9
47
117
202
393
664
856
1002
1138
971
411
-126
-363
-436
-448
-399
-364
-388
-420
-437
-453
-462
-462
-470
-486
-501
-517
-535
-548
-555
-544
-506
-447
-360
-249
-149
-58
39
97
90
69
62
43
4
-41
-62
-52
-42
-40
-22
-7
-9
5
32
37
30
40
60
69
67
71
86
90
81
73
68
63
70
96
128
145
147
144
137
118
99
90
82
71
59
42
30
30
29
27
25
17
8
13
31
41
34
32
66
109
109
78
50
31
28
37
32
22
27
17
10
26
4
-16
72
190
329
622
754
326
-207
-258
-93
-99
-141
-113
-118
-139
-128
-123
-129
-119
-104
-102
-105
-98
-75
-53
-48
-36
13
67
86
115
175
199
189
232
300
302
259
225
178
110
48
-14
-72
-104
-122
-142
-145
-139
-145
-133
-98
-76
-36
61
161
294
542
758
848
1028
1221
976
357
-95
-254
-336
-385
-389
-408
-428
-421
-426
-441
-440
-448
-472
-490
-511
-545
-571
-598
-632
-645
-620
-568
-487
-378
-251
-123
-6
90
147
140
96
64
40
-3
-42
-56
-56
-45
-27
-22
-33
-40
-27
-10
-3
6
16
13
11
30
44
42
53
80
95
100
106
117
136
143
119
100
111
110
91
90
97
83
51
7
-23
1
43
35
7
38
115
154
130
96
88
88
74
57
64
85
69
40
67
73
24
88
265
386
543
695
434
-115
-294
-103
-41
-123
-118
-77
-88
-103
-105
-93
-68
-62
-68
-47
-28
-37
-13
50
66
45
81
154
172
149
161
196
209
206
204
188
144
94
44
-35
-113
-135
-135
-161
-175
-166
-159
-143
-95
-11
93
212
406
668
894
1159
1505
1517
933
220
-175
-347
-440
-453
-447
-467
-484
-495
-496
-482
-481
-488
-488
-512
-564
-590
-591
-613
-645
-642
-600
-529
-428
-301
-158
-21
92
174
207
185
144
109
69
31
11
1
-11
-22
-35
-46
-46
-39
-42
-53
-50
-38
-32
-21
-14
-44
-72
-40
3
-3
-16
3
22
26
42
62
53
32
31
33
17
-2
-13
-34
-71
-91
-73
-48
-48
-47
0
69
101
92
84
83
70
56
51
51
65
67
45
57
85
47
56
195
330
520
822
768
192
-215
-125
-8
-75
-104
-70
-68
-76
-73
-68
-64
-67
-62
-31
-14
-25
-6
53
84
86
119
172
207
249
302
326
329
325
283
212
157
110
58
10
-42
-90
-99
-92
-115
-147
-143
-117
-109
-114
-110
-106
-114
-123
-117
-102
-92
-86
-62
5
100
166
214
337
504
586
693
1016
1296
1110
562
58
-249
-381
-380
-372
-423
-442
-410
-411
-438
-434
-421
-442
-470
-482
-495
-517
-540
-560
-568
-557
-545
-521
-452
-348
-239
-124
-19
47
88
118
117
86
56
34
10
-14
-21
-17
-26
-37
-27
-15
-11
10
35
42
55
78
64
21
8
35
61
63
51
47
48
40
32
45
65
71
75
100
133
135
108
80
62
51
41
25
8
14
29
12
-5
17
7
-30
32
134
212
425
602
315
-181
-293
-141
-120
-163
-130
-108
-123
-123
-112
-98
-84
-83
-85
-69
-44
-19
3
26
57
94
135
171
204
256
320
362
384
405
403
375
333
269
192
140
112
90
70
46
27
28
34
22
1
-1
29
75
103
110
184
411
656
776
959
1255
1184
541
-142
-429
-463
-464
-462
-452
-442
-430
-426
-423
-413
-411
-420
-425
-433
-456
-477
-479
-477
-488
-487
-453
-395
-316
-208
-99
-14
56
105
103
66
27
-11
-46
-60
-56
-60
-71
-70
-68
-69
-67
-69
-74
-70
-60
-55
-54
-69
-84
-75
-63
-75
-81
-71
-78
-87
-62
-39
-55
-65
-42
-31
-40
-31
-13
-15
-19
-14
-11
-12
-11
-12
-7
8
11
1
15
68
107
96
69
60
57
50
44
45
57
53
34
55
69
13
33
192
321
505
814
749
147
-262
-162
-52
-117
-120
-81
-103
-113
-91
-88
-97
-101
-98
-78
-55
-54
-59
-37
-2
18
44
93
142
182
230
275
304
330
348
340
308
253
185
135
97
42
-9
-23
-16
-9
-4
9
72
176
296
494
757
993
1298
1635
1531
819
47
-335
-414
-377
-326
-335
-383
-412
-430
-458
-482
-492
-488
-488
-518
-571
-608
-613
-609
-610
-590
-529
-443
-360
-275
-167
-59
5
20
7
-8
-10
-5
-17
-34
-30
-22
-23
-11
14
26
12
-4
-4
3
7
4
-10
-25
-24
-17
-15
-20
-30
-32
-23
-22
-34
-37
-30
-27
-22
-18
-30
-45
-33
-14
-24
-47
-48
-32
-18
-23
-37
-44
-53
-65
-69
-75
-71
-51
-53
-63
-18
39
43
36
34
7
-12
5
18
25
35
21
19
51
44
34
119
233
371
582
565
137
-234
-195
-54
-70
-105
-76
-58
-70
-79
-74
-68
-66
-58
-41
-29
-25
-18
-3
27
59
76
95
142
199
233
254
281
304
309
303
289
265
229
176
116
68
35
13
6
-5
-34
-37
-10
14
63
144
221
371
628
855
1051
1296
1316
834
154
-264
-371
-343
-315
-344
-390
-408
-419
-436
-435
-431
-447
-474
-487
-492
-513
-536
-542
-542
-537
-501
-434
-353
-256
-158
-78
-4
55
70
55
36
13
-16
-40
-50
-42
-35
-41
-40
-25
-16
-25
-33
-26
-15
-16
-19
-15
-21
-23
24
88
88
53
72
115
113
88
74
58
49
52
38
18
27
38
28
13
4
5
19
23
7
-1
-3
-30
-54
-36
-12
-28
-57
-39
33
85
64
14
4
20
12
-14
-14
12
13
-2
7
-11
-31
66
198
320
624
854
471
-167
-300
-104
-94
-167
-137
-121
-142
-135
-129
-134
-116
-97
-98
-98
-88
-74
-47
-20
-7
12
50
89
128
175
216
253
293
308
290
274
261
221
158
96
45
3
-36
-64
-71
-77
-93
-92
-83
-91
-96
-91
-98
-101
-96
-116
-139
-120
-96
-115
-130
-83
-8
14
-21
-55
-71
-90
-97
-86
-81
-76
-71
-88
-84
-53
-84
-110
-7
137
359
738
800
238
-279
-257
-123
-173
-192
-139
-132
-133
-122
-131
-132
-107
-97
-105
-100
-80
-62
-51
-33
-3
32
64
103
148
189
226
257
272
264
237
194
142
83
26
-14
-38
-55
-66
-78
-93
-91
-74
-77
-96
-95
-83
-88
-99
-94
-90
-109
-122
-105
-98
-126
-122
-42
31
26
-10
-33
-51
-57
-48
-49
-53
-39
-43
-64
-38
-16
-59
-44
76
236
569
966
834
174
-230
-162
-95
-151
-147
-120
-134
-132
-116
-123
-129
-118
-110
-104
-98
-91
-70
-36
-15
-2
31
73
100
127
169
208
224
225
223
206
161
111
77
41
-7
-35
-34
-38
-56
-62
-59
-67
-75
-71
-72
-84
-83
-72
-73
-80
-78
-78
-89
-115
-135
-127
-104
-105
-112
-76
-8
28
8
-28
-50
-60
-59
-56
-69
-76
-64
-72
-83
-59
-65
-105
-61
77
299
656
824
431
-127
-263
-149
-151
-184
-149
-139
-152
-138
-136
-148
-130
-111
-120
-117
-83
-56
-53
-46
-25
4
40
79
110
136
166
197
211
202
184
161
129
84
30
-17
-30
-26
-43
-62
-52
-44
-58
-51
-25
2
63
135
218
432
718
891
1092
1370
1266
628
-8
-294
-372
-371
-336
-335
-336
-283
-231
-239
-276
-306
-334
-354
-350
-344
-352
-361
-366
-373
-362
-325
-282
-234
-167
-92
-26
31
71
78
62
39
11
-11
-19
-33
-34
5
56
177
412
448
3
-581
-824
-755
-574
-315
-69
24
14
21
45
48
42
48
57
61
74
100
116
126
161
219
276
334
399
456
494
500
456
377
283
182
90
23
-29
-66
-84
-94
-105
-105
-99
-101
-117
-135
-133
-109
-95
-101
-87
-35
6
-5
-43
-65
-67
-72
-85
-90
-86
-90
-88
-79
-86
-81
-59
-84
-111
-43
80
309
666
738
271
-208
-259
-164
-185
-202
-173
-174
-179
-162
-160
-166
-156
-147
-148
-137
-114
-93
-77
-61
-34
6
38
53
74
104
122
122
114
103
91
80
58
24
-6
-26
-42
-46
-50
-65
-64
-40
-18
22
89
147
284
572
834
1016
1314
1498
1104
358
-148
-327
-369
-329
-274
-291
-340
-368
-382
-390
-392
-392
-392
-397
-411
-431
-448
-458
-461
-453
-431
-389
-309
-200
-105
-9
107
202
347
610
792
899
1239
1508
1067
250
-185
-266
-319
-333
-309
-320
-331
-324
-327
-328
-331
-353
-376
-386
-395
-412
-425
-419
-389
-342
-280
-206
-126
-47
18
48
51
49
48
42
46
66
102
178
294
441
648
874
1018
1076
928
327
-485
-938
-990
-925
-737
-437
-239
-163
-84
-36
-60
-94
-120
-155
-182
-190
-192
-185
-157
-102
-12
105
231
350
448
510
528
499
432
339
241
154
86
24
-32
-59
-60
-61
-65
-64
-60
-54
-40
-3
76
168
260
437
720
1004
1297
1624
1710
1263
490
-127
-397
-455
-457
-461
-470
-467
-458
-456
-463
-467
-468
-475
-494
-518
-538
-557
-575
-577
-557
-518
-458
-371
-265
-160
-73
0
60
95
95
65
48
76
110
89
37
7
-6
-27
-37
-23
-19
-29
-31
-33
-41
-35
-37
-52
-37
-43
-88
-54
50
177
418
549
222
-217
-249
-98
-100
-128
-93
-88
-97
-82
-78
-79
-70
-62
-57
-49
-40
-20
8
30
52
84
118
149
180
203
214
216
207
183
138
83
39
13
-8
-22
-28
-43
-58
-50
-41
-50
-49
-35
-43
-56
-39
-18
6
74
159
270
529
880
1188
1569
1966
1866
1121
276
-217
-394
-421
-412
-426
-446
-449
-448
-448
-453
-467
-477
-473
-467
-466
-471
-488
-508
-509
-484
-446
-397
-324
-224
-125
-46
20
74
90
69
41
25
18
13
1
-13
-11
2
2
-4
2
3
-5
0
9
5
1
3
0
0
11
17
13
11
11
9
2
0
16
29
20
5
10
18
15
17
24
19
3
-14
-35
-49
-35
-17
-24
-14
49
106
95
52
27
22
27
27
15
17
25
11
11
26
-4
-17
57
169
395
729
726
230
-180
-177
-92
-106
-112
-113
-127
-109
-98
-117
-113
-97
-102
-99
-78
-70
-64
-40
-17
-2
27
63
88
111
133
143
154
164
155
137
132
115
73
35
14
-6
-20
-23
-35
-50
-48
-40
-45
-59
-65
-64
-67
-71
-68
-64
-80
-110
-124
-109
-91
-96
-96
-47
23
36
-7
-44
-56
-65
-68
-68
-77
-78
-65
-64
-58
-43
-66
-93
-37
156
528
841
632
44
-254
-165
-110
-159
-151
-128
-135
-129
-119
-117
-98
-78
-81
-89
-73
-45
-28
-19
3
41
79
112
142
173
198
206
196
186
172
127
64
18
-16
-52
-69
-67
-73
-79
-71
-69
-75
-66
-57
-65
-73
-69
-63
-60
-60
-61
-59
-50
-48
-67
-97
-103
-82
-79
-96
-60
37
94
65
14
-9
-17
-17
-12
-20
-27
-21
-23
-22
2
-11
-56
-17
167
509
864
812
272
-169
-176
-88
-122
-134
-104
-107
-107
-84
-81
-92
-88
-73
-59
-49
-42
-37
-25
1
30
46
65
107
152
174
184
197
201
182
146
112
77
33
-7
-27
-43
-64
-71
-64
-65
-69
-68
-67
-69
-66
-65
-69
-69
-69
-76
-80
-79
-87
-107
-123
-121
-112
-119
-121
-66
20
45
0
-48
-69
-76
-74
-71
-74
-78
-80
-92
-116
-148
-172
-73
297
863
1281
1210
644
14
-263
-257
-247
-271
-267
-262
-259
-238
-222
-218
-210
-201
-189
-167
-150
-146
-145
-150
-168
-189
-203
-213
-213
-196
-170
-143
-104
-55
-20
-12
-20
-30
-40
-49
-51
-52
-56
-52
-46
-41
-20
8
45
117
184
271
510
819
1057
1408
1808
1663
878
113
-255
-381
-402
-383
-384
-354
-259
-195
-215
-262
-288
-303
-316
-324
-329
-335
-341
-349
-349
-334
-308
-277
-223
-137
-40
44
110
162
183
160
120
101
93
81
72
66
56
58
68
69
67
71
69
59
60
71
73
61
