# session 172
-27
-10
7
26
52
94
143
192
243
299
345
369
373
368
358
341
316
272
218
170
124
77
46
27
7
-5
-14
-30
-27
-4
-11
-37
-33
-12
2
6
-11
-16
21
52
46
33
12
-20
-22
11
33
35
45
50
28
24
55
49
38
111
207
310
443
353
-57
-328
-221
-87
-107
-122
-100
-97
-86
-73
-84
-86
-67
-59
-61
-48
-29
-12
13
43
65
87
127
173
207
241
279
298
297
297
283
228
153
87
32
-18
-55
-66
-52
-55
-94
-110
-81
-67
-84
-102
-116
-130
-132
-128
-137
-154
-145
-100
-66
-75
-88
-81
-57
-7
51
97
187
311
361
435
721
994
847
347
-100
-305
-348
-345
-348
-356
-355
-345
-332
-318
-305
-301
-305
-313
-323
-341
-366
-390
-412
-435
-457
-471
-467
-433
-369
-283
-183
-87
-1
88
165
190
163
125
98
83
73
58
37
19
16
23
19
9
26
64
72
44
32
51
61
43
28
49
77
76
72
101
143
157
144
124
118
121
119
113
119
126
112
94
108
104
43
61
206
331
486
698
564
22
-285
-128
26
-1
-26
-20
-24
-16
-16
-23
-21
-33
-39
-24
-30
-33
15
42
22
44
100
119
147
221
279
310
355
380
357
315
259
172
72
-9
-58
-89
-124
-155
-174
-190
-200
-193
-185
-201
-220
-214
-208
-227
-235
-217
-212
-209
-163
-123
-148
-188
-186
-174
-179
-171
-148
-136
-133
-137
-129
-100
-110
-122
-5
161
288
482
537
131
-339
-362
-209
-216
-222
-169
-188
-219
-183
-161
-188
-198
-178
-161
-146
-125
-114
-95
-53
-14
24
79
136
198
282
352
394
420
410
360
295
201
93
22
-12
-40
-61
-71
-88
-102
-91
-72
-72
-80
-72
-69
-88
-91
-58
-35
-38
-25
19
64
89
101
107
109
137
215
289
339
447
607
710
870
1277
1649
1472
798
157
-167
-268
-274
-259
-274
-297
-286
-260
-246
-248
-269
-307
-341
-357
-375
-424
-490
-530
-545
-574
-598
-578
-535
-501
-444
-338
-219
-115
-29
18
25
22
8
-24
-50
-52
-56
-73
-82
-73
-60
-52
-44
-36
-27
-14
2
16
22
25
26
16
-1
1
12
-4
-30
-10
46
69
49
30
10
-24
-28
7
10
-13
1
19
14
22
16
0
81
207
293
441
528
259
-113
-139
20
56
54
86
74
45
48
57
69
74
58
56
81
82
49
25
23
35
55
80
105
132
166
204
240
270
283
275
246
204
155
101
54
27
10
-9
-19
-19
-26
-41
-45
-47
-53
-53
-46
-44
-57
-80
-79
-56
-61
-91
-84
-33
3
-14
-53
-67
-78
-120
-156
-160
-161
-163
-169
-184
-172
-161
-206
-204
-102
-13
158
441
387
-117
-444
-346
-240
-277
-272
-229
-222
-217
-203
-199
-187
-167
-153
-136
-109
-82
-58
-34
-10
17
47
82
117
151
184
211
222
218
209
197
163
96
29
-9
-34
-58
-57
-44
-63
-89
-75
-57
-66
-64
-43
-31
-22
-14
-23
-27
-13
7
43
93
125
181
301
397
445
570
748
843
977
1263
1384
1043
473
52
-149
-226
-242
-250
-271
-285
-294
-308
-317
-328
-357
-390
-413
-436
-460
-478
-491
-498
-496
-501
-507
-472
-399
-327
-241
-124
-17
63
143
214
237
212
178
166
146
96
76
102
95
51
37
36
21
11
1
-14
-14
-8
-15
-18
-13
-15
-18
-13
-18
-40
-58
-74
-94
-104
-102
-112
-127
-121
-106
-112
-116
-81
-28
-9
-27
-49
-64
-66
-52
-43
-40
-21
-14
-27
-3
13
-35
3
153
249
437
768
676
51
-323
-192
-94
-161
-146
-92
-108
-123
-110
-96
-72
-53
-56
-42
2
22
9
4
22
57
113
170
207
252
315
368
407
436
434
409
383
320
220
154
127
77
10
-29
-52
-73
-82
-88
-106
-123
-129
-132
-131
-126
-129
-138
-133
-108
-80
-76
-77
-37
25
38
7
-13
-26
-48
-49
-31
-32
-38
-31
-36
-35
-19
-51
-72
26
135
245
505
623
238
-231
-293
-185
-198
-236
-233
-237
-232
-221
-225
-229
-225
-216
-208
-209
-212
-214
-217
-204
-164
-121
-79
-27
26
76
127
168
183
178
157
116
62
3
-55
-95
-110
-119
-124
-115
-97
-85
-77
-70
-64
-58
-54
-58
-65
-67
-68
-78
-90
-84
-72
-82
-95
-63
5
51
64
76
113
173
262
391
519
620
798
1068
1166
908
461
73
-139
-170
-144
-168
-195
-185
-174
-160
-143
-167
-202
-196
-185
-190
-181
-183
-227
-270
-286
-301
-316
-307
-279
-242
-183
-101
-11
69
130
173
197
196
174
154
151
151
143
137
139
140
130
114
107
107
101
92
85
81
77
66
44
37
59
63
35
24
39
31
-16
-52
-48
-47
-81
-84
-30
2
-29
-63
-77
-86
-85
-83
-101
-109
-111
-160
-196
-152
-141
-181
-111
25
140
368
515
183
-306
-381
-219
-201
-234
-207
-194
-189
-156
-143
-156
-153
-140
-138
-139
-124
-104
-95
-87
-63
-34
-8
26
79
139
186
225
264
287
283
278
270
212
110
37
3
-30
-55
-55
-55
-68
-81
-82
-65
-43
-39
-45
-44
-35
-24
-22
-25
-10
10
8
21
80
128
121
100
98
77
26
2
12
8
-3
-13
-40
-38
-17
-57
-62
64
192
341
571
494
-17
-333
-186
-38
-67
-64
-33
-48
-51
-43
-50
-45
-43
-58
-51
-27
-20
-22
-18
6
40
60
92
159
196
199
246
296
279
264
263
187
68
-3
-44
-93
-135
-164
-177
-176
-183
-194
-191
-185
-179
-158
-111
-42
22
114
312
532
672
878
1122
987
432
-44
-233
-326
-388
-392
-397
-415
-406
-389
-390
-394
-394
-402
-417
-434
-460
-490
-508
-527
-559
-571
-543
-494
-424
-313
-180
-54
63
158
210
222
200
156
129
134
127
104
110
138
135
106
107
146
168
160
157
167
181
192
180
158
157
162
144
122
119
131
150
153
132
114
108
99
87
83
80
69
54
47
48
52
57
62
53
27
16
38
61
57
66
112
147
140
120
102
77
57
46
36
34
28
7
11
40
19
-11
59
154
264
542
724
367
-180
-298
-147
-135
-212
-237
-223
-187
-181
-223
-227
-184
-176
-222
-272
-277
-241
-229
-260
-266
-220
-161
-105
-54
-18
15
61
108
139
145
130
110
91
62
21
-18
-49
-74
-88
-100
-120
-134
-137
-137
-131
-124
-124
-122
-119
-128
-134
-114
-90
-83
-88
-98
-97
-53
10
18
-21
-38
-27
-28
-30
-21
-16
-7
3
-3
1
6
-24
0
115
232
392
552
382
-51
-212
-47
45
11
16
41
41
38
26
11
11
8
-6
-13
-19
-28
-24
-6
15
41
81
127
176
230
279
311
329
338
326
290
242
181
104
36
-6
-32
-49
-54
-63
-81
-86
-77
-82
-106
-119
-105
-75
-35
31
98
167
349
625
807
989
1351
1513
1044
278
-218
-405
-470
-472
-462
-476
-470
-446
-449
-463
-452
-445
-465
-484
-499
-524
-548
-565
-586
-588
-555
-516
-469
-380
-259
-143
-34
73
150
183
178
147
107
74
51
32
14
-1
-10
-19
-24
-21
-14
-16
-23
-19
5
30
20
-1
14
36
28
31
57
59
36
33
50
53
50
62
69
59
55
58
46
29
26
27
33
46
50
68
130
184
175
133
96
61
40
32
13
-5
-7
-27
-38
-14
-27
-46
55
199
338
589
682
270
-206
-214
-42
-53
-92
-56
-49
-64
-54
-39
-36
-42
-48
-43
-33
-29
-39
-44
-15
25
31
31
54
85
123
172
192
176
178
208
212
164
93
34
-6
-40
-75
-116
-156
-176
-167
-154
-126
-55
32
155
393
636
771
939
1094
876
308
-159
-346
-376
-339
-313
-346
-377
-380
-392
-401
-397
-418
-453
-467
-483
-519
-546
-555
-572
-584
-558
-495
-410
-294
-158
-50
24
95
143
146
150
157
123
86
112
152
149
134
134
152
178
162
112
113
148
142
123
130
122
110
138
159
133
118
128
112
83
82
87
84
94
100
67
30
49
79
39
-9
36
89
53
23
62
72
21
-5
23
46
42
49
72
53
-4
-27
-26
-47
-55
-29
-18
-40
-62
-51
-10
-24
-100
-66
97
244
448
665
475
-83
-376
-260
-152
-178
-195
-194
-204
-204
-205
-214
-207
-193
-201
-213
-189
-142
-110
-85
-50
-19
3
34
75
112
142
171
193
200
197
185
164
138
117
97
69
41
24
13
0
-9
-15
-22
-25
-22
-27
-37
-35
-41
-69
-81
-71
-75
-84
-67
-32
-13
-28
-68
-100
-97
-77
-76
-92
-89
-70
-79
-103
-78
-37
-70
-102
-16
119
276
471
412
-23
-340
-244
-83
-81
-95
-74
-59
-35
-16
-24
-29
-21
-25
-31
-19
-6
-9
-1
37
66
71
97
147
186
244
327
363
357
373
377
307
203
117
53
10
-18
-53
-77
-76
-80
-94
-74
-40
-44
-60
-56
-70
-104
-112
-98
-90
-78
-51
-21
-10
-41
-84
-91
-86
-96
-93
-89
-102
-103
-102
-107
-93
-103
-122
-31
113
233
425
470
57
-400
-386
-186
-181
-231
-201
-175
-180
-173
-149
-131
-137
-134
-95
-65
-62
-54
-32
2
56
98
101
118
180
236
259
297
354
360
289
207
154
103
44
-6
-46
-72
-62
-25
-15
-41
-55
-33
-13
-13
-10
-17
-41
-30
5
-12
-56
-44
-2
4
-17
-29
-39
-58
-70
-76
-85
-84
-76
-90
-88
-47
-52
-79
10
141
256
497
630
265
-219
-258
-87
-80
-109
-68
-54
-62
-45
-31
-23
-6
6
7
10
9
8
27
57
59
56
94
145
168
196
245
270
272
280
267
217
165
109
27
-36
-54
-71
-96
-103
-106
-137
-173
-179
-167
-182
-223
-247
-242
-227
-213
-213
-207
-155
-89
-89
-132
-146
-143
-155
-155
-141
-138
-130
-110
-109
-100
-65
-65
-59
39
148
257
463
513
162
-198
-191
-67
-70
-88
-69
-74
-84
-84
-89
-87
-84
-97
-100
-81
-74
-83
-66
-27
-3
23
72
109
137
201
268
283
290
322
324
274
220
175
125
83
66
65
67
73
87
98
88
67
52
36
4
-28
-47
-63
-66
-44
-34
-53
-49
-6
12
-16
-42
-54
-69
-74
-61
-54
-48
-20
-2
-3
15
17
-3
63
177
254
413
555
322
-112
-232
-97
-56
-91
-77
-60
-67
-75
-81
-70
-58
-69
-78
-60
-49
-61
-64
-41
-12
5
5
6
28
63
86
101
128
148
135
100
57
-4
-84
-151
-182
-185
-168
-139
-119
-115
-118
-122
-136
-162
-186
-194
-188
-186
-192
-185
-150
-115
-97
-68
-9
32
15
-20
-34
-41
-53
-57
-61
-67
-67
-84
-103
-89
-101
-139
-68
83
204
390
509
193
-305
-398
-200
-140
-174
-141
-111
-115
-106
-91
-80
-67
-64
-63
-48
-17
22
49
57
71
111
164
213
262
314
369
424
463
466
446
410
335
237
165
114
63
29
8
-23
-49
-58
-66
-75
-72
-68
-67
-54
-40
-39
-40
-26
12
80
164
283
487
719
826
785
663
485
394
511
527
160
-235
-294
-233
-267
-285
-255
-264
-284
-284
-297
-305
-286
-278
-294
-304
-301
-299
-300
-293
-271
-253
-251
-245
-231
-223
-210
-180
-153
-127
-93
-69
-69
-75
-76
-86
-96
-94
-92
-96
-93
-81
-73
-68
-61
-53
-43
-32
-22
-17
-17
-18
-18
-23
-35
-43
-50
-65
-77
-82
-87
-85
-77
-87
-116
-124
-105
-91
-74
-32
15
36
28
13
12
18
14
7
21
37
19
8
56
74
25
73
216
307
457
640
448
-33
-196
-29
34
-17
-14
-9
-26
-16
-10
-30
-45
-55
-62
-60
-51
-39
-24
-9
7
28
59
99
145
199
257
304
339
375
396
377
339
305
259
199
143
93
55
42
35
21
14
12
-1
-4
25
53
79
130
170
234
444
714
897
1140
1416
1270
615
-17
-301
-395
-444
-449
-445
-462
-468
-458
-471
-502
-524
-540
-560
-572
-581
-596
-603
-600
-589
-563
-519
-462
-388
-292
-186
-91
-19
24
36
30
15
-2
-9
-10
-12
-16
-17
-17
-18
-24
-38
-50
-55
-62
-71
-72
-74
-88
-99
-89
-73
-68
-68
-65
-58
-46
-34
-30
-22
-4
4
2
14
29
28
31
46
41
16
2
9
29
48
44
30
52
103
124
97
53
22
16
15
-2
-7
7
-2
-9
18
13
-3
87
230
383
620
664
229
-233
-229
-47
-36
-60
-30
-33
-49
-33
-26
-35
-32
-24
-25
-24
-9
16
31
30
44
92
133
149
180
239
293
329
343
341
349
349
297
234
203
157
78
22
-2
-22
-24
-6
18
81
184
272
409
678
941
1133
1382
1467
980
174
-319
-396
-356
-345
-360
-400
-443
-460
-464
-479
-499
-509
-523
-554
-588
-613
-636
-659
-664
-651
-619
-551
-446
-324
-197
-73
29
95
125
121
98
75
45
9
-8
5
19
10
-10
-4
15
2
-22
-25
-19
-10
-4
-28
-54
-46
-41
-55
-46
-32
-46
-49
-31
-28
-26
-4
5
-15
-25
-11
1
3
1
-4
-9
-9
-8
-15
-30
-41
-38
-32
-46
-61
-39
6
21
1
-22
-33
-34
-24
-12
3
29
44
45
60
58
30
85
219
353
597
833
592
5
-248
-116
-36
-57
-48
-57
-82
-71
-61
-60
-40
-34
-64
-88
-77
-44
-22
-22
-23
-12
-5
14
65
110
131
165
201
200
186
172
130
74
36
10
-11
-23
-31
-51
-79
-93
-83
-68
-57
-32
18
