# session 185
12
66
121
159
158
121
82
63
45
31
61
107
107
83
77
69
55
55
57
47
35
25
12
2
1
2
3
8
15
21
25
25
26
35
41
34
29
28
18
15
28
24
9
21
42
40
26
18
13
9
13
21
19
7
-1
-11
-30
-43
-40
-30
-28
-27
10
45
13
-36
-39
-50
-103
-134
-121
-98
-74
-64
-63
-46
-51
-84
-42
48
110
246
362
130
-271
-355
-206
-170
-203
-185
-179
-187
-169
-163
-169
-145
-109
-95
-96
-102
-92
-50
-15
-6
21
63
78
91
148
193
174
183
257
244
166
211
214
64
114
154
-163
-17
422
-615
-2147
-1456
260
426
-66
98
211
40
72
159
198
394
627
762
892
917
735
636
762
680
211
-158
-183
-164
-227
-240
-215
-222
-241
-251
-248
-233
-232
-244
-228
-186
-174
-195
-181
-127
-102
-101
-76
-39
-14
-10
-50
-86
-49
1
-13
-37
-25
-36
-80
-102
-105
-127
-153
-155
-142
-132
-126
-124
-125
-119
-103
-95
-87
-56
-15
31
108
199
305
475
651
760
939
1252
1367
1008
412
-39
-247
-311
-315
-310
-316
-322
-316
-296
-283
-294
-316
-332
-350
-371
-397
-425
-436
-437
-459
-459
-390
-320
-308
-288
-206
-102
-13
71
149
200
225
233
213
171
147
155
161
142
111
89
72
55
45
41
33
22
16
17
26
41
52
61
73
86
98
110
118
119
116
117
119
112
99
91
86
80
83
87
80
80
86
77
62
57
56
54
49
34
23
28
29
1
-35
-23
15
0
-43
-32
-5
-22
-53
-67
-77
-84
-80
-79
-94
-114
-113
-95
-91
-95
-69
-31
-35
-70
-88
-95
-108
-109
-99
-91
-81
-78
-71
-49
-54
-67
7
117
215
384
452
142
-250
-284
-140
-128
-157
-130
-129
-145
-125
-113
-122
-107
-86
-103
-119
-91
-52
-33
-27
-26
-17
19
68
103
129
162
193
221
251
274
280
259
207
160
141
106
40
-9
-26
-46
-70
-72
-61
-56
-55
-56
-54
-45
-32
-18
1
17
13
-3
-12
-9
1
1
-8
6
45
55
20
-16
-31
-32
-25
-14
-17
-29
-30
-30
-33
-20
-23
-55
-13
100
203
396
596
393
-112
-315
-165
-71
-92
-99
-117
-137
-117
-104
-127
-153
-151
-124
-116
-147
-158
-129
-121
-122
-69
-10
-11
2
87
163
185
207
239
257
265
237
143
33
-41
-81
-102
-123
-140
-125
-92
-58
18
115
208
401
663
842
1061
1362
1279
636
-17
-301
-382
-411
-404
-400
-383
-338
-334
-369
-390
-411
-437
-437
-439
-474
-507
-515
-515
-513
-503
-479
-432
-363
-262
-137
-38
21
75
119
120
97
82
69
52
43
47
55
60
69
88
114
142
163
169
165
160
150
134
122
110
92
71
56
48
43
38
39
46
54
62
77
95
103
98
92
96
104
102
86
72
73
74
65
55
57
63
68
72
59
28
9
14
27
25
6
9
64
124
128
82
35
18
24
20
2
-2
-4
-23
-31
-26
-68
-111
-52
54
166
346
387
48
-319
-311
-158
-146
-170
-150
-154
-163
-155
-165
-177
-166
-162
-164
-147
-127
-124
-114
-85
-54
-18
24
49
68
113
158
185
221
242
222
216
227
200
141
83
46
27
-30
-64
-9
-56
-133
21
-40
-320
107
350
-1076
-2135
-822
554
252
-89
193
185
41
128
132
75
148
195
153
129
125
114
109
107
113
120
114
105
98
102
108
80
78
169
285
453
689
632
142
-213
-128
-37
-133
-139
-43
-47
-91
-55
-15
-10
14
-1
-32
30
12
-93
74
166
-127
139
566
-720
-2292
-1327
494
540
53
314
437
256
285
286
143
93
73
5
-10
-5
-40
-66
-72
-85
-83
-59
-53
-59
-35
-12
-46
-82
-67
-67
-114
-116
-65
-63
-54
25
5
-83
-33
-70
-183
18
-2
-348
222
462
-1952
-3994
-2029
670
664
105
534
751
729
795
409
-39
69
249
186
179
226
203
199
193
143
153
204
186
146
166
190
166
130
119
140
180
199
189
206
240
239
290
405
408
363
383
297
252
332
14
-184
423
-197
-2882
-3758
-1302
509
82
-184
203
169
35
171
229
220
291
340
379
537
792
974
1073
1288
1504
1295
692
180
-49
-139
-169
-154
-151
-177
-190
-174
-184
-226
-232
-227
-271
-299
-294
-328
-354
-376
-469
-464
-363
-447
-408
-120
-285
-321
549
156
-2201
-2617
-176
1076
344
157
491
310
173
293
237
150
196
194
147
153
169
157
144
150
161
153
138
128
120
123
145
143
102
83
96
83
46
43
55
46
38
26
8
51
65
-38
19
149
-105
-99
417
-686
-3626
-4390
-1702
494
373
44
302
309
201
288
303
263
303
296
259
277
250
212
303
406
475
668
746
385
-25
-28
131
154
120
119
132
131
104
109
133
86
38
70
65
21
93
151
46
67
200
75
84
369
105
-16
818
119
-2659
-2988
-112
1263
420
237
574
312
137
247
172
104
165
134
74
90
96
72
69
77
76
88
152
294
513
740
907
1010
982
774
664
801
709
160
-246
-232
-216
-241
-139
-195
-299
-131
-243
-468
112
-164
-2853
-4469
-2303
116
56
-405
-75
18
-101
33
126
106
125
117
98
127
128
95
86
92
98
91
49
13
31
61
60
50
43
27
26
50
58
49
57
69
67
54
29
19
44
50
19
35
100
111
82
93
107
72
31
19
11
10
25
32
31
48
56
32
29
48
31
2
13
36
60
97
83
30
38
41
-32
-48
15
11
-21
-5
-6
14
57
35
96
281
414
687
965
489
-227
-91
36
-300
240
312
-2255
-4116
-1999
520
369
-183
181
238
41
152
201
130
175
197
155
184
235
248
282
337
358
353
380
423
410
351
320
305
243
166
122
87
55
43
32
14
2
-26
-59
-33
32
62
99
197
347
554
756
867
994
1105
861
306
-60
-138
-209
-284
-268
-256
-282
-270
-256
-275
-267
-248
-293
-344
-315
-284
-339
-398
-404
-432
-495
-504
-450
-398
-348
-270
-189
-95
65
178
156
172
168
-4
83
301
-90
-134
615
-743
-4234
-4534
-917
1146
425
111
501
367
226
368
345
292
356
335
284
296
276
237
244
236
213
237
241
167
138
194
184
90
77
133
116
68
93
114
66
30
44
60
67
64
49
80
152
163
107
70
67
77
93
86
67
57
34
20
32
17
33
155
283
437
669
615
123
-239
-177
-87
-108
-41
6
-95
-158
-115
-99
-103
-85
-111
-146
-113
-99
-138
-128
-100
-86
-1
43
-2
96
167
51
220
365
-49
364
1977
2138
405
-439
-27
-56
-357
-268
-220
-312
-255
-184
-217
-235
-218
-213
-200
-181
-196
-220
-215
-221
-248
-224
-192
-229
-239
-157
-119
-193
-256
-239
-214
-220
-218
-207
-208
-194
-180
-180
-130
-74
-98
-86
37
170
374
616
465
-85
-377
-225
-101
-159
-183
-140
-121
-120
-115
-102
-87
-89
-82
-47
-19
-7
2
3
14
29
0
6
138
267
272
267
324
341
312
325
333
290
272
186
16
71
146
-146
-23
871
1065
161
-308
-60
-50
-203
-146
-136
-201
-153
-109
-133
-119
-89
-87
-65
-19
-2
-37
-99
-122
-89
-77
-109
-117
-94
-84
-86
-80
-51
-38
-68
-34
91
215
451
719
490
-156
-420
-217
-149
-269
-257
-175
-190
-228
-212
-193
-197
-188
-166
-161
-162
-138
-97
-61
-30
3
40
91
141
174
212
264
302
325
343
324
277
254
210
100
19
21
20
-8
-31
-63
-85
-61
-35
-38
-33
-28
-43
-25
8
-23
-68
-52
-18
0
28
64
90
80
9
-66
-85
-101
-146
-146
-95
-71
-74
-68
-63
-42
-8
-27
-32
62
152
295
607
655
137
-314
-241
-102
-157
-153
-96
-135
-183
-170
-141
-125
-133
-140
-121
-107
-96
-70
-58
-64
-50
-17
24
81
148
200
232
258
288
311
307
272
216
147
77
24
-17
-55
-81
-86
-83
-86
-92
-92
-89
-93
-99
-95
-89
-92
-101
-113
-111
-73
-62
-127
-163
-83
6
8
-28
-50
-64
-88
-122
-127
-104
-103
-121
-125
-121
-96
-71
-81
-43
93
227
406
655
592
82
-315
-281
-164
-177
-183
-148
-130
-123
-124
-126
-109
-97
-106
-111
-92
-67
-64
-67
-42
-10
-3
13
72
138
175
189
214
273
328
313
256
234
223
164
93
53
20
-4
-3
-23
-75
-80
-41
-39
-64
-57
-43
-60
-76
-58
-12
52
139
276
467
636
742
812
773
627
597
634
378
-71
-267
-216
-201
-228
-216
-210
-226
-228
-219
-222
-242
-257
-259
-262
-269
-268
-266
-274
-285
-286
-278
-275
-267
-238
-221
-215
-168
-99
-78
-84
-60
-18
-4
-14
-24
-39
-47
-28
-34
-83
-83
-25
-12
-41
-37
-23
-40
-63
-68
-62
-55
-55
-54
-44
-40
-47
-45
-35
-27
-13
-9
-21
-3
20
-5
-12
35
43
13
35
65
43
33
45
17
-10
32
73
29
-15
40
111
84
27
28
37
13
4
14
9
-4
-12
-1
58
115
106
119
209
311
482
686
553
66
-220
-129
-41
-87
-105
-91
-101
-108
-109
-108
-94
-81
-78
-69
-54
-44
-35
-24
-6
10
15
26
71
111
107
110
169
221
224
234
256
228
174
147
101
23
-2
6
-44
-99
-86
-61
-77
-106
-79
27
115
169
341
577
709
846
951
654
56
-301
-341
-345
-346
-295
-284
-334
-375
-392
-398
-392
-395
-405
-408
-413
-423
-429
-443
-455
-449
-445
-437
-387
-293
-184
-79
14
94
156
196
215
195
144
111
99
74
69
105
107
46
15
50
73
53
41
42
28
26
67
102
96
92
118
146
146
122
100
95
94
84
71
66
67
61
47
45
60
63
54
58
65
59
54
58
50
37
39
35
15
13
17
-21
-60
-38
-11
-46
-76
-27
39
58
45
1
-63
-62
-11
-18
-61
-54
-48
-66
-44
-34
-65
-11
121
268
494
588
223
-267
-348
-185
-149
-179
-157
-148
-160
-150
-143
-153
-161
-156
-143
-133
-125
-114
-100
-81
-50
-21
0
24
53
90
132
153
172
224
266
253
232
230
200
148
127
115
56
-27
-65
-57
-59
-81
-91
-85
-77
-64
-57
-56
-44
-21
-5
-4
-12
-24
-30
-27
-40
-61
-35
24
15
-62
-104
-100
-102
-90
-60
-68
-95
-69
-22
5
33
28
-3
60
195
346
612
757
355
-243
-362
-155
-96
-146
-161
-173
-152
-102
-105
-131
-124
-121
-132
-118
-91
-88
-109
-111
-79
-59
-57
-18
54
102
131
170
203
208
196
174
134
71
-4
-71
-116
-143
-162
-178
-186
-181
-179
-180
-173
-161
-154
-140
-112
-58
41
145
239
427
691
871
1068
1415
1520
1016
294
-119
-245
-290
-298
-295
-314
-314
-285
-289
-336
-360
-335
-310
-316
-349
-392
-417
-425
-456
-484
-446
-379
-334
-258
-124
1
99
198
273
297
284
252
206
158
115
82
68
67
65
60
66
80
83
78
80
86
86
84
75
55
38
28
15
8
15
7
-29
-52
-31
-8
-22
-46
-41
-19
-26
-62
-78
-69
-66
-69
-70
-85
-110
-124
-126
-118
-95
-77
-74
-59
-26
-15
-40
-71
-89
-96
-91
-83
-85
-81
-74
-73
-68
-82
-115
-65
52
143
338
595
454
-70
-326
-189
-103
-140
-114
-84
-115
-123
-97
-97
-99
-62
-28
-42
-61
-37
-6
4
16
28
36
74
138
174
181
206
248
281
297
300
289
265
228
185
159
144
111
64
35
21
5
-17
-28
15
100
183
331
574
786
993
1254
1225
679
63
-199
-249
-281
-270
-224
-214
-244
-290
-326
-341
-357
-384
-400
-418
-457
-494
-520
-550
-559
-542
-541
-538
-468
-351
-252
-173
-83
8
65
56
17
32
81
56
-29
-67
-46
-29
-34
-40
-44
-48
-46
-37
-33
-35
-27
-15
-13
-18
-12
-3
-12
-28
-25
-11
-5
-5
-3
4
16
32
74
180
340
495
635
810
959
921
730
616
588
418
91
-159
-242
-259
-272
-270
-248
-220
-206
-213
-200
-152
-124
-143
-160
-164
-186
-213
-225
-253
-300
-332
-352
-367
-365
-351
-328
-276
-200
-130
-61
13
70
109
145
163
165
178
196
185
167
166
164
154
151
134
92
72
96
120
99
52
32
41
53
80
105
91
90
98
43
48
101
11
23
165
-77
-116
476
-182
-2237
-2360
-260
669
89
24
312
206
157
258
225
195
221
191
168
169
129
98
125
148
117
92
147
223
207
138
127
151
138
117
135
154
114
46
67
126
66
22
161
319
493
764
705
182
-197
-201
-40
80
-164
-236
382
-222
-2843
-3792
-1372
673
443
117
419
375
210
309
328
258
287
323
331
366
396
417
451
479
496
499
468
425
395
326
210
142
142
88
-25
-71
-63
-106
-143
-102
-92
-130
-92
-76
-152
-118
-87
-235
-148
-8
-357
-208
399
-1008
-3445
-2775
-49
618
-151
-83
148
-66
-65
69
29
7
25
-4
-36
-39
39
164
286
514
638
265
-253
-301
-96
-87
-133
-60
-37
-95
-80
-30
-55
-68
-23
-26
-78
-76
-29
-13
-47
-57
-14
-9
32
156
138
167
440
308
102
792
419
-2468
-3888
-1370
976
663
185
515
475
283
381
374
313
408
444
425
520
626
726
954
1188
1328
1605
1919
1717
1002
417
230
194
156
125
97
68
