# session 142
-33
-51
-49
-39
-11
37
59
70
147
257
298
334
467
583
638
827
1077
990
533
78
-186
-316
-357
-358
-368
-373
-364
-367
-380
-386
-396
-421
-445
-460
-479
-499
-500
-482
-451
-389
-288
-168
-52
49
120
147
147
141
100
4
-85
-112
-106
-101
-98
-102
-102
-81
-55
-51
-64
-83
-98
-90
-68
-63
-73
-61
-13
20
2
-26
-16
-4
-11
-1
14
17
44
53
21
79
219
333
545
742
464
-90
-237
-40
19
-30
-3
26
24
31
37
44
59
63
69
93
109
108
126
173
228
286
348
393
422
440
422
363
294
217
125
43
-3
-12
-13
-37
-64
-52
-30
-46
-56
-1
72
85
50
6
-37
-66
-59
-41
-54
-70
-50
-53
-76
8
166
269
343
314
26
-293
-323
-194
-135
-128
-125
-129
-118
-108
-117
-117
-109
-111
-110
-106
-111
-95
-42
20
77
134
183
207
202
177
129
54
-27
-99
-164
-206
-214
-217
-235
-245
-230
-206
-179
-151
-126
-93
-41
-7
-27
-70
-97
-118
-126
-106
-107
-128
-109
-114
-147
-52
88
145
345
575
307
-231
-345
-152
-108
-150
-132
-123
-122
-99
-87
-78
-54
-46
-38
-3
23
30
70
139
184
216
249
274
293
261
135
11
-25
-60
-160
-227
-216
-219
-247
-215
-161
-149
-127
-83
-61
-24
50
87
63
23
-6
-18
-13
-4
-10
-14
0
-6
-23
27
112
219
426
511
195
-189
-207
-64
-53
-76
-58
-65
-75
-58
-53
-60
-52
-36
-22
-7
5
25
75
125
139
163
243
314
319
304
297
263
210
176
156
122
76
62
77
69
45
75
144
162
143
201
312
371
439
578
684
795
1061
1247
989
430
-20
-245
-335
-355
-373
-429
-479
-497
-520
-567
-609
-629
-646
-676
-709
-729
-731
-712
-667
-588
-470
-327
-190
-77
12
72
82
53
25
0
-37
-63
-64
-66
-82
-90
-89
-94
-98
-93
-89
-99
-115
-122
-119
-121
-120
-103
-71
-35
-12
-20
-51
-74
-83
-81
-68
-71
-76
-51
-59
-85
23
193
294
478
618
295
-211
-280
-73
-16
-48
-39
-44
-43
-25
-34
-35
-4
8
19
61
87
87
119
178
228
300
400
466
483
500
517
479
376
264
192
151
99
34
-10
-31
-51
-48
-13
4
22
133
296
417
562
757
876
1031
1402
1626
1227
452
-121
-351
-414
-441
-470
-486
-487
-489
-487
-493
-540
-592
-610
-624
-658
-693
-715
-720
-698
-648
-550
-382
-204
-74
38
133
152
125
123
120
77
32
30
49
40
6
-3
21
31
14
5
-6
-54
-99
-93
-73
-89
-117
-101
-44
-4
-9
-35
-57
-77
-82
-68
-74
-85
-44
-24
-67
-21
97
173
418
767
594
-47
-342
-191
-122
-183
-180
-168
-186
-180
-165
-158
-148
-132
-103
-73
-60
-49
-27
10
71
139
195
242
279
296
294
262
215
184
136
36
-44
-54
-70
-107
-85
-41
-49
-56
-34
-17
17
49
8
-55
-75
-97
-114
-93
-84
-89
-74
-86
-73
36
133
252
497
519
87
-274
-213
-89
-103
-86
-47
-68
-78
-58
-58
-61
-51
-44
-30
-4
18
41
82
132
178
219
254
283
297
282
243
189
108
19
-27
-44
-75
-94
-86
-104
-134
-104
-45
-30
-20
27
28
-15
34
163
250
344
421
252
-56
-125
7
56
36
55
69
52
42
38
25
12
16
33
39
45
69
91
100
136
190
205
192
189
172
111
26
-54
-114
-153
-181
-201
-205
-204
-211
-212
-203
-198
-195
-181
-168
-169
-172
-176
-186
-185
-168
-163
-166
-139
-87
-58
-76
-107
-118
-114
-113
-128
-146
-122
-93
-129
-113
32
143
279
573
566
-6
-453
-349
-188
-245
-268
-222
-241
-263
-224
-206
-233
-227
-174
-154
-172
-148
-88
-53
-18
56
122
145
171
222
266
306
351
351
306
308
366
382
312
188
65
22
58
76
68
124
225
269
252
222
167
76
-21
-74
-79
-112
-179
-185
-145
-103
-1
125
230
375
352
-56
-434
-372
-186
-200
-269
-280
-288
-298
-310
-323
-310
-308
-343
-352
-321
-296
-281
-257
-220
-154
-71
-17
4
5
-24
-89
-173
-242
-237
-132
26
186
325
438
543
635
617
481
396
427
450
413
348
233
111
96
181
290
375
411
447
462
337
231
372
565
716
986
1020
476
-57
-91
-29
-148
-225
-225
-265
-306
-322
-350
-368
-363
-364
-367
-357
-343
-332
-313
-269
-194
-120
-84
-62
-36
-42
-89
-134
-171
-234
-307
-341
-339
-336
-340
-346
-344
-316
-264
-195
-81
62
156
262
476
659
769
1089
1530
1524
976
357
-71
-332
-437
-458
-489
-521
-539
-554
-561
-573
-599
-609
-614
-645
-671
-664
-652
-623
-527
-380
-239
-112
14
123
191
200
163
119
97
88
77
60
52
60
72
69
55
42
41
50
52
32
7
1
19
40
39
29
58
116
136
106
75
60
65
93
98
78
98
122
84
85
170
222
307
501
488
108
-196
-147
-24
-23
-35
-17
-25
-39
-16
18
31
28
41
71
92
101
113
131
148
174
218
265
298
316
321
309
271
221
170
115
65
37
18
-11
-26
-3
26
29
32
74
152
220
263
345
491
602
690
873
1012
815
346
-72
-309
-421
-464
-481
-500
-516
-529
-553
-572
-578
-604
-656
-700
-734
-770
-793
-793
-769
-712
-616
-477
-312
-181
-91
0
61
43
0
-11
-16
-21
-6
13
34
61
70
68
84
97
89
84
68
33
23
32
11
-6
45
121
137
92
52
38
30
36
52
54
75
100
57
54
201
338
481
781
830
290
-222
-183
-1
-14
-46
-29
-42
-41
-10
-1
-19
-31
-13
21
32
20
28
71
129
184
245
308
349
361
358
322
236
154
100
12
-102
-148
-128
-139
-204
-245
-214
-158
-131
-87
52
237
395
568
738
856
1054
1316
1239
684
77
-264
-416
-485
-505
-521
-531
-531
-553
-587
-602
-615
-646
-687
-733
-782
-824
-845
-836
-793
-703
-555
-382
-220
-79
33
92
102
91
75
62
72
105
130
170
314
567
803
975
1253
1721
1989
1556
621
-93
-311
-333
-355
-336
-308
-322
-331
-338
-407
-502
-553
-590
-643
-675
-688
-703
-679
-577
-419
-253
-106
23
136
197
185
153
148
154
152
150
154
150
140
147
164
160
140
130
139
148
135
115
111
113
112
106
93
97
139
161
123
94
97
77
52
64
66
21
-13
4
27
11
-9
18
71
99
101
83
41
10
23
46
39
20
11
-5
10
94
181
334
600
591
105
-308
-278
-160
-178
-179
-160
-191
-203
-188
-194
-184
-148
-151
-171
-159
-139
-119
-67
-1
55
117
167
196
232
256
230
195
172
118
51
14
-18
-60
-85
-105
-125
-99
-41
-6
11
52
158
348
522
611
784
1051
970
390
-170
-360
-398
-456
-469
-455
-466
-466
-467
-496
-509
-486
-473
-501
-545
-552
-520
-503
-500
-434
-294
-134
3
96
147
176
174
141
108
86
55
29
27
33
30
16
0
-3
4
-3
-20
-21
-13
-23
-48
-55
-26
18
42
47
77
131
148
119
98
89
70
63
76
66
45
55
51
34
101
200
281
495
668
372
-141
-258
-81
-37
-86
-75
-68
-90
-94
-88
-86
-79
-66
-46
-19
4
20
43
87
140
191
252
317
345
344
354
348
286
219
187
130
32
-30
-36
-37
-41
-30
-20
-24
-14
43
120
176
221
286
389
558
751
901
1099
1365
1357
838
144
-285
-442
-504
-521
-522
-555
-593
-602
-611
-638
-662
-698
-760
-807
-819
-835
-869
-887
-858
-768
-634
-492
-348
-197
-66
17
52
51
35
13
1
10
14
2
6
14
1
10
44
42
22
40
61
40
27
86
172
195
160
129
106
78
83
102
77
72
128
116
65
164
309
401
639
805
431
-121
-220
-65
-52
-89
-72
-71
-81
-80
-89
-89
-71
-59
-49
-28
-12
2
29
69
116
180
249
288
293
278
247
206
156
92
28
-25
-68
-87
-91
-102
-94
-56
-36
-22
50
146
198
233
309
439
607
797
1043
1356
1540
1325
747
138
-257
-447
-520
-527
-518
-533
-565
-588
-601
-602
-594
-608
-651
-707
-763
-791
-765
-725
-696
-624
-483
-343
-250
-159
-57
-11
-31
-45
-38
-54
-75
-72
-65
-58
-50
-58
-76
-84
-90
-109
-134
-135
-103
-77
-78
-66
-17
21
12
-7
-1
8
11
33
50
42
58
88
75
95
189
253
330
449
346
-5
-179
-64
30
19
32
58
54
57
73
90
110
129
153
195
232
250
284
344
399
444
497
557
603
620
608
596
586
547
488
451
438
413
376
363
386
408
396
381
401
467
561
617
635
737
913
1030
1169
1423
1500
1165
665
309
118
19
-61
-208
-422
-652
-896
-1134
-1308
-1432
-1570
-1709
-1802
-1881
-1977
-2035
-2020
-1976
-1903
-1740
-1491
-1242
-1027
-826
-664
-566
-494
-426
-378
-333
-287
-246
-166
-69
-54
-26
207
527
625
396
-23
-396
-562
-559
-451
-213
95
315
388
369
329
318
338
364
389
424
485
580
692
808
925
1030
1096
1110
1065
967
851
736
614
484
373
297
227
140
81
67
44
-4
-28
-26
-33
-47
-55
-72
-81
-60
-48
-62
-55
-36
-49
-63
-41
-34
-59
-59
-30
-24
-33
13
123
209
288
495
786
1004
1237
1546
1576
1065
337
-162
-361
-397
-400
-436
-464
-447
-447
-487
-502
-493
-519
-569
-594
-604
-635
-674
-675
-644
-608
-551
-449
-334
-238
-159
-85
-19
25
45
52
58
68
71
60
51
51
47
45
49
48
42
37
33
25
-3
-39
-38
-20
-43
-71
-50
-15
7
42
64
37
5
3
13
15
-3
-20
1
19
10
54
143
267
497
594
237
-219
-263
-105
-88
-102
-57
-61
-88
-62
-44
-67
-65
-35
-27
-25
3
32
49
80
131
186
229
256
275
285
272
237
186
128
67
1
-47
-59
-71
-99
-90
-43
-22
-24
7
48
49
17
-22
-71
-115
-124
-118
-148
-180
-164
-167
-197
-152
-63
37
223
296
10
-305
-278
-135
-130
-149
-132
-142
-148
-131
-136
-148
-132
-112
-107
-94
-60
-16
19
49
90
144
189
216
224
214
185
134
71
16
-23
-48
-69
-89
-101
-93
-67
-45
-43
-33
19
64
40
-4
-10
-20
-51
-51
-32
-32
-18
-15
-54
-34
76
179
317
425
219
-159
-236
-64
-9
-47
-30
-18
-41
-44
-37
-40
-43
-37
-20
-4
1
17
56
100
148
199
245
287
324
326
293
254
197
104
26
0
-21
-62
-86
-87
-80
-73
-78
-72
-21
30
18
-23
-38
-51
-75
-74
-76
-103
-88
-51
-82
-84
32
145
288
495
401
-71
-342
-223
-139
-182
-151
-109
-136
-135
-113
-127
-125
-104
-102
-90
-67
-71
-57
11
71
101
148
201
217
203
166
96
14
-54
-117
-179
-202
-185
-179
-190
-170
-139
-153
-156
-79
6
8
-20
-3
35
66
121
221
359
494
588
738
1082
1421
1329
757
131
-220
-338
-374
-377
-366
-372
-392
-415
-431
-442
-466
-514
-558
-581
-610
-664
-719
-738
-709
-639
-541
-422
-292
-162
-59
2
33
48
41
28
31
33
21
12
8
0
6
47
105
155
290
666
1096
1043
361
-388
-665
-512
-253
-66
19
38
33
17
10
31
42
26
33
69
86
100
158
244
331
447
592
688
693
644
561
435
311
224
130
34
4
17
-14
-53
-29
-7
-45
-70
-58
-62
-56
-6
35
83
214
357
463
627
788
796
770
783
625
329
136
-50
-357
-558
-541
-497
-522
-554
-571
-588
-615
-664
-719
-768
-820
-860
-867
-856
-826
-751
-636
-498
-349
-209
-85
28
106
145
179
211
222
233
261
277
270
290
395
569
725
841
951
931
599
96
-212
-258
-257
-283
-290
-306
-325
-301
-275
-265
-236
-227
-245
-213
-161
-164
-162
-108
-43
28
105
146
158
171
153
100
66
39
-19
-53
-45
-73
-112
-71
-18
-46
-81
-56
-31
-29
-18
1
17
28
31
33
48
68
83
91
91
91
95
93
93
96
96
97
105
100
90
94
97
79
61
58
62
66
61
61
90
127
121
84
57
40
28
23
9
0
19
14
-2
58
158
296
538
592
172
-282
-286
-115
-113
-148
-120
-117
-138
-145
-145
-133
-122
-125
-108
-69
-53
-49
-12
43
85
127
177
205
211
217
212
179
136
95
39
-31
-76
-92
-117
-151
-161
-148
-137
-135
-122
-79
-42
-67
-120
-140
-159
-198
-207
-182
-169
-156
-157
-188
-133
33
154
226
256
27
-338
-386
-191
-135
-168
-125
-101
-118
-94
-64
-78
-83
-52
-21
10
45
57
78
161
259
318
368
420
439
414
350
250
130
12
-76
-119
-144
-176
-193
-183
-165
-161
-149
-94
-13
29
3
-48
-75
-82
-76
-51
-47
-62
-33
-13
-36
48
218
322
456
555
264
-196
-262
-74
-47
-101
-82
-67
-65
-45
-47
-58
-42
-28
-20
1
20
36
68
106
149
216
278
294
292
293
257
187
119
40
-39
-75
-87
-101
-101
-109
-141
-145
-111
-82
-36
32
31
-59
-119
-100
-84
-109
-135
-141
-151
-182
-176
-93
-39
58
394
612
240
-284
-351
-208
-223
-266
-244
-236
-225
-202
-208
-211
-196
-185
-168
-131
-95
-62
-17
36
83
127
177
220
236
230
209
166
113
62
21
0
-10
-22
-23
1
23
10
-6
27
87
110
90
66
56
49
38
30
32
43
56
