# session 96
-3
-107
-17
91
82
69
89
83
75
89
96
94
103
120
137
151
172
216
274
324
370
419
462
487
481
437
369
285
179
86
42
26
7
-15
-32
-43
-45
-44
-42
-43
-35
6
59
61
16
-20
-39
-60
-62
-58
-83
-79
-40
-73
-94
44
189
298
523
553
79
-365
-319
-159
-183
-206
-174
-194
-214
-180
-153
-156
-146
-132
-131
-110
-55
9
63
105
164
258
331
349
348
316
216
94
-2
-87
-148
-172
-191
-206
-205
-202
-199
-189
-174
-153
-132
-104
-35
28
-2
-71
-81
-82
-109
-96
-69
-65
-46
-62
-87
45
223
281
377
423
89
-327
-337
-154
-121
-150
-132
-111
-107
-111
-109
-91
-67
-38
-11
-9
-3
37
94
167
255
323
372
418
428
382
295
178
65
-4
-52
-100
-110
-86
-82
-106
-112
-78
-42
-60
-144
-270
-384
-405
-345
-302
-297
-292
-280
-249
-217
-209
-171
-126
-151
-108
70
193
354
657
611
50
-315
-193
-73
-112
-88
-37
-61
-74
-38
-9
3
21
46
66
75
91
131
182
235
294
346
382
397
383
333
260
174
86
19
-19
-51
-84
-96
-95
-116
-141
-115
-72
-82
-102
-51
27
64
82
109
127
182
346
541
641
780
1186
1652
1652
1054
286
-243
-470
-510
-497
-519
-538
-500
-474
-508
-531
-519
-538
-589
-616
-626
-660
-698
-682
-606
-504
-385
-252
-129
-26
48
63
37
10
-26
-67
-71
-51
-60
-84
-91
-89
-86
-81
-88
-97
-83
-60
-60
-57
-8
49
55
24
0
-16
-41
-51
-30
-20
-22
9
15
-16
54
182
269
482
687
411
-121
-257
-101
-78
-105
-53
-50
-83
-48
-8
-10
-7
11
29
75
137
166
188
253
326
372
414
454
466
459
434
363
270
200
143
94
77
70
58
59
44
17
37
5
-174
-306
-223
-70
12
72
175
329
491
632
828
1064
1104
797
313
-74
-247
-272
-262
-264
-271
-271
-270
-289
-301
-304
-388
-530
-592
-685
-974
-1211
-1135
-933
-799
-655
-469
-299
-165
-79
2
74
53
69
261
380
417
781
1204
995
365
-71
-318
-474
-411
-271
-263
-295
-274
-270
-304
-317
-279
-232
-243
-306
-343
-309
-214
-83
58
199
318
366
333
285
260
220
158
122
114
95
62
47
60
87
97
73
42
50
82
88
68
55
59
80
94
67
64
160
267
345
535
829
1035
1156
1278
1356
1317
1002
365
-157
-244
-230
-365
-457
-457
-484
-509
-505
-531
-574
-591
-591
-592
-618
-689
-781
-843
-846
-795
-702
-582
-449
-311
-186
-91
-15
47
67
47
44
67
78
82
108
136
140
140
150
159
165
171
171
166
159
143
134
140
136
122
119
106
73
58
71
74
65
74
89
71
42
55
90
91
79
88
75
32
33
85
102
59
43
107
177
182
156
127
81
59
83
81
65
95
79
4
51
213
390
652
761
327
-262
-353
-156
-135
-186
-157
-155
-179
-163
-153
-161
-146
-121
-104
-91
-74
-40
6
31
48
95
156
194
209
207
196
170
102
14
-50
-99
-149
-175
-179
-186
-197
-198
-180
-142
-99
-85
-90
-73
-36
-36
-81
-119
-127
-122
-123
-143
-156
-116
-89
-137
-130
-2
115
227
337
166
-263
-441
-284
-191
-226
-214
-201
-228
-213
-177
-183
-191
-177
-162
-143
-102
-45
13
75
159
256
332
378
397
375
311
228
130
24
-59
-102
-122
-133
-138
-127
-102
-84
-62
-22
5
0
2
31
56
49
20
-3
-19
-26
-14
-2
3
21
21
-3
42
146
233
354
409
148
-216
-255
-80
-13
-24
-5
9
14
25
19
15
28
42
54
68
82
110
156
200
237
283
338
380
391
373
337
276
185
95
26
-28
-61
-72
-81
-98
-109
-115
-113
-98
-83
-69
-13
64
83
63
101
196
303
455
632
767
967
1311
1460
1043
301
-236
-439
-498
-522
-532
-550
-562
-572
-604
-627
-624
-651
-717
-762
-779
-816
-858
-848
-798
-734
-626
-454
-275
-141
-46
25
62
54
12
-25
-31
-25
-31
-46
-47
-23
-1
1
-9
-16
-4
23
23
-9
3
79
146
155
126
91
59
42
55
63
38
46
79
49
62
216
345
444
623
558
79
-265
-170
-34
-65
-74
-34
-30
-29
-23
-44
-44
6
31
15
28
82
126
167
237
314
369
421
469
470
412
322
214
101
11
-48
-88
-117
-129
-129
-132
-133
-102
-62
-54
-44
22
120
204
255
297
402
585
759
945
1270
1623
1630
1122
373
-201
-449
-501
-510
-522
-524
-520
-529
-552
-572
-585
-606
-648
-702
-747
-769
-770
-762
-745
-671
-513
-330
-178
-45
60
96
71
50
48
32
-6
-17
8
15
-13
-32
-22
-5
5
-4
-37
-59
-36
-13
-34
-45
5
69
93
71
29
6
12
16
-8
-29
7
51
9
-18
79
159
279
667
910
464
-176
-299
-142
-145
-198
-167
-133
-119
-98
-81
-59
-37
-33
-24
15
61
92
121
163
221
276
314
341
363
361
317
245
162
76
7
-31
-55
-83
-106
-116
-113
-103
-91
-77
-57
-30
31
132
199
220
319
501
626
743
945
1008
707
219
-169
-375
-435
-433
-448
-473
-480
-486
-490
-491
-519
-555
-564
-576
-605
-618
-620
-614
-558
-453
-339
-204
-60
32
70
97
100
55
3
-18
-14
-1
12
14
14
24
36
46
51
45
31
22
24
39
60
66
61
81
127
143
115
85
73
66
67
77
71
65
91
96
71
124
239
343
523
652
376
-99
-219
-51
11
-19
1
14
3
11
17
13
21
33
49
75
97
109
124
164
228
293
341
378
404
398
354
287
214
142
66
-8
-63
-96
-116
-129
-135
-133
-112
-86
-69
-28
67
185
285
390
554
743
906
1124
1396
1417
959
278
-224
-457
-545
-576
-582
-578
-584
-616
-645
-654
-676
-717
-753
-798
-865
-912
-906
-875
-838
-748
-579
-399
-256
-118
5
53
46
35
11
-31
-51
-44
-40
-41
-46
-63
-67
-40
-17
-21
-28
-43
-67
-60
-28
-43
-102
-101
-15
52
35
-7
-18
-25
-44
-47
-50
-54
-14
-3
-56
4
175
299
525
790
553
-73
-330
-176
-102
-136
-120
-117
-121
-83
-61
-67
-59
-41
-19
11
38
72
130
184
222
281
353
398
408
395
350
282
201
102
12
-37
-66
-94
-107
-111
-115
-100
-64
-24
12
64
171
301
376
459
631
793
936
1209
1459
1323
835
314
-70
-272
-314
-322
-354
-366
-363
-370
-373
-374
-389
-412
-450
-494
-511
-498
-475
-432
-355
-244
-100
48
153
220
290
329
293
239
234
243
219
206
234
254
247
244
262
289
299
273
249
256
254
234
246
286
306
316
348
386
405
405
370
299
256
286
322
267
118
-77
-296
-467
-550
-627
-698
-724
-925
-1376
-1669
-1605
-1513
-1548
-1510
-1364
-1245
-1156
-1014
-839
-696
-585
-476
-391
-350
-294
-183
-62
42
145
248
336
410
451
443
407
364
309
243
187
149
131
129
133
135
146
172
203
232
277
361
471
574
692
860
1033
1180
1390
1657
1707
1308
644
125
-85
-131
-168
-199
-192
-201
-256
-297
-310
-346
-398
-432
-478
-545
-592
-611
-607
-549
-434
-290
-129
31
157
239
271
246
189
147
127
101
67
53
61
69
66
58
63
87
84
37
22
61
62
11
-11
0
25
98
160
133
92
92
68
33
42
37
10
37
44
-14
42
215
332
526
766
530
-113
-393
-215
-116
-167
-147
-125
-177
-190
-135
-113
-135
-127
-93
-78
-55
-2
48
86
130
178
233
297
338
313
234
152
80
-3
-87
-146
-181
-197
-199
-218
-238
-209
-163
-163
-168
-118
-48
-14
-19
-49
-95
-134
-130
-102
-110
-133
-102
-83
-125
-80
60
144
273
440
252
-230
-409
-244
-170
-225
-219
-189
-196
-206
-216
-230
-217
-186
-185
-191
-149
-84
-55
-30
41
135
203
238
259
265
223
126
26
-40
-96
-142
-150
-146
-166
-174
-153
-138
-118
-82
-69
-61
-13
24
-5
-63
-94
-100
-92
-71
-57
-62
-46
-29
-47
-9
101
175
294
451
298
-131
-300
-146
-61
-90
-63
-18
-15
-11
8
26
40
44
60
107
154
170
182
224
284
340
383
419
442
431
389
335
263
182
121
84
55
37
34
27
17
32
64
70
55
85
162
217
234
253
308
424
570
696
854
1072
1156
908
416
-49
-310
-391
-418
-449
-468
-478
-498
-514
-532
-577
-632
-668
-701
-759
-818
-828
-797
-762
-692
-549
-392
-272
-157
-40
17
7
-10
-18
-47
-84
-93
-87
-92
-98
-92
-81
-68
-54
-50
-56
-52
-36
-30
-31
2
77
130
114
76
66
58
34
36
46
23
29
62
31
49
206
328
449
681
613
59
-338
-241
-90
-106
-107
-72
-72
-74
-61
-54
-46
-30
-7
9
8
31
93
150
202
282
368
435
476
464
395
305
220
138
48
-33
-75
-81
-79
-82
-92
-95
-73
-48
-24
37
130
214
290
383
519
678
814
1002
1318
1475
1125
447
-99
-356
-437
-460
-482
-485
-460
-461
-490
-507
-530
-572
-605
-633
-670
-703
-737
-758
-738
-679
-568
-388
-203
-69
37
104
96
69
71
61
17
-7
9
18
12
17
21
12
11
17
4
-13
-6
12
9
-20
-34
12
92
136
129
99
49
4
19
54
28
2
26
15
22
124
192
340
752
897
342
-232
-229
-66
-101
-138
-106
-99
-89
-69
-77
-75
-49
-43
-49
-25
7
15
43
123
194
215
248
312
336
294
232
162
72
-17
-74
-110
-157
-203
-209
-187
-181
-183
-173
-160
-139
-98
-57
-55
-94
-126
-120
-109
-121
-137
-122
-82
-79
-114
-68
53
156
353
563
350
-171
-357
-196
-142
-188
-157
-132
-148
-124
-83
-83
-96
-78
-34
-10
-12
16
86
137
158
205
280
324
325
308
264
180
87
10
-35
-53
-66
-67
-38
-14
-13
18
132
335
565
770
1036
1345
1303
707
38
-236
-255
-283
-315
-319
-325
-337
-362
-400
-428
-456
-486
-496
-499
-510
-494
-441
-379
-269
-98
39
94
128
152
133
106
100
79
42
22
15
6
5
8
-4
-22
-27
-30
-49
-71
-86
-106
-129
-143
-154
-165
-179
-210
-227
-193
-155
-164
-165
-109
-59
-55
-57
-52
-69
-90
-68
-39
-50
-38
7
-13
-16
120
246
373
656
688
145
-331
-244
-58
-91
-109
-56
-65
-94
-74
-43
-29
-22
-11
-9
-7
32
90
127
173
250
319
366
408
427
401
343
271
186
92
6
-46
-72
-101
-127
-135
-127
-97
-50
2
89
232
410
629
850
998
1165
1430
1487
1047
374
-103
-335
-450
-477
-460
-479
-513
-511
-508
-540
-573
-593
-645
-734
-796
-818
-841
-859
-820
-710
-559
-388
-201
-39
38
50
62
68
22
-43
-57
-31
-21
-30
-31
-26
-22
-8
8
18
31
44
36
10
-1
13
23
10
13
69
144
171
140
101
83
84
89
75
55
87
116
65
88
253
367
537
881
843
200
-246
-134
-25
-100
-91
-48
-75
-85
-76
-81
-69
-51
-30
10
24
11
48
125
174
217
277
308
307
306
286
222
147
80
4
-62
-88
-97
-120
-139
-140
-125
-98
-80
-72
-31
41
71
41
-1
-37
-63
-64
-55
-73
-90
-69
-77
-113
-37
101
177
332
484
214
-276
-385
-227
-211
-232
-169
-169
-213
-193
-165
-172
-170
-151
-131
-109
-88
-59
-9
52
116
181
236
273
287
267
211
126
32
-51
-124
-171
-162
-140
-173
-218
-197
-147
-129
-128
-125
-115
-68
-25
-56
-105
-94
-75
-90
-92
-79
-65
-47
-70
-81
33
159
224
392
485
151
-281
-306
-131
-103
-133
-113
-100
-91
-70
-60
-52
-41
-34
-11
33
67
79
104
163
213
248
317
385
369
313
287
248
161
75
30
6
-17
-38
-43
-42
-46
-31
-2
-4
-9
44
87
45
-5
-7
-24
-59
-54
-41
-55
-54
-53
-75
-35
62
146
333
542
358
-123
-305
-162
-111
-163
-151
-144
-180
-185
-166
-160
-159
-157
-143
-115
-93
-75
-35
19
68
116
168
205
218
214
188
133
53
-36
-105
-142
-161
-171
-175
-182
-186
-172
-156
-150
-132
-71
6
25
-17
-48
-51
-69
-80
-55
-11
57
137
186
278
451
622
871
1157
957
185
-370
-347
-249
-320
-337
-290
-305
-324
-290
-271
-300
-338
-362
-372
-370
-377
-397
-405
-393
-360
-283
-171
-65
26
98
118
90
64
49
32
43
59
26
-13
8
50
64
68
115
238
389
512
656
838
962
1070
1354
1723
1746
1214
454
-77
-279
-337
-372
-379
-366
-367
-385
-408
-436
-466
-494
-524
-565
-612
-655
-686
-690
-636
-532
-404
-252
-89
33
104
161
181
130
66
51
58
45
24
27
35
5
-31
-14
11
-8
-32
-38
-54
-79
-87
-78
-74
-67
-14
64
75
27
2
5
-4
-36
-65
-31
26
-25
-87
14
126
206
550
866
492
-198
-362
-165
-144
-209
-172
-142
-157
-148
-127
-124
-118
-97
-75
-57
-28
5
30
72
151
229
274
293
306
309
274
189
82
-9
-66
-89
-108
-147
-187
-194
-174
-152
-142
-143
-119
-46
22
46
71
127
203
328
487
622
781
994
1074
831
372
-32
-256
-346
-363
-354
-356
-364
-372
-402
-436
-440
-456
-508
-545
-560
-584
-579
-516
-436
-339
-203
-68
41
142
215
237
224
195
155
127
119
110
107
121
129
114
105
110
100
77
71
86
97
92
88
105
147
