# session 190
34
71
46
11
25
80
117
94
79
131
149
98
112
185
217
270
313
227
194
272
146
5
97
-114
-262
379
-66
-2460
-3055
-487
1085
255
-153
304
281
158
342
339
210
224
219
169
190
216
186
142
130
183
218
128
70
195
343
483
718
724
271
-130
-111
9
29
61
75
33
37
73
80
87
68
80
186
106
-35
219
-21
-878
106
1476
-2068
-7222
-5470
313
1830
488
693
1130
657
554
691
525
461
469
354
346
383
309
310
384
332
246
274
322
271
189
252
405
410
364
368
224
206
387
97
82
762
-1436
-7081
-8698
-3874
-807
-2214
-1864
926
1743
961
752
664
534
740
789
633
662
679
560
521
545
533
519
500
477
469
427
374
402
471
495
492
491
506
557
611
629
619
597
568
504
384
278
229
168
71
11
24
55
28
-48
-68
-12
33
39
5
-69
-94
-8
90
102
56
-3
-48
-53
-27
-19
-26
-10
-2
-31
-52
-53
-36
45
158
318
592
651
179
-337
-343
-121
-71
-105
-102
-100
-89
-66
-60
-80
-112
-98
-24
-2
-56
-81
-87
-86
-30
-88
-323
-345
-29
197
187
212
273
202
92
58
1
-111
-164
-151
-168
-213
-236
-239
-222
-192
-184
-203
-223
-226
-214
-192
-153
-105
-95
-97
-72
-86
-137
-145
-148
-160
-110
-66
-79
-79
-100
-109
42
269
439
485
201
-274
-378
-109
14
-56
-52
-16
-57
-71
-13
8
-41
-63
6
54
-46
-58
160
85
-202
170
404
-805
-1707
-546
694
481
280
629
577
395
429
128
47
587
-268
-2901
-3698
-1411
491
399
162
398
366
276
395
409
337
362
367
338
380
388
303
288
324
240
164
256
284
153
150
228
140
133
341
453
607
855
480
-219
-64
184
-667
-1182
-269
428
95
-102
106
128
62
90
84
82
95
43
49
140
129
47
89
206
243
224
225
223
189
196
262
235
98
64
116
89
43
-13
-25
143
37
-322
103
330
-1609
-3444
-2067
190
372
-93
146
209
20
99
170
92
95
148
139
101
115
161
113
68
208
382
517
707
616
63
-328
-238
-121
-156
-148
-102
-89
-166
-228
-10
71
-283
-53
447
-821
-2618
-1817
185
436
-59
196
381
225
313
418
332
346
432
406
350
304
210
114
80
55
13
28
91
63
-33
-11
58
27
62
140
38
51
213
11
15
526
-244
-2128
-2001
-53
578
8
35
262
128
88
155
200
340
494
650
719
369
-132
-184
26
55
38
114
122
68
57
51
40
35
25
50
19
-95
-20
84
-93
17
304
-262
-540
499
-36
-2834
-3230
-415
1040
365
206
509
323
205
281
189
137
206
209
186
163
108
100
134
141
135
127
116
140
195
215
150
114
204
157
-10
160
255
-108
147
582
-870
-2527
-1326
665
654
244
569
358
-179
-76
170
136
118
115
74
110
122
46
37
95
86
42
56
100
118
110
106
134
181
211
220
212
235
304
280
209
307
329
121
131
111
-240
90
475
-1259
-3224
-2051
173
319
-177
149
295
105
176
217
93
140
281
266
171
147
158
123
94
132
137
67
78
163
108
14
119
247
345
702
999
630
-44
-276
-65
82
-121
-191
199
-376
-2866
-4639
-3110
-336
596
205
160
329
266
250
337
351
345
367
372
410
488
499
447
457
488
411
293
231
162
57
-3
8
31
-29
-111
-57
-44
-179
-81
19
-284
-83
471
-585
-2180
-1366
377
270
-309
139
409
129
91
168
111
164
236
157
157
297
355
479
858
970
415
-158
-153
53
45
-10
34
37
3
54
40
-40
109
145
-161
85
446
-819
-2289
-1329
391
390
-81
212
381
260
370
471
413
414
381
236
154
157
118
42
-2
5
19
-3
-7
89
192
177
213
508
860
1059
1404
1944
1933
1111
275
-202
-517
-443
-271
-565
-408
179
-989
-3010
-2419
-325
-17
-634
-474
-352
-586
-548
-471
-534
-426
-267
-240
-175
-55
6
86
219
261
179
133
201
243
170
161
209
90
53
215
-22
-200
465
-22
-2847
-4173
-1739
650
567
160
439
437
280
375
410
352
346
307
294
338
286
208
259
303
238
201
226
245
296
320
219
160
196
113
61
192
131
21
226
84
-165
580
479
-1969
-2933
-362
1382
379
-237
290
341
149
277
277
145
136
147
172
231
212
159
162
167
162
180
198
203
202
222
282
300
278
358
428
347
370
465
302
239
361
52
23
612
-605
-3516
-3669
-745
730
121
27
380
247
198
348
267
180
248
255
221
231
187
96
86
126
120
106
112
63
20
56
35
-7
136
277
329
612
710
79
-348
-105
-230
-257
448
-417
-2946
-2981
-359
722
33
45
396
161
46
223
221
168
231
249
230
259
274
294
386
430
351
296
315
278
211
197
141
68
87
26
-35
143
38
-271
249
244
-2295
-4424
-2628
251
630
55
297
464
265
262
293
231
261
274
232
257
273
244
246
216
191
291
398
511
763
800
341
-107
-171
-112
-94
-104
-103
4
-37
-213
8
88
-377
0
553
-980
-2358
-1278
-968
-2096
-1082
855
664
87
529
609
373
548
621
480
497
481
334
261
224
165
170
183
145
158
190
131
103
150
148
197
269
150
162
400
231
74
473
-76
-1737
-1769
-55
590
60
29
274
196
149
238
318
419
572
785
800
357
-92
-59
122
72
-9
27
44
18
15
3
-26
-24
-9
-13
-66
-147
-74
82
-22
-107
139
95
-70
418
384
-233
778
1082
-2512
-4919
-2646
-1205
-1981
-739
965
389
-76
485
406
94
269
308
192
266
304
221
205
269
339
349
299
281
265
195
195
262
221
147
182
220
242
237
137
272
592
471
573
1317
253
-2992
-3877
-1166
661
157
-62
368
306
164
309
333
239
218
229
251
266
248
241
254
279
319
335
324
343
400
467
493
431
332
286
269
194
72
5
-5
-37
-47
-24
-58
-9
91
-124
-191
229
-169
-978
113
820
-2226
-4551
-1883
964
386
-285
292
270
-21
199
239
63
126
186
116
162
261
309
541
862
724
170
-153
-98
1
18
-29
-64
34
80
-45
9
161
27
21
181
-126
-54
654
-419
-2824
-2477
133
943
245
342
665
494
465
544
426
351
343
267
211
187
155
157
149
86
64
100
75
11
32
84
42
-15
21
56
37
68
95
16
-35
-27
-92
-90
-22
-127
-102
92
-123
-97
486
-373
-1992
-751
1277
-543
-3003
-1581
512
210
-239
173
169
-13
128
147
57
101
101
46
73
97
70
80
119
118
120
173
227
255
288
324
356
383
378
346
316
276
206
119
56
53
84
74
22
-19
-42
-58
-54
-47
-67
-98
-107
-108
-110
-85
-50
-61
-101
-116
-114
-111
-97
-88
-90
-80
-73
-57
-21
-45
-77
37
186
284
535
714
337
-225
-300
-105
-78
-110
-96
-134
-162
-117
-97
-111
-103
-98
-104
-97
-100
-119
-108
-50
-6
-12
11
120
229
279
302
274
210
203
218
149
47
-18
-69
-110
-128
-141
-153
-155
-157
-146
-122
-118
-128
-108
-61
-39
-47
-30
25
65
65
46
24
17
28
22
14
39
37
3
25
42
16
99
227
278
524
864
628
-30
-257
-86
-85
-180
-138
-111
-155
-147
-115
-126
-148
-174
-205
-201
-181
-198
-221
-185
-116
-73
-49
-2
65
117
152
177
182
166
129
66
-2
-56
-97
-128
-142
-143
-140
-141
-145
-137
-117
-114
-125
-121
-104
-101
-111
-92
-32
3
-17
-22
-9
-51
-99
-66
-14
-5
-8
-14
-10
25
19
-18
45
152
214
344
404
108
-240
-219
-59
-49
-58
-23
-24
-9
31
28
12
20
5
-28
-36
-38
-50
-51
-38
-20
14
60
104
149
201
241
252
248
239
212
161
106
57
15
-8
-7
-3
-13
-16
4
32
54
84
115
158
297
526
693
864
1208
1384
935
205
-170
-212
-250
-304
-311
-327
-372
-402
-386
-348
-348
-389
-419
-437
-467
-491
-501
-513
-514
-486
-423
-331
-220
-108
-14
43
67
77
73
49
19
1
-3
-2
-1
3
5
-1
-10
-15
-18
-20
-23
-24
-23
-26
-42
-58
-56
-42
-38
-43
-37
-26
-43
-71
-53
-10
-6
-15
14
26
-16
-37
-13
-3
2
18
25
50
110
134
96
53
28
14
21
40
30
-1
17
87
102
63
118
245
329
493
661
410
-125
-305
-129
-66
-127
-108
-83
-118
-118
-74
-51
-37
-13
2
11
19
13
16
44
68
85
113
145
177
213
252
286
299
283
260
234
193
146
83
16
-1
-11
-84
-126
-91
-89
-133
-139
-131
-141
-114
-72
-80
-110
-118
-111
-90
-50
-30
-61
-113
-159
-185
-181
-162
-138
-114
-112
-95
-34
-36
-77
27
189
278
420
432
13
-395
-326
-147
-181
-207
-166
-184
-194
-151
-130
-130
-122
-108
-78
-58
-78
-61
16
35
1
49
138
181
245
320
307
277
310
316
238
121
4
-66
-75
-85
-113
-118
-117
-134
-125
-77
-50
-55
-58
-61
-62
-46
-56
-105
-112
-46
13
9
-30
-64
-74
-65
-62
-65
-35
4
8
21
50
27
58
232
361
415
501
369
-52
-263
-121
-13
-19
-1
-28
-85
-52
-2
-31
-57
-22
3
-26
-62
-61
-43
-36
-10
48
84
99
163
253
289
300
314
275
185
102
31
-36
-88
-140
-189
-199
-183
-181
-176
-148
-128
-123
-107
-91
-94
-87
-57
-56
-95
-113
-69
-8
3
-30
-58
-78
-93
-88
-71
-69
-89
-101
-75
-70
-111
-52
92
154
313
623
520
-54
-324
-141
-52
-118
-102
-63
-65
-68
-76
-63
-38
-74
-111
-77
-52
-54
-8
49
61
95
177
234
249
271
300
309
297
261
197
119
49
-10
-58
-91
-101
-96
-93
-95
-88
-78
-68
-55
-45
-44
-45
-45
-43
-33
-22
-23
-18
11
39
40
22
-7
-31
-20
13
24
0
-42
-65
-43
-22
-43
-39
-5
45
309
713
653
66
-305
-239
-191
-253
-237
-212
-229
-209
-192
-209
-199
-167
-156
-144
-116
-96
-82
-59
-27
2
32
70
107
134
158
183
182
149
130
122
74
4
-36
-63
-95
-97
-78
-79
-92
-96
-97
-97
-86
-62
-45
-53
-68
-56
-16
18
18
3
33
89
86
42
38
49
29
12
16
21
21
17
32
56
29
15
113
223
316
498
535
174
-200
-199
-79
-97
-124
-102
-108
-121
-108
-99
-95
-79
-61
-50
-35
-16
-3
13
42
72
89
112
154
184
194
217
249
247
218
196
170
120
63
22
15
22
-5
-49
-55
-32
-32
-53
-73
-81
-69
-66
-99
-135
-130
-101
-91
-106
-96
-39
-10
-51
-99
-119
-129
-129
-132
-141
-115
-86
-100
-98
-84
-122
-124
-37
42
175
373
292
-109
-325
-217
-140
-177
-169
-146
-166
-177
-168
-168
-174
-174
-160
-131
-110
-101
-88
-68
-36
4
30
57
125
194
216
235
279
282
242
219
191
103
9
-8
14
-14
-72
-72
-33
-37
-62
-51
-38
-34
5
62
95
135
238
446
692
828
927
1186
1363
1006
296
-186
-308
-331
-354
-345
-327
-324
-326
-321
-308
-301
-304
-300
-292
-307
-331
-338
-343
-352
-333
-283
-225
-151
-63
13
100
195
229
210
199
177
122
71
39
18
16
16
2
-5
-3
-22
-47
-33
-2
-1
-13
-25
-56
-76
-55
-49
-78
-88
-84
-102
-116
-101
-90
-93
-90
-76
-63
-58
-54
-45
-40
-55
-76
-75
-59
-70
-100
-89
-30
11
1
-28
-51
-66
-68
-57
-47
-49
-54
-29
-13
-66
-51
130
264
349
565
534
45
-222
-141
-341
-554
-238
73
-34
-127
-52
-39
-60
-35
-16
0
15
10
21
64
102
129
162
190
211
238
261
261
246
229
204
166
120
77
37
-8
-45
-55
-55
-64
-51
-7
22
52
131
238
377
594
815
972
1139
1209
910
341
-82
-198
-168
-152
-184
-225
-253
-285
-312
-315
-318
-338
-360
-392
-447
-484
-489
-505
-522
-488
-424
-367
-297
-205
-120
-46
17
46
37
23
21
2
-39
-57
-49
-60
-68
-37
-11
-17
-18
-9
-17
-26
-18
-14
-21
-23
-22
-28
-33
-29
-25
-26
-30
-35
-43
-50
-50
-48
-50
-53
-51
-43
-32
-26
-31
-30
-16
-8
-23
-42
-35
-8
0
-11
9
59
84
73
64
57
33
20
48
77
60
38
79
122
92
98
186
245
370
583
506
165
-70
-241
-98
334
-411
-2224
-2298
-412
532
108
25
253
154
86
161
137
129
178
165
166
233
272
281
318
357
379
400
401
375
352
326
276
214
156
105
68
46
35
31
10
-24
-5
49
52
71
176
252
354
621
843
1032
1416
1499
1098
846
-44
-2376
-3639
-1962
-21
19
-361
-169
-138
-282
-225
-193
-272
-289
-293
-340
-365
-378
-409
-412
-360
-288
-206
-95
37
154
231
264
254
218
195
184
144
86
54
57
85
88
31
-1
18
-16
-57
-3
17
-66
-86
-40
-73
-125
-94
-65
-74
-49
-8
-8
-3
47
94
98
94
113
128
113
84
55
16
-20
-34
-36
-55
-93
-115
-77
-2
31
11
-6
-10
-17
-17
-5
-1
-16
-45
-45
-15
-9
20
117
235
466
772
657
44
-336
-204
-66
-115
-134
-116
-135
-143
-147
-181
-197
-162
-125
-129
-142
-129
-109
-99
-97
-100
-80
-26
6
9
29
