# session 69
-19
-8
20
43
40
46
94
149
158
118
66
34
18
14
29
21
-2
34
60
11
57
218
325
532
821
610
-60
-354
-163
-76
-150
-127
-82
-104
-118
-112
-104
-74
-46
-49
-51
-33
-9
27
82
132
178
240
296
323
341
327
253
167
105
31
-67
-138
-160
-159
-152
-147
-153
-166
-176
-171
-149
-123
-112
-110
-83
-33
-10
-42
-97
-135
-158
-166
-151
-144
-153
-122
-86
-122
-115
3
92
218
478
476
16
-339
-267
-141
-156
-154
-126
-128
-115
-89
-82
-76
-59
-40
-27
-19
3
49
92
127
173
225
270
314
341
332
301
253
177
97
33
-21
-64
-79
-72
-68
-84
-93
-65
-38
-34
21
126
183
289
558
795
900
1060
1139
802
261
-82
-247
-353
-375
-371
-396
-402
-398
-428
-457
-464
-482
-515
-545
-572
-586
-583
-560
-500
-392
-254
-111
17
115
176
191
164
128
98
63
35
31
29
15
10
13
4
-7
-11
-17
-23
-20
-22
-31
-29
-25
-28
-31
-27
-19
-7
-20
-58
-67
-41
-34
-30
4
45
73
92
89
63
33
20
35
46
21
15
46
29
11
116
250
392
697
825
338
-257
-304
-111
-106
-141
-113
-129
-150
-131
-124
-127
-112
-109
-122
-109
-64
-26
-2
40
99
154
223
313
365
360
341
311
241
154
75
-3
-71
-104
-119
-139
-150
-137
-120
-114
-102
-70
-26
33
115
229
431
739
997
1096
1226
1456
1388
799
109
-261
-388
-460
-488
-485
-510
-535
-526
-527
-578
-635
-652
-660
-709
-778
-810
-809
-808
-768
-652
-516
-381
-201
-25
59
73
73
62
49
29
-3
-9
14
15
7
24
38
37
54
81
88
90
102
106
102
101
109
119
114
93
77
70
67
65
47
40
101
176
167
115
103
105
86
81
93
82
77
84
48
45
166
281
431
776
882
337
-232
-224
-52
-86
-110
-57
-60
-86
-85
-74
-50
-35
-36
-31
-25
-13
20
44
69
129
197
242
283
317
316
289
253
191
93
-1
-55
-102
-163
-189
-178
-190
-217
-213
-203
-209
-198
-165
-143
-142
-139
-112
-64
-46
-91
-145
-144
-122
-123
-124
-118
-118
-102
-95
-119
-66
72
167
284
410
207
-249
-407
-231
-142
-184
-173
-142
-157
-164
-141
-121
-122
-117
-93
-82
-93
-73
-17
22
53
122
204
261
302
321
291
228
168
116
48
-29
-85
-113
-120
-107
-91
-93
-85
-47
-21
-11
20
51
49
52
86
112
101
66
41
33
16
-4
2
4
-9
5
1
-39
15
149
255
451
617
317
-238
-392
-219
-169
-201
-161
-140
-166
-167
-138
-103
-84
-101
-122
-99
-40
-2
2
26
93
159
207
262
334
386
367
292
224
162
66
-36
-87
-95
-91
-94
-112
-129
-123
-99
-81
-57
16
135
246
407
717
1018
1129
1269
1562
1559
952
174
-269
-401
-439
-451
-465
-496
-507
-497
-524
-586
-627
-649
-691
-741
-778
-811
-840
-840
-789
-678
-521
-342
-166
-22
82
162
200
148
57
25
49
49
8
-34
-39
-10
4
-16
-20
-5
-14
-30
-31
-42
-41
-20
-36
-79
-81
-73
-105
-131
-113
-109
-144
-142
-75
0
40
27
-22
-36
-5
3
-3
6
32
64
39
6
127
305
428
677
848
451
-146
-228
4
47
-3
22
37
25
27
21
19
44
61
59
66
88
110
133
166
222
299
367
405
432
453
431
355
268
196
125
46
-19
-61
-88
-110
-123
-118
-111
-130
-143
-98
-43
-22
34
151
288
494
758
935
1077
1356
1565
1316
680
73
-287
-438
-473
-480
-506
-516
-504
-523
-557
-556
-555
-599
-652
-687
-714
-740
-762
-758
-703
-593
-457
-323
-208
-113
-41
-13
-35
-56
-48
-53
-82
-82
-56
-47
-53
-49
-40
-34
-27
-18
-13
-14
-6
2
-11
-26
-20
-22
-46
-47
-27
-15
-15
-14
15
79
111
69
28
37
45
20
-6
-16
-2
30
24
-13
36
160
274
431
513
216
-246
-341
-144
-73
-114
-84
-46
-67
-62
-5
21
1
17
65
74
69
97
117
131
196
279
318
343
394
434
427
384
330
261
175
96
40
-3
-37
-59
-71
-68
-57
-63
-77
-70
-40
-19
-23
-32
-14
24
36
5
-33
-48
-55
-69
-67
-51
-53
-53
-44
-71
-71
25
145
307
494
359
-138
-407
-253
-134
-190
-185
-126
-119
-120
-106
-114
-121
-101
-82
-77
-64
-35
-9
11
53
117
175
228
280
309
302
265
196
94
0
-63
-125
-183
-198
-186
-199
-217
-209
-211
-235
-229
-196
-187
-196
-172
-119
-81
-74
-80
-96
-127
-151
-131
-88
-82
-88
-41
-28
-81
1
206
304
441
672
480
-127
-373
-166
-77
-141
-100
-45
-78
-101
-80
-61
-56
-45
-27
-20
-14
9
37
82
166
245
288
339
406
421
371
306
234
124
10
-63
-119
-155
-134
-118
-160
-183
-158
-162
-177
-124
-57
-55
-39
95
285
453
641
813
886
1018
1318
1433
1014
315
-171
-334
-376
-404
-408
-407
-419
-441
-472
-500
-524
-562
-615
-665
-707
-744
-770
-777
-763
-710
-603
-458
-299
-130
26
123
151
145
126
95
67
59
56
40
33
51
63
59
57
57
63
80
73
44
44
74
77
37
-20
-34
10
29
-21
-40
34
111
113
82
77
89
91
98
100
70
68
108
74
34
144
268
394
750
955
461
-198
-292
-118
-121
-152
-112
-113
-121
-95
-91
-106
-97
-76
-60
-38
-17
2
42
109
174
223
274
327
364
382
371
312
219
131
62
-5
-80
-134
-146
-151
-175
-184
-170
-174
-178
-135
-84
-48
20
123
278
524
745
856
1028
1256
1174
693
167
-175
-355
-422
-437
-459
-475
-481
-500
-517
-526
-561
-618
-658
-686
-736
-782
-775
-727
-667
-567
-396
-201
-46
64
146
173
143
107
88
64
36
22
20
25
27
25
32
47
48
35
35
53
62
55
59
74
74
59
45
32
25
41
58
49
43
82
128
123
80
52
48
38
32
28
3
3
43
30
8
102
239
385
585
545
95
-271
-199
-35
-43
-72
-43
-27
-18
-8
-19
-16
22
45
39
41
59
84
108
128
165
221
263
285
304
306
284
258
216
138
57
5
-28
-57
-84
-102
-103
-98
-97
-101
-109
-104
-76
-61
-83
-88
-43
-9
-34
-87
-121
-132
-139
-144
-143
-146
-137
-109
-122
-151
-75
63
177
316
301
-92
-486
-444
-235
-204
-228
-201
-201
-217
-202
-190
-201
-203
-173
-129
-95
-63
-24
18
82
165
236
305
376
410
395
359
289
171
62
7
-31
-87
-120
-121
-137
-152
-124
-96
-94
-76
-53
-67
-79
-45
9
54
77
47
-15
-42
-37
-40
-32
-27
-49
-28
14
-26
-7
177
317
444
687
614
38
-347
-206
-42
-76
-76
-17
-17
-44
-43
-25
-19
-22
-11
17
33
31
37
69
133
216
288
339
380
408
398
345
256
136
8
-84
-124
-161
-220
-237
-199
-187
-201
-189
-175
-170
-146
-143
-168
-141
-74
-52
-59
-60
-87
-137
-165
-144
-101
-106
-140
-117
-91
-106
-19
146
225
336
433
135
-346
-405
-182
-139
-191
-156
-118
-113
-114
-139
-139
-82
-48
-64
-66
-29
12
53
113
182
243
301
366
415
424
385
287
148
43
-14
-81
-153
-198
-243
-279
-265
-232
-225
-223
-203
-170
-151
-181
-204
-126
-5
22
-41
-85
-77
-75
-92
-86
-75
-86
-66
-33
-65
-35
124
242
408
726
684
82
-330
-206
-73
-133
-134
-86
-90
-79
-47
-46
-47
-32
-31
-36
-16
22
58
96
154
223
279
330
385
422
409
349
265
170
74
3
-37
-70
-100
-107
-105
-116
-123
-117
-110
-91
-49
-26
-43
-12
138
303
390
510
720
886
1038
1333
1575
1378
761
117
-264
-406
-468
-520
-528
-497
-480
-482
-490
-512
-548
-584
-631
-696
-753
-779
-794
-803
-769
-668
-520
-354
-197
-71
18
78
100
75
35
15
4
-6
0
7
-8
-20
-4
11
7
8
20
16
6
16
32
27
6
-11
-12
1
9
0
6
46
90
100
84
72
69
54
34
34
39
43
55
25
-8
83
217
311
498
605
265
-223
-311
-141
-63
-50
-39
-50
-34
-2
-3
-1
19
27
38
52
41
45
89
123
148
221
305
330
333
355
356
318
270
209
130
63
21
-18
-54
-78
-95
-105
-94
-83
-95
-108
-92
-66
-66
-84
-75
-37
-22
-50
-84
-98
-100
-100
-96
-95
-100
-89
-70
-85
-70
39
156
267
380
246
-169
-398
-270
-146
-175
-193
-161
-131
-117
-126
-127
-103
-94
-108
-96
-41
17
32
22
63
156
229
272
323
362
352
307
240
136
18
-58
-88
-111
-139
-150
-136
-128
-146
-152
-132
-139
-161
-131
-95
-114
-115
-48
2
-20
-72
-101
-94
-93
-105
-98
-99
-100
-44
-13
-33
47
179
303
592
769
318
-316
-388
-159
-133
-179
-156
-163
-175
-163
-172
-161
-122
-130
-144
-103
-72
-70
-29
43
97
148
221
298
351
365
333
260
158
47
-51
-116
-139
-132
-136
-164
-159
-112
-95
-104
-65
29
124
185
274
523
862
1078
1257
1538
1587
1076
329
-160
-341
-393
-406
-412
-426
-432
-424
-426
-451
-492
-538
-584
-636
-694
-741
-770
-777
-737
-646
-519
-353
-164
-15
65
108
125
98
62
57
69
75
91
118
136
136
129
131
143
143
126
113
108
96
83
69
44
30
41
38
5
-23
-23
-2
17
-4
-42
-8
93
141
97
42
24
18
19
41
46
22
29
32
-14
27
167
252
435
772
698
65
-363
-266
-139
-187
-198
-158
-159
-172
-163
-141
-118
-104
-94
-77
-57
-32
-2
30
75
136
194
239
280
313
318
298
261
202
129
62
2
-63
-110
-109
-92
-106
-125
-121
-119
-128
-110
-38
54
121
219
438
691
851
959
970
701
242
-103
-267
-358
-392
-382
-388
-402
-381
-363
-395
-436
-452
-485
-537
-560
-571
-598
-592
-526
-446
-353
-214
-62
58
148
204
201
162
127
98
73
66
71
63
52
57
62
51
37
36
39
41
43
40
35
40
43
33
31
42
34
0
-26
-18
1
-3
-16
6
57
81
64
33
6
-12
-13
0
-9
-17
37
75
30
70
235
372
596
856
619
-36
-322
-151
-59
-109
-105
-93
-104
-93
-82
-73
-62
-71
-77
-55
-39
-30
5
49
85
133
203
273
322
344
337
309
272
200
81
-22
-66
-105
-167
-196
-192
-204
-202
-163
-153
-186
-181
-132
-109
-121
-106
-43
8
-14
-65
-85
-92
-102
-90
-92
-121
-101
-65
-117
-118
58
212
311
507
467
-58
-466
-357
-190
-225
-227
-167
-165
-187
-190
-169
-131
-111
-111
-96
-59
-22
-9
3
74
182
256
310
371
399
380
335
245
114
0
-69
-110
-141
-167
-185
-182
-164
-147
-140
-141
-130
-91
-52
-59
-81
-51
20
59
33
-20
-52
-62
-69
-53
-31
-49
-45
2
-12
0
153
285
425
745
791
216
-288
-214
-51
-113
-139
-66
-50
-85
-102
-84
-52
-44
-52
-42
-24
-2
37
75
102
146
213
283
328
336
326
299
233
152
92
32
-32
-62
-81
-117
-120
-84
-83
-120
-132
-117
-101
-95
-93
-70
-10
57
116
177
245
349
485
582
697
991
1303
1211
669
82
-256
-380
-413
-417
-419
-429
-448
-467
-476
-485
-515
-552
-583
-620
-663
-691
-708
-715
-692
-632
-541
-421
-276
-128
-25
15
39
46
-14
-74
-59
-47
-83
-87
-58
-53
-48
-31
-34
-27
21
59
63
65
60
33
18
39
58
41
25
47
83
107
111
88
57
55
73
86
88
93
99
80
77
151
249
358
534
563
214
-173
-190
-31
1
-25
-11
-7
-14
-3
12
21
38
50
54
66
86
101
125
170
216
256
304
350
374
384
380
339
265
203
156
92
23
-19
-40
-52
-51
-40
-36
-38
-35
-31
-9
70
159
219
371
628
778
847
1030
1105
759
224
-123
-285
-374
-398
-402
-434
-461
-474
-499
-518
-531
-573
-628
-662
-690
-724
-745
-739
-683
-568
-433
-296
-148
-17
64
109
125
94
47
29
25
6
-6
1
1
-3
8
27
36
39
37
36
46
61
74
85
87
82
75
62
40
36
51
43
19
47
111
135
134
137
101
41
30
59
61
24
21
60
49
42
165
310
447
686
677
146
-303
-216
-41
-82
-105
-59
-61
-76
-69
-62
-55
-55
-48
-11
7
-9
10
75
135
188
256
322
366
394
402
354
248
146
67
-24
-128
-206
-240
-255
-273
-286
-285
-277
-256
-233
-222
-225
-231
-204
-130
-75
-94
-138
-142
-139
-175
-206
-189
-177
-190
-172
-171
-223
-158
47
188
307
411
145
-385
-538
-314
-227
-293
-274
-234
-255
-254
-220
-209
-202
-181
-164
-141
-103
-75
-52
2
77
151
231
301
332
332
301
214
100
15
-53
-128
-177
-188
-194
-199
-180
-159
-161
-159
-130
-81
-39
-26
-18
34
111
147
133
111
96
70
63
106
134
104
118
175
141
130
282
412
530
821
858
302
-169
-73
92
35
19
68
59
57
69
49
52
85
87
89
137
190
208
222
293
405
476
498
541
598
602
542
448
339
236
157
96
43
6
-9
-16
-30
-37
-27
-12
22
97
164
227
404
664
838
978
1130
989
444
-102
-372
-501
-591
-622
-646
-696
-729
-739
-766
-810
-843
-874
-922
-976
-1012
-1038
-1056
-1038
-968
-864
-737
-595
-470
-387
-348
-348
-376
