# session 182
-59
107
293
423
463
482
526
575
613
642
664
690
725
757
768
759
759
764
734
674
619
556
465
381
320
266
224
201
169
124
102
111
118
106
107
142
183
197
205
244
286
289
284
297
300
293
306
334
368
410
448
462
443
398
351
327
315
293
266
272
289
239
131
65
62
60
38
18
9
-1
-18
-32
-39
-66
-112
-140
-162
-214
-247
-198
-119
-86
-104
-153
-207
-238
-255
-260
-251
-266
-290
-271
-274
-326
-278
-117
62
289
367
-16
-531
-632
-466
-405
-412
-393
-391
-389
-358
-339
-345
-352
-348
-321
-269
-224
-210
-198
-157
-114
-98
-84
-45
6
64
147
230
249
206
172
162
125
57
1
-42
-100
-153
-180
-196
-200
-185
-182
-181
-128
-53
-26
-18
23
53
30
-13
-41
-60
-86
-122
-149
-133
-100
-110
-147
-156
-154
-173
-179
-153
-119
-87
-74
-97
-107
-92
-117
-106
58
285
509
703
575
65
-295
-257
-183
-237
-237
-160
-100
-61
-32
-9
30
76
108
133
159
184
199
194
187
204
242
286
338
402
460
504
538
554
550
514
420
280
152
51
-30
-80
-131
-200
-217
-181
-195
-252
-255
-204
-150
-97
-31
66
242
541
881
1112
1326
1695
1904
1495
720
186
-7
-78
-89
-62
-67
-105
-137
-156
-173
-208
-262
-307
-338
-376
-419
-466
-524
-566
-570
-557
-517
-421
-296
-187
-89
6
70
89
76
35
-41
-133
-204
-245
-273
-302
-329
-339
-340
-358
-382
-380
-369
-365
-358
-357
-363
-357
-348
-357
-361
-348
-333
-300
-237
-184
-161
-143
-147
-177
-167
-122
-97
-74
-26
-3
-10
14
74
118
132
157
220
294
327
319
296
271
253
246
224
186
164
144
104
90
93
59
60
154
260
417
615
494
5
-281
-149
-5
-12
0
24
-1
-6
-5
-65
-116
-94
-74
-98
-120
-128
-129
-110
-96
-106
-108
-68
1
63
115
186
265
304
303
291
276
251
211
169
135
104
74
61
74
97
109
104
93
88
80
72
73
72
58
52
73
86
58
29
57
106
93
26
-41
-85
-89
-63
-65
-103
-122
-127
-138
-99
-24
-23
-51
3
109
278
496
437
-19
-383
-363
-264
-282
-295
-284
-291
-268
-223
-213
-232
-240
-225
-199
-169
-129
-84
-53
-35
-16
11
44
75
107
152
205
241
254
244
207
140
52
-36
-107
-165
-206
-220
-221
-232
-252
-258
-237
-199
-168
-144
-114
-82
-54
-37
-36
-18
33
63
58
88
143
138
95
85
93
89
97
98
69
66
95
81
58
88
91
93
207
340
455
647
629
176
-206
-130
37
28
13
28
-4
-25
-22
-47
-53
6
65
78
89
111
118
114
117
113
92
76
69
71
92
112
117
142
165
127
53
-10
-93
-185
-224
-240
-267
-264
-236
-219
-197
-168
-163
-153
-127
-119
-117
-106
-119
-135
-139
-206
-321
-366
-348
-335
-312
-294
-325
-349
-321
-308
-333
-347
-321
-246
-160
-133
-119
-57
-52
-90
17
209
395
695
825
369
-189
-205
2
-6
-55
-14
3
4
33
54
69
89
109
141
171
182
195
218
241
283
333
351
356
391
440
474
490
481
446
405
360
288
197
102
-1
-68
-36
29
24
2
34
60
40
34
63
86
90
84
59
9
-57
-112
-128
-111
-108
-130
-124
-77
-48
-72
-111
-134
-153
-173
-177
-182
-212
-225
-201
-177
-150
-134
-175
-168
-52
45
223
556
535
-56
-515
-450
-312
-344
-344
-284
-284
-321
-310
-239
-176
-168
-183
-192
-193
-177
-137
-95
-65
-36
-1
16
6
11
55
107
144
177
205
198
143
70
11
-41
-94
-128
-131
-130
-143
-169
-184
-173
-140
-105
-76
-48
-13
24
53
70
85
101
104
90
63
35
31
49
63
77
96
89
79
133
201
192
164
198
249
269
271
265
243
198
120
53
41
18
-48
-41
52
130
287
522
450
37
-190
-80
22
21
40
56
39
41
50
41
44
66
84
94
106
127
144
148
169
227
270
267
259
267
263
244
223
190
149
122
96
42
-29
-93
-149
-193
-223
-261
-294
-289
-274
-262
-252
-267
-253
-197
-221
-227
-115
-195
-311
-12
-144
-1251
-1652
-600
102
-198
-319
-130
-179
-228
-119
-92
-107
-38
27
32
12
-9
-20
-28
-38
-42
-45
-53
-56
-69
-82
-64
-67
-103
-47
92
217
429
620
381
-143
-341
-193
-109
-136
-128
-89
-57
-45
-56
-50
-32
-51
-71
-48
-22
-5
22
40
47
80
135
179
217
257
298
348
400
436
449
430
383
322
249
165
106
98
106
96
87
96
101
98
104
122
148
177
180
156
135
130
138
157
166
158
146
130
114
122
130
105
87
100
89
47
32
45
46
48
78
116
130
108
59
15
-6
-19
-33
-46
-71
-89
-78
-67
-77
-113
-198
-248
-167
-27
159
384
301
-205
-564
-484
-369
-426
-464
-444
-441
-431
-407
-396
-382
-357
-345
-338
-325
-335
-359
-338
-280
-239
-199
-129
-58
-6
56
146
246
302
282
241
242
248
199
123
79
63
24
-48
-109
-107
-51
-16
-34
-50
-33
-7
8
14
34
99
171
192
171
145
124
112
102
82
59
44
22
1
5
25
39
39
36
61
121
153
144
156
191
187
154
144
162
179
172
144
118
108
86
33
-22
-76
-170
-248
-224
-145
0
232
209
-249
-628
-571
-423
-427
-428
-382
-362
-324
-275
-278
-305
-306
-294
-281
-259
-231
-196
-142
-82
-32
11
55
99
148
199
248
294
333
353
350
324
271
202
144
112
98
94
107
127
141
160
183
175
152
147
132
99
85
84
89
126
159
154
167
208
211
197
211
191
126
106
134
141
141
164
175
154
144
189
280
362
420
477
506
472
410
357
295
221
147
65
-23
-79
-84
-82
-97
-96
-96
-101
-39
59
144
364
603
422
-60
-251
-125
-76
-130
-132
-121
-162
-219
-265
-303
-316
-309
-331
-355
-317
-277
-226
-73
-17
-91
28
72
-85
260
486
-99
433
1248
-1911
-6016
-4102
603
1270
-78
143
413
-21
-23
97
-68
-95
-56
-149
-198
-207
-263
-299
-310
-336
-348
-347
-364
-389
-396
-391
-392
-397
-393
-395
-409
-408
-372
-326
-281
-206
-86
35
106
147
213
298
340
346
401
516
587
569
546
570
597
607
628
649
657
675
693
680
647
554
412
375
430
469
640
846
572
-48
-284
-120
-66
-138
-126
-96
-113
-116
-101
-104
-119
-111
-87
-77
-62
-17
24
38
49
58
71
110
150
172
209
263
289
309
368
418
393
331
272
185
92
66
78
47
-10
-36
-48
-74
-108
-148
-179
-181
-174
-176
-160
-137
-147
-163
-145
-126
-132
-148
-164
-164
-153
-162
-182
-186
-183
-189
-196
-201
-198
-185
-180
-181
-152
-98
-58
-54
-73
-93
-109
-122
-119
-103
-97
-99
-104
-113
-92
-47
-55
-75
2
117
258
497
555
182
-195
-168
-21
-29
-70
-84
-123
-149
-152
-176
-193
-180
-172
-174
-162
-143
-137
-131
-112
-90
-68
-31
11
38
64
109
163
219
259
252
221
210
189
123
72
80
100
106
138
213
276
290
283
312
413
565
719
857
959
944
799
623
480
362
273
195
103
25
-21
-70
-130
-185
-237
-289
-344
-404
-465
-527
-593
-632
-637
-657
-698
-698
-666
-681
-739
-786
-829
-866
-879
-894
-922
-936
-956
-985
-979
-971
-995
-955
-814
-670
-530
-398
-515
-1002
-1339
-1046
-765
-941
-548
167
-758
-2214
-1287
717
1037
582
701
681
385
355
376
341
495
687
761
861
1000
1117
1279
1497
1712
1914
2081
2198
2293
2331
2314
2367
2470
2460
2308
2031
1716
1541
1322
967
949
906
306
419
930
-1032
-3853
-2875
130
628
-222
-57
122
-188
-197
-125
-270
-316
-297
-381
-440
-429
-437
-477
-503
-494
-498
-562
-599
-548
-502
-526
-568
-586
-594
-598
-591
-579
-570
-549
-523
-509
-488
-468
-483
-455
-335
-187
55
313
138
-422
-682
-524
-439
-480
-432
-378
-378
-349
-331
-341
-302
-269
-304
-304
-228
-199
-235
-207
-106
-81
-130
-88
5
33
111
190
127
226
382
112
161
687
-276
-2235
-1905
110
576
-32
87
306
121
133
234
148
125
176
143
119
147
142
120
115
116
132
150
143
142
144
112
101
118
73
20
67
111
79
78
137
186
179
111
99
145
71
58
202
46
-44
470
148
-1514
-1839
-112
894
513
485
918
907
508
151
60
182
234
183
181
188
157
157
171
159
143
143
160
161
111
83
136
193
186
145
118
149
212
251
317
384
341
339
414
297
270
488
154
-270
694
1744
837
-446
-317
-6
-266
-272
-105
-205
-259
-184
-215
-263
-243
-245
-259
-253
-261
-266
-243
-237
-257
-256
-236
-225
-222
-230
-242
-228
-227
-255
-228
-158
-146
-157
-186
-254
-212
-156
-269
-195
-53
-367
-263
357
-792
-3031
-2501
70
815
200
461
856
436
-21
-64
11
58
65
42
40
45
34
23
13
9
19
19
16
39
51
42
56
76
86
129
142
106
166
241
245
371
388
128
335
664
-348
-1567
-865
394
299
-84
126
185
46
105
162
170
250
320
461
724
917
1114
1367
1248
646
100
-132
-241
-289
-267
-273
-294
-271
-254
-266
-260
-241
-250
-282
-284
-250
-252
-321
-400
-425
-391
-350
-338
-303
-200
-87
-5
70
128
152
146
104
58
59
82
71
48
55
71
59
48
81
117
101
63
43
29
10
8
16
11
1
1
5
9
18
25
23
19
11
5
15
22
8
4
21
19
-18
-49
-32
3
-8
-40
-43
-46
-49
-22
-19
-23
30
21
-15
102
76
-135
102
239
-756
-1536
-653
348
174
-71
147
178
70
108
114
75
95
85
45
66
104
100
82
55
18
6
15
10
7
16
9
14
43
20
0
112
260
418
701
783
311
-234
-289
-105
-73
-140
-176
-176
-163
-164
-182
-194
-172
-129
-122
-122
-75
-76
-87
14
-6
-112
145
242
-452
-781
38
666
447
324
489
455
363
377
321
220
173
136
97
78
60
43
36
27
15
4
1
1
-18
-45
-49
-59
-93
-98
-84
-135
-204
-190
-159
-182
-171
-94
-70
-99
-56
-31
-129
-108
-27
-204
-162
134
-625
-2013
-1748
-221
278
-104
-63
194
231
318
491
430
63
-253
-219
-52
-45
-96
-78
-65
-77
-64
-42
-36
-40
-42
-27
-9
-14
-13
32
75
87
103
123
138
187
257
293
313
354
368
316
281
290
194
67
99
30
-163
32
144
-600
-1091
-332
377
178
13
187
190
159
285
369
491
763
973
1142
1440
1543
1089
386
-74
-225
-222
-196
-223
-270
-275
-283
-330
-356
-333
-313
-339
-396
-450
-471
-459
-458
-492
-508
-478
-454
-429
-355
-256
-160
-48
47
92
124
142
111
59
22
-8
-19
0
24
41
48
39
33
43
49
33
6
-17
-20
-6
-3
-16
-23
-21
-14
-1
1
-14
-19
-11
-18
-32
-29
-19
-27
-44
-43
-49
-72
-53
-22
-45
-36
-19
-86
-31
54
-153
-47
419
-350
-1920
-1605
133
625
155
194
337
215
257
329
233
204
241
208
186
200
197
193
178
153
170
171
118
146
270
376
553
721
484
-46
-274
-140
-39
-76
-122
-128
-111
-101
-87
-68
-110
-123
-33
-59
-120
18
-61
-256
190
120
-1674
-2692
-1032
637
476
174
464
500
393
478
478
390
365
310
220
172
129
76
38
10
-8
-16
-26
-23
-11
-23
-37
-21
-8
-24
-38
-29
-8
-8
-33
-36
-16
-16
19
107
109
28
19
37
-11
-38
-40
-80
-66
-32
-84
-41
9
-184
-92
296
-194
-1022
-378
777
461
-370
-295
-13
-105
-138
-71
-102
-113
-76
-80
-81
-44
-12
-12
-29
-28
5
38
57
76
90
110
157
203
228
267
322
344
339
349
336
261
175
121
66
-23
-104
-113
-79
-82
-116
-126
-120
-117
-105
-89
-90
-106
-108
-89
-85
-112
-127
-115
-111
-129
-151
-143
-88
-29
-16
-38
-65
-86
-98
-98
-96
-99
-97
-84
-81
-70
-27
-27
-56
43
223
359
563
691
345
-183
-260
-50
-18
-79
-54
-40
-68
-75
-66
-63
-66
-69
-65
-63
-64
-45
-19
-27
-35
23
102
118
118
177
245
272
301
333
341
356
365
306
203
127
75
20
-19
-42
-71
-96
-103
-102
-95
-81
-68
-54
-37
-30
-34
-36
-36
-45
-67
-87
-86
-78
-89
-100
-74
-30
-16
-40
-73
-98
-123
-131
-110
-106
-129
-127
-123
-143
-135
-123
-145
-103
-15
93
413
751
509
-142
-419
-274
-197
-257
-289
-303
-313
-291
-268
-263
-252
-222
-185
-161
-159
-151
-115
-77
-53
-17
29
51
66
96
123
135
146
159
160
141
110
70
19
-37
-82
-106
-116
-126
-134
-130
-118
-110
-98
-76
-60
-60
-67
-62
-38
-23
-34
-45
-43
-46
-38
4
64
118
160
246
450
649
661
670
903
1057
796
347
44
-104
-165
-163
-164
-184
-185
-171
-162
-149
-136
-131
-130
-135
-147
-149
-145
-156
-175
-176
-155
-137
-127
-86
-11
50
94
169
260
310
325
333
321
279
230
199
177
154
138
127
122
129
122
92
76
74
76
88
72
24
36
92
84
44
60
79
46
18
23
18
-19
-67
-99
-110
-109
-114
-120
-113
-100
-96
-100
-100
-92
-96
-130
-163
-156
-140
-166
-223
-276
-317
-348
-366
-387
-412
-419
-435
-475
-478
-450
-485
-533
-465
-321
-184
-44
