# session 110
-46
-72
-127
-197
-258
-300
-324
-331
-333
-336
-333
-319
-307
-303
-297
-288
-282
-261
-223
-207
-218
-199
-146
-123
-144
-175
-199
-213
-219
-222
-212
-202
-206
-194
-189
-228
-198
-50
76
170
238
52
-327
-450
-279
-171
-175
-142
-107
-106
-85
-57
-60
-62
-37
-3
19
37
65
98
128
170
240
323
398
466
515
527
503
448
365
272
185
103
28
-21
-45
-64
-73
-46
14
89
169
285
530
878
1137
1352
1716
1932
1505
646
-8
-269
-356
-404
-421
-428
-448
-469
-480
-503
-552
-591
-606
-644
-708
-750
-755
-734
-678
-578
-444
-296
-147
7
134
169
136
108
92
58
27
21
19
8
2
12
26
27
9
-21
-37
-29
-28
-53
-70
-62
-60
-73
-78
-77
-82
-86
-81
-78
-84
-87
-79
-66
-58
-59
-71
-77
-52
-24
-42
-73
-37
49
93
73
38
18
8
5
15
21
7
10
38
9
-11
116
270
400
662
749
264
-278
-276
-76
-85
-129
-95
-83
-89
-87
-94
-91
-75
-60
-37
-20
-20
4
62
116
154
196
256
319
364
391
410
401
354
283
207
139
77
21
-15
-38
-69
-98
-106
-105
-116
-137
-158
-168
-168
-169
-164
-164
-171
-151
-95
-58
-73
-109
-126
-115
-103
-96
-79
-75
-80
-53
-43
-58
11
136
248
455
593
284
-208
-310
-135
-83
-130
-136
-122
-108
-102
-108
-96
-79
-82
-82
-71
-60
-44
-23
6
45
89
141
203
257
298
320
287
204
128
67
-9
-78
-117
-152
-190
-202
-193
-190
-188
-163
-134
-130
-137
-119
-87
-76
-83
-66
-15
19
8
-22
-34
-28
-28
-36
-26
-9
-26
-34
-6
-17
-33
58
176
268
421
418
40
-310
-253
-94
-114
-148
-107
-89
-91
-85
-93
-88
-57
-43
-44
-27
0
20
47
92
152
221
289
350
409
456
457
404
328
247
165
94
40
-4
-31
-37
-36
-33
-16
0
-4
-11
-4
1
1
16
35
22
-8
-6
24
34
0
-58
-94
-88
-83
-99
-99
-96
-104
-79
-69
-120
-87
59
163
311
523
378
-142
-413
-285
-190
-227
-228
-215
-235
-241
-229
-230
-242
-247
-245
-238
-220
-202
-208
-200
-160
-130
-68
98
265
308
273
232
176
92
-29
-144
-158
-100
-105
-187
-237
-219
-201
-240
-274
-196
-54
-10
-82
-138
-143
-164
-200
-178
-119
-114
-157
-179
-185
-207
-222
-222
-222
-216
-210
-214
-213
-168
-4
286
563
817
1124
1209
863
525
524
515
349
338
465
440
304
229
187
124
67
46
53
49
24
24
39
36
71
164
239
284
339
361
322
269
203
88
-40
-129
-181
-213
-234
-260
-279
-264
-238
-232
-222
-202
-200
-203
-181
-147
-132
-134
-121
-65
0
15
-26
-76
-97
-96
-113
-135
-134
-138
-138
-105
-117
-135
-5
168
300
577
752
345
-240
-320
-126
-109
-159
-142
-137
-136
-107
-97
-103
-91
-61
-32
-17
-17
-8
26
70
117
170
221
260
292
319
325
300
243
149
47
-24
-78
-130
-155
-145
-135
-140
-143
-131
-123
-140
-161
-170
-185
-200
-190
-182
-189
-162
-110
-97
-105
-98
-105
-134
-147
-141
-130
-127
-134
-117
-93
-113
-94
18
107
206
357
261
-143
-370
-262
-175
-206
-203
-191
-214
-217
-205
-207
-208
-205
-201
-180
-148
-138
-137
-102
-48
-15
33
111
163
187
214
206
156
118
77
-2
-69
-82
-91
-113
-110
-96
-98
-89
-65
-75
-105
-96
-63
-63
-82
-65
-19
11
14
32
80
109
93
71
59
49
47
50
52
52
40
35
56
49
33
102
216
322
484
527
227
-111
-97
64
79
52
88
109
101
116
143
160
175
190
206
222
240
265
296
323
351
396
456
502
527
554
579
569
521
452
365
279
224
187
151
134
132
125
120
117
109
105
102
78
58
60
49
25
32
47
28
42
147
244
243
192
148
116
105
106
105
116
139
171
187
125
82
189
305
381
583
618
153
-297
-254
-105
-145
-165
-139
-176
-196
-175
-190
-219
-224
-237
-262
-271
-259
-246
-240
-221
-181
-141
-111
-77
-39
-22
-45
-114
-233
-371
-493
-603
-695
-749
-793
-853
-892
-901
-913
-929
-952
-990
-1014
-1020
-1036
-1058
-1087
-1127
-1140
-1136
-1171
-1186
-1122
-1076
-1112
-1157
-1187
-1232
-1265
-1282
-1314
-1360
-1406
-1427
-1426
-1477
-1529
-1434
-1281
-1139
-884
-788
-1193
-1594
-1454
-1152
-1033
-832
-456
-160
-36
33
173
425
721
1000
1268
1501
1684
1882
2126
2366
2589
2813
3015
3198
3390
3583
3750
3876
3984
4131
4218
3960
3324
2684
2333
2206
2184
2245
2322
2351
2378
2384
2353
2506
2816
2722
2047
1358
975
648
275
12
-137
-290
-467
-625
-765
-895
-1008
-1108
-1189
-1247
-1311
-1378
-1405
-1443
-1518
-1496
-1389
-1322
-1137
-862
-1020
-1594
-1862
-1707
-1617
-1651
-1620
-1587
-1589
-1556
-1526
-1526
-1499
-1449
-1410
-1370
-1325
-1277
-1209
-1144
-1090
-991
-854
-767
-731
-671
-586
-531
-523
-547
-598
-665
-699
-667
-625
-624
-627
-596
-543
-495
-474
-472
-445
-397
-380
-379
-346
-308
-314
-298
-177
-56
-67
-74
80
235
219
147
145
163
160
162
176
186
175
167
186
180
172
261
379
483
689
808
509
104
82
264
303
284
321
344
349
380
403
401
409
426
442
468
494
506
514
533
573
636
680
690
718
770
776
729
669
592
504
441
396
347
311
292
275
269
268
250
235
236
229
214
203
185
161
138
100
57
46
46
31
32
64
77
52
21
2
-14
-27
-41
-48
-41
-52
-71
-66
-82
-110
-36
86
170
306
357
44
-352
-380
-218
-193
-228
-212
-199
-202
-206
-219
-222
-210
-211
-212
-191
-165
-155
-147
-113
-61
-11
42
113
186
224
214
190
166
103
-3
-96
-162
-217
-244
-247
-253
-257
-254
-254
-255
-250
-239
-225
-219
-218
-204
-197
-215
-215
-174
-148
-166
-158
-80
-5
2
-27
-57
-87
-95
-77
-78
-116
-157
-156
-120
-129
-164
-81
77
208
437
598
241
-327
-409
-180
-139
-176
-117
-98
-128
-112
-89
-88
-79
-73
-62
-32
-8
7
31
68
129
202
255
294
355
425
459
429
353
263
164
56
-31
-67
-80
-100
-113
-112
-112
-121
-127
-120
-106
-102
-98
-89
-97
-133
-154
-133
-108
-124
-148
-110
-31
8
-8
-34
-53
-65
-68
-71
-62
-44
-51
-38
13
-2
-31
105
278
404
696
879
439
-176
-252
-64
-71
-126
-96
-92
-109
-100
-94
-96
-79
-56
-57
-65
-38
0
12
40
113
181
225
286
363
403
396
381
349
267
166
93
27
-41
-74
-83
-107
-120
-101
-91
-110
-120
-107
-102
-106
-95
-89
-110
-114
-74
-51
-67
-61
-16
14
12
-12
-53
-81
-84
-96
-110
-94
-90
-101
-60
-37
-83
-29
119
209
405
671
477
-94
-317
-157
-109
-178
-154
-106
-117
-142
-142
-117
-100
-103
-94
-69
-57
-53
-37
3
60
103
149
221
266
273
310
344
291
201
151
107
45
0
-24
-32
-22
-24
-41
-34
-25
-52
-77
-60
-45
-71
-107
-122
-135
-161
-169
-147
-122
-111
-85
-40
-19
-30
-35
-47
-76
-81
-66
-66
-69
-70
-75
-58
-59
-88
-31
85
167
317
437
183
-252
-356
-205
-159
-194
-175
-148
-155
-160
-143
-124
-126
-128
-104
-76
-60
-49
-31
7
59
110
166
223
265
304
340
346
320
272
200
120
62
26
-8
-37
-48
-47
-51
-60
-57
-48
-47
-53
-53
-41
-24
-26
-46
-48
-26
-12
-15
0
41
74
68
30
-16
-38
-33
-39
-54
-43
-48
-84
-68
-40
-75
-19
157
263
407
634
466
-107
-366
-195
-108
-164
-142
-103
-109
-95
-78
-87
-89
-84
-70
-38
-18
-17
1
34
78
136
186
220
272
331
361
364
332
246
149
83
17
-54
-97
-122
-142
-143
-145
-154
-149
-143
-148
-147
-145
-150
-153
-147
-148
-159
-162
-151
-153
-151
-104
-36
-15
-47
-80
-82
-73
-81
-86
-68
-65
-75
-40
-20
-66
-17
167
304
476
712
541
-69
-383
-211
-87
-139
-133
-94
-113
-137
-140
-137
-121
-105
-105
-96
-69
-47
-32
7
59
99
148
225
315
389
420
395
342
293
235
147
48
-24
-57
-74
-91
-108
-119
-116
-104
-94
-88
-78
-66
-55
-52
-60
-62
-46
-35
-58
-85
-59
2
17
-14
-41
-66
-95
-111
-119
-107
-77
-70
-61
-33
-57
-52
89
226
372
637
630
113
-300
-218
-71
-102
-112
-84
-95
-86
-61
-76
-86
-65
-58
-67
-45
-4
8
4
30
87
145
197
242
274
299
312
292
231
156
87
19
-37
-60
-65
-74
-89
-108
-119
-115
-115
-126
-124
-119
-127
-129
-127
-148
-167
-142
-99
-95
-109
-81
-30
-16
-38
-58
-70
-73
-58
-46
-44
-38
-42
-47
-32
-45
-74
-12
104
194
323
354
57
-292
-310
-171
-143
-156
-143
-150
-152
-133
-124
-121
-113
-103
-89
-68
-39
-10
8
24
61
122
186
238
275
312
350
363
335
279
210
134
70
28
-5
-28
-36
-43
-52
-48
-36
-31
-30
-32
-36
-29
-17
-20
-35
-33
-6
13
3
5
48
80
59
13
-18
-27
-24
-31
-46
-44
-45
-57
-42
-39
-64
-4
125
230
434
614
339
-186
-324
-147
-101
-150
-123
-95
-101
-95
-85
-77
-68
-73
-72
-40
-11
-6
15
67
104
129
185
258
314
355
379
371
336
279
194
91
8
-39
-58
-79
-111
-128
-127
-134
-142
-138
-145
-166
-178
-178
-188
-220
-243
-219
-197
-230
-249
-194
-113
-73
-92
-140
-157
-136
-136
-153
-137
-108
-114
-110
-74
-88
-106
20
208
362
542
508
43
-362
-288
-102
-116
-140
-94
-89
-116
-109
-74
-60
-79
-82
-50
-25
-17
-3
22
59
111
178
257
337
398
423
422
401
341
247
147
45
-51
-93
-90
-111
-160
-169
-134
-119
-134
-123
-83
-64
-71
-75
-77
-65
-35
-33
-56
-28
54
97
77
49
32
7
-27
-48
-45
-37
-52
-54
-19
-36
-86
21
235
351
452
508
209
-238
-299
-108
-66
-95
-60
-50
-59
-33
-27
-49
-46
-25
-8
10
26
43
66
94
145
217
276
328
389
424
418
394
340
255
159
58
-29
-79
-115
-134
-122
-131
-174
-183
-160
-162
-170
-159
-159
-188
-217
-224
-211
-209
-241
-270
-235
-153
-103
-118
-153
-165
-155
-155
-166
-149
-113
-117
-117
-71
-82
-103
27
179
268
511
671
274
-275
-321
-126
-131
-189
-153
-147
-176
-160
-142
-156
-146
-106
-88
-85
-64
-39
-24
-1
55
135
215
296
377
405
377
364
350
280
199
149
86
16
-10
-18
-37
-46
-37
-29
-27
-28
-34
-40
-28
-13
-33
-71
-67
-27
-18
-45
-39
12
45
20
-22
-42
-53
-76
-99
-96
-73
-80
-104
-70
-34
-50
6
133
224
418
635
411
-111
-279
-128
-93
-127
-84
-77
-108
-90
-66
-70
-66
-53
-39
-23
-22
-15
33
76
82
109
183
244
261
273
304
314
268
197
142
85
10
-50
-76
-88
-89
-79
-73
-74
-73
-84
-111
-130
-124
-109
-102
-117
-153
-179
-166
-142
-150
-156
-112
-53
-40
-55
-67
-79
-86
-81
-73
-62
-53
-58
-46
-30
-61
-54
57
146
204
303
211
-149
-349
-235
-145
-171
-155
-131
-149
-147
-142
-147
-121
-98
-115
-103
-46
-11
-9
1
38
102
167
206
243
299
340
338
309
275
237
187
130
80
40
5
-17
-19
-18
-25
-29
-24
-27
-40
-39
-22
-10
-17
-30
-34
-8
32
33
8
30
88
99
54
8
-14
-18
-18
-27
-34
-34
-44
-38
-15
-39
-49
46
153
265
471
481
63
-316
-272
-127
-129
-130
-99
-114
-121
-101
-106
-113
-102
-92
-73
-47
-41
-31
9
54
95
150
201
243
304
361
368
333
286
224
143
62
-7
-58
-84
-100
-122
-134
-120
-104
-108
-117
-119
-125
-139
-148
-156
-179
-208
-211
-200
-207
-202
-156
-109
-93
-93
-120
-157
-149
-132
-155
-146
-99
-112
-122
-62
-63
-80
70
244
364
576
567
49
-380
-271
-84
-117
-132
-87
-89
-85
-70
-84
-86
-72
-69
-45
-8
-7
-5
43
93
127
187
266
335
391
429
446
436
370
253
137
45
-24
-59
-70
-83
-105
-117
-111
-103
-106
-103
-88
-81
-85
-91
-97
-94
-79
-85
-91
-47
17
40
41
33
0
-26
-22
-23
-30
-24
-36
-41
-9
-33
-75
26
180
317
610
771
332
-252
-309
-118
-119
-166
-130
-111
-116
-109
-101
-78
-53
-55
-57
-34
-14
-12
-2
43
108
157
194
250
313
349
363
355
303
227
162
87
2
-50
-68
-90
-108
-102
-101
-117
-126
-129
-132
-124
-122
-143
-150
-136
-134
-132
-132
-161
-156
-66
2
-27
-85
-124
-153
-164
-166
-170
-163
-151
-134
-118
-146
-158
-63
53
184
406
425
18
-350
-301
-151
-156
-167
-126
-128
-139
-119
-123
-152
-143
-122
-134
-132
-94
-69
-50
-12
17
49
122
192
222
243
271
291
269
186
99
61
33
-10
-34
-37
-35
-25
-29
-53
-53
-19
7
5
-13
-24
-17
-16
-20
6
32
9
-7
28
52
39
24
-1
-36
-24
23
42
47
60
66
80
87
58
71
172
289
399
420
173
-172
-226
-64
-9
-42
-24
5
4
5
8
12
25
34
35
47
61
67
86
124
153
174
216
274
323
358
381
380
341
286
237
172
84
24
10
-13
-57
-69
-56
-72
-109
-127
-125
-127
-127
-133
-172
-220
-218
-183
-182
-205
-193
-158
-163
-203
-226
-238
-274
-307
-305
-293
-313
-354
-378
-377
-385
-412
-385
-259
-127
-68
