# session 249
29
-18
-8
14
-12
-36
-38
-94
-114
-28
-61
-143
-4
-14
-200
134
211
-1033
-1805
-638
474
255
86
429
507
392
441
526
541
618
907
1100
699
49
-115
35
-6
-86
-12
9
-77
-126
-120
-86
-67
-71
-25
-45
-135
-7
46
-194
64
352
-636
-1308
-308
-238
-1773
-1949
-806
-391
-137
422
381
105
213
248
112
99
77
-29
-93
-131
-145
-100
-57
-44
-8
60
93
67
59
105
124
112
135
148
141
169
167
147
244
386
510
744
863
467
-134
-226
120
74
-601
-1144
-1040
-545
-4
320
304
237
370
550
628
626
581
531
475
401
355
358
386
430
461
481
534
554
461
354
280
159
83
108
84
83
133
18
60
306
-35
-178
676
-386
-4027
-4679
-1295
-277
-2604
-2923
-710
553
476
396
372
285
352
428
336
274
357
417
445
513
358
-68
-247
-19
156
124
126
177
176
187
224
213
205
227
208
231
315
251
193
333
241
119
557
273
-1526
-2432
-1507
-1036
-1045
35
953
604
356
641
636
477
497
463
359
307
242
186
194
176
118
145
237
257
211
191
190
161
112
94
139
182
172
176
176
111
108
164
157
332
585
71
-1256
-2172
-1811
-625
234
258
57
105
143
86
110
90
-62
-162
-139
-103
-106
-104
-53
29
79
88
125
219
291
279
245
269
309
267
198
184
101
-36
-11
-58
-252
31
151
-1377
-3031
-2089
115
719
232
248
508
473
426
568
569
327
436
677
-102
-1145
-668
420
412
43
227
343
257
613
1124
903
140
-207
-75
-50
-70
33
4
-16
88
-97
-157
290
-183
-1851
-2571
-2148
-2013
-1392
160
829
411
375
656
627
599
669
568
416
383
381
346
299
277
287
266
209
229
297
277
263
367
393
311
359
381
281
426
495
162
378
730
-490
-1825
-1181
-477
-1186
-1651
-1295
-652
351
969
706
635
1119
1276
919
620
604
663
620
516
439
361
260
238
303
322
319
348
257
173
325
362
270
463
334
-58
604
740
-1555
-2680
-561
103
-2073
-2886
-2147
-2187
-1832
-547
-373
-1282
-1649
-1538
-1529
-1337
-851
-351
22
191
210
278
409
497
537
532
533
616
674
641
661
720
700
684
679
652
732
810
873
1295
1536
663
-261
121
388
-1020
-2563
-2325
-1070
-440
-529
-546
-278
-15
145
304
485
625
666
634
627
665
656
597
588
626
619
604
638
634
547
482
461
402
318
275
252
232
223
175
124
141
90
23
180
177
-138
55
247
-992
-2164
-1156
294
247
-121
10
73
51
-82
-210
108
-77
-1271
-1492
-116
787
583
286
67
-90
32
128
46
57
125
100
75
97
93
81
111
132
129
176
155
32
107
178
-85
86
492
-825
-2944
-2408
59
916
338
336
592
455
405
479
387
296
278
180
58
28
46
45
20
-10
1
86
172
144
75
109
103
27
119
139
-54
141
281
-253
107
775
-1684
-4606
-2568
699
40
-1070
-573
-1354
-2109
-730
94
-627
-768
-425
-541
-507
-163
27
186
389
436
412
447
472
468
485
517
541
572
624
683
714
722
745
750
678
603
617
597
493
484
503
368
285
303
224
348
507
-462
-2135
-2239
-550
713
693
433
440
470
533
674
766
798
811
802
769
717
721
812
912
1130
1466
1368
685
202
270
359
319
406
439
356
478
534
324
485
615
101
450
1012
-1766
-5310
-3669
-119
-1117
-3754
-2917
-352
745
296
-707
-1352
-1374
-1405
-1493
-1223
-953
-675
64
205
-932
-1324
-37
824
499
388
643
584
507
689
809
779
785
830
771
689
749
743
614
745
725
-290
-1937
-3700
-5043
-3786
82
1883
-156
-2031
-2085
-1987
-1202
629
1396
831
534
513
299
279
450
541
686
882
955
966
979
944
917
954
986
969
961
994
1034
1048
1026
967
893
831
772
715
670
604
563
599
546
445
517
412
150
511
526
-1368
-3051
-1838
290
648
169
171
244
76
-76
-8
94
-72
43
532
-98
-1484
-1126
460
867
605
796
587
-41
-62
176
42
45
245
45
31
479
-787
-4256
-5806
-3202
39
918
452
262
669
704
-335
-590
589
33
-2347
-2759
-1547
-1235
-753
642
1194
467
-384
-449
293
796
568
405
548
524
410
425
446
424
402
384
420
490
488
430
401
397
381
374
377
352
326
375
402
303
283
410
476
679
1064
854
114
-84
-92
-894
-1737
-1694
-1287
-1031
-741
-289
154
312
198
119
144
144
140
164
174
201
267
315
337
365
384
388
386
362
333
321
298
262
226
180
192
248
178
143
296
228
119
456
359
-72
685
609
-2372
-3862
-1582
-717
-2592
-3141
-2283
-1535
-145
952
568
199
485
471
342
519
617
745
1149
1223
670
203
223
330
289
247
254
266
279
282
280
290
298
274
232
260
333
305
267
347
331
285
453
404
183
529
581
-551
-1257
-1000
-1258
-1305
-99
590
105
-30
167
-16
-30
133
-50
44
460
-105
-1132
-748
385
540
202
232
266
189
233
269
252
258
288
330
282
264
391
373
529
1126
1062
608
868
-475
-3827
-3942
-643
-81
-2321
-3095
-2452
-1429
118
808
294
160
452
398
357
515
530
493
565
616
622
657
696
706
704
695
671
620
557
506
440
364
358
406
384
287
227
263
347
343
260
297
332
176
260
511
-269
-2114
-3119
-2197
-473
404
235
156
420
234
160
618
-128
-1600
-856
675
-214
-1373
-364
576
211
92
341
224
135
257
264
249
314
290
234
301
344
267
295
401
355
381
469
240
312
834
40
-2016
-2845
-2439
-2160
-1138
564
1008
495
522
729
538
376
379
351
325
327
331
363
380
350
356
416
428
383
384
404
348
330
386
340
325
430
285
186
486
280
48
1152
846
-2790
-4470
-1636
-194
-2394
-3532
-2009
-295
462
517
333
315
330
302
345
315
369
533
339
322
883
295
-1552
-1592
375
1228
718
679
922
836
828
847
706
666
606
468
583
582
251
445
647
-440
-1056
241
389
-1838
-2908
-2116
-1984
-1917
-355
1154
958
-131
-491
204
779
591
389
541
623
584
615
670
756
1016
1358
1308
715
254
326
407
336
443
408
213
510
582
-552
-1649
-1289
226
1318
-209
-3158
-2934
-243
-312
-2679
-3176
-1610
73
1002
1008
740
801
843
717
702
718
642
593
587
552
504
488
493
464
408
405
443
440
408
434
531
592
544
483
465
403
409
511
328
138
606
229
-2951
-6095
-4464
-45
1031
-1252
-2399
-1907
-1593
-968
450
1534
1084
-890
-1986
-423
1250
943
576
858
607
713
1118
-296
-1957
-827
1091
1076
613
936
1035
888
1025
1029
925
1039
936
781
1006
695
223
1080
726
-2867
-4486
-1406
196
-2353
-3879
-2192
-147
667
747
708
791
847
799
713
560
500
523
403
453
697
564
507
732
-107
-1375
-754
772
1024
830
930
508
87
298
328
256
495
-89
-1325
-1063
246
375
184
755
-136
-2541
-3002
-1872
-2071
-2215
-450
1080
1165
950
535
145
600
1189
1147
871
687
904
1008
-185
-1329
-398
966
835
427
620
663
587
707
676
586
678
653
668
941
853
825
1665
1341
-1080
-1620
887
1527
-1187
-3430
-3598
-2512
-671
574
412
58
153
210
194
158
130
186
8
-43
397
-217
-2079
-2269
-432
411
-124
-214
50
8
46
217
253
323
466
473
478
604
502
342
765
418
-2798
-6254
-5006
-762
485
-1467
-2726
-2512
-1544
153
1317
1127
856
1105
1225
1191
1233
1181
1044
971
938
883
787
712
734
754
716
742
798
771
762
791
780
860
987
1034
1360
1577
670
-20
918
218
-3953
-5926
-2340
1204
379
-2127
-3115
-2123
-170
894
611
407
686
686
477
472
538
553
595
655
699
722
707
667
629
599
557
486
425
409
395
375
363
287
198
262
286
114
164
333
68
107
649
-381
-2524
-1993
500
299
-2159
-3096
-2631
-2152
-966
486
765
444
537
724
749
912
1208
1227
756
214
91
206
208
151
147
157
170
165
127
117
145
183
229
244
223
218
204
204
295
308
195
287
382
-272
-1650
-2925
-3325
-2449
-822
283
448
335
329
335
316
206
60
83
58
-98
96
257
-384
-875
-233
430
288
138
271
244
174
245
244
179
227
260
182
227
340
297
504
911
638
216
229
-1119
-3461
-3256
-1357
-1366
-1693
-88
976
349
125
554
607
576
668
577
481
514
513
525
595
605
597
657
692
673
686
720
715
662
564
469
405
356
374
374
285
368
450
136
182
687
-72
-1716
-1992
-1541
-1607
-881
498
651
80
66
171
109
204
220
34
14
108
20
50
519
901
689
239
-71
-251
-209
2
83
70
123
135
96
122
127
114
187
167
81
241
291
35
248
479
-582
-1896
-2130
-2221
-2182
-1052
-79
-247
-290
148
231
126
188
171
102
136
155
126
109
109
158
221
210
171
195
287
366
349
347
415
309
206
404
314
13
489
548
-1173
-2213
-841
597
610
-236
-1489
-1724
-396
343
-120
-165
185
140
82
126
65
116
144
69
225
111
-629
-797
14
459
212
161
334
351
367
443
439
451
529
512
468
521
428
229
291
210
-160
100
326
-914
-2004
-1464
-1096
-1249
-328
673
472
264
557
576
465
517
423
230
197
202
134
104
149
182
172
145
172
288
373
434
738
1063
778
105
-134
65
146
69
93
109
-48
-60
142
-5
-178
249
-102
-1894
-2453
-733
498
221
100
381
373
326
376
315
295
348
295
210
211
217
169
101
39
41
133
161
84
121
158
10
92
258
-75
112
877
-729
-3889
-2892
1399
1617
-1916
-2532
-626
-512
-831
419
1091
501
354
581
461
362
339
177
88
98
33
-48
-78
-84
-92
-132
-164
-154
-155
-150
-86
-15
54
168
308
429
471
456
526
530
267
230
533
-39
-1785
-2795
-1883
-370
224
71
60
276
168
-178
-186
-8
46
189
190
-24
293
393
-995
-1958
-640
767
547
212
464
463
298
353
380
337
312
225
223
380
496
689
989
890
460
127
-777
-2425
-2851
-1208
178
-117
-426
241
707
505
356
383
322
267
299
349
389
406
424
483
555
612
635
632
650
660
610
571
581
550
475
408
330
272
234
149
152
223
51
-25
295
-317
-2427
-3483
-1858
100
361
26
158
262
95
-11
1
17
22
57
107
104
131
275
372
422
581
554
133
-167
-48
112
113
96
103
136
125
54
122
191
48
131
278
-190
-260
456
-250
-1987
-1998
-1690
-2382
-1282
130
-1985
-3585
-807
1541
844
583
1006
503
683
1094
-832
-2667
-1131
994
878
386
697
718
509
632
721
662
674
608
425
337
322
268
242
267
298
365
385
272
224
288
301
492
803
531
-57
-113
-181
-802
-1157
-970
-713
-276
189
134
-73
89
161
-44
58
142
-296
-77
602
-858
-3268
-2505
153
740
80
243
486
346
288
112
-67
110
231
84
42
112
64
-15
-6
39
74
123
172
225
422
758
966
1076
1357
1503
1045
306
-155
-346
-439
-438
-418
-423
-399
-415
-428
-278
-250
-551
-589
-83
281
200
93
46
-90
-180
-165
-133
-62
44
107
153
196
171
110
95
80
23
-4
7
-20
-54
-27
-1
-28
-36
-2
-2
-32
-31
-13
-6
-3
-12
-23
-7
-2
-44
-83
-56
-20
-58
-109
-64
22
39
12
-15
-53
-73
-70
-87
-111
-108
-80
-67
-120
-156
-56
88
269
625
779
294
-293
-333
-162
-188
-228
-179
-176
-194
-174
-159
-154
-135
-118
-111
-98
-60
-11
19
39
79
134
181
222
245
226
206
242
265
187
83
43
11
-61
-122
-149
-169
-197
-223
-235
-227
-212
-211
-232
-246
-202
-117
-96
-176
-219
-175
-210
-259
-172
-206
-261
11
-50
-404
266
462
-1991
-3559
-776
2292
1834
654
1097
1364
809
1061
1521
107
-1635
-845
888
913
320
430
457
214
210
229
122
106
125
95
102
120
93
77
87
85
68
50
24
-10
-43
-74
-91
-96
-103
-113
-130
-150
-148
-127
-117
-125
-133
-110
-53
-39
-79
-81
-68
-111
-106
-72
-144
-137
-48
-365
-859
-684
-126
43
202
681
714
88
-350
-300
-224
-273
-281
-258
-261
-250
-204
-148
-103
-67
-32
10
49
62
64
93
124
119
127
159
151
126
138
133
84
54
47
14
-28
-36
-37
-61
-75
-64
-79
-105
-93
-87
-114
-114
-74
-37
-10
1
-19
-54
-85
-103
-92
-61
-45
-49
-33
20
42
14
31
100
228
535
795
566
109
10
140
117
29
5
-30
-78
-117
-160
-164
-141
-148
-145
-113
-100
-82
-34
-12
-12
17
49
69
105
122
106
125
164
149
109
84
57
49
80
90
79
95
101
68
57
78
66
26
22
70
116
114
82
71
59
15
-4
35
42
22
116
245
177
3
-30
46
179
350
252
-183
-432
-303
-194
-230
-226
-207
-244
-257
-226
-205
-199
-193
-174
-138
-109
-97
-88
-71
-39
-2
17
30
64
103
101
57
21
13
-8
-78
-154
-179
-174
-182
-205
-243
-244
-191
-220
-272
-161
-170
-351
-93
160
-587
-1270
-612
156
-17
-211
-34
-45
-158
-90
-20
-52
-13
218
531
831
1211
1449
1157
671
562
630
524
397
348
258
155
101
49
-11
-49
-80
-110
-127
-134
-131
-128
-133
-126
-100
-81
-76
-66
-54
-58
-75
-88
-99
-123
-154
-166
-161
-154
-151
-153
-159
-167
-172
-173
-170
-170
-168
-135
-57
