# session 118
-23
-16
18
44
79
138
128
40
-3
9
-12
-39
-30
-23
-15
-15
-40
26
198
291
336
379
157
-240
-312
-103
-41
-98
-73
-31
-42
-57
-58
-42
-19
-17
-18
10
41
65
109
171
226
290
375
436
435
390
330
238
120
28
-22
-75
-123
-120
-118
-163
-185
-140
-103
-117
-123
-84
-30
0
-5
-43
-91
-112
-106
-99
-108
-110
-83
-93
-147
-94
49
133
311
589
442
-144
-435
-274
-172
-227
-223
-192
-194
-168
-128
-127
-133
-113
-92
-79
-52
-19
9
52
114
174
233
288
314
296
257
209
140
63
6
-33
-64
-77
-78
-86
-95
-90
-73
-56
-46
-34
6
50
38
-20
-47
-39
-45
-52
-43
-54
-63
-50
-57
-41
38
122
290
517
413
-40
-276
-159
-76
-106
-100
-95
-100
-64
-50
-80
-76
-46
-37
-17
26
57
75
102
129
156
189
216
233
242
226
184
133
80
34
12
6
3
-2
-12
-17
1
30
40
46
87
157
219
250
289
398
538
620
715
885
922
637
194
-149
-337
-419
-448
-462
-475
-494
-517
-527
-543
-593
-642
-659
-684
-731
-765
-786
-793
-742
-629
-504
-367
-197
-49
29
77
112
101
60
30
8
-13
-26
-32
-28
-17
-17
-20
-13
-7
-10
-14
-20
-19
-10
-8
6
61
117
118
96
96
86
52
48
74
65
62
113
112
79
190
348
449
700
887
491
-102
-169
34
17
-36
36
49
-12
-26
-3
20
30
6
-9
26
67
99
158
224
275
348
445
502
488
443
396
324
212
108
38
-29
-77
-76
-83
-127
-125
-74
-69
-90
-16
157
302
366
472
669
820
971
1309
1572
1284
576
-36
-364
-500
-523
-524
-552
-570
-568
-573
-583
-609
-667
-714
-730
-751
-787
-818
-846
-848
-782
-649
-484
-315
-168
-54
20
47
34
4
-23
-38
-42
-46
-47
-43
-43
-45
-43
-46
-51
-47
-46
-62
-69
-55
-43
-53
-55
-10
66
104
83
53
36
12
5
33
30
-5
11
28
-6
45
180
290
532
809
564
-80
-331
-143
-59
-105
-82
-70
-92
-75
-68
-84
-60
-34
-47
-43
3
45
77
127
184
238
307
374
394
369
336
296
227
138
55
-8
-45
-61
-70
-79
-76
-51
-25
-21
-19
23
82
91
57
34
15
-17
-20
-3
-26
-60
-49
-51
-76
-28
57
134
308
427
164
-251
-344
-206
-149
-155
-136
-120
-106
-91
-95
-100
-86
-69
-58
-45
-24
11
60
116
172
225
272
306
315
296
249
188
138
85
18
-21
-13
-13
-44
-62
-43
-12
3
-8
-15
16
60
67
39
9
-22
-47
-44
-39
-69
-79
-44
-51
-84
-31
51
138
329
395
54
-338
-349
-208
-209
-245
-233
-236
-245
-237
-237
-238
-221
-198
-175
-148
-119
-85
-39
18
82
145
197
233
248
238
197
130
56
-4
-52
-78
-81
-91
-120
-138
-133
-120
-108
-98
-82
-51
-16
-13
-55
-101
-120
-135
-144
-139
-149
-146
-117
-137
-135
7
151
249
413
371
-80
-425
-314
-143
-163
-170
-113
-110
-129
-108
-86
-83
-66
-34
-16
-3
44
111
153
195
284
374
411
422
420
365
265
161
56
-26
-63
-86
-106
-100
-95
-115
-103
-44
-19
-48
-37
52
120
103
54
21
-5
-7
40
96
139
220
314
363
470
695
933
1156
1216
780
40
-355
-336
-315
-354
-328
-311
-336
-332
-324
-356
-381
-378
-388
-420
-452
-473
-482
-478
-459
-414
-342
-244
-130
-25
40
62
64
62
49
22
19
46
66
92
162
283
488
733
918
1181
1647
1909
1518
730
80
-271
-403
-413
-417
-460
-496
-496
-478
-500
-576
-611
-589
-625
-709
-711
-641
-582
-487
-306
-130
-32
33
96
129
119
88
55
35
13
-21
-47
-53
-51
-33
-5
-9
-34
-33
-17
-15
-23
-21
-3
4
-13
-16
8
11
-19
-27
-2
17
14
17
54
103
116
89
62
43
16
5
19
17
2
11
6
-9
50
150
260
460
535
175
-265
-292
-123
-100
-114
-91
-112
-120
-78
-64
-73
-58
-34
-18
-3
14
45
92
143
203
260
293
315
330
321
285
240
188
122
51
3
-19
-34
-48
-52
-51
-39
-3
23
15
15
54
81
61
20
-16
-50
-71
-61
-47
-57
-56
-49
-75
-70
12
85
141
183
24
-293
-396
-245
-152
-168
-154
-131
-139
-135
-127
-135
-129
-107
-96
-88
-62
-22
22
66
114
172
234
273
284
285
257
178
85
17
-41
-93
-118
-121
-125
-138
-154
-158
-142
-126
-123
-111
-66
-10
4
-34
-76
-87
-81
-76
-83
-98
-73
-32
-63
-68
69
194
321
603
654
152
-308
-251
-102
-145
-154
-97
-97
-102
-83
-87
-85
-66
-69
-61
-7
31
32
69
139
177
219
301
339
301
263
222
127
27
-34
-98
-152
-140
-108
-132
-169
-150
-102
-90
-96
-50
48
137
202
263
333
472
668
800
930
1221
1414
1104
462
-50
-319
-447
-474
-459
-459
-454
-457
-497
-539
-554
-568
-599
-637
-683
-726
-750
-765
-758
-685
-548
-399
-256
-113
17
102
123
99
72
51
25
11
23
31
25
28
35
33
42
71
79
46
29
59
66
13
-11
60
155
174
132
102
96
81
71
87
87
77
99
96
80
169
277
365
666
931
560
-112
-286
-113
-108
-171
-129
-108
-126
-117
-110
-113
-97
-80
-65
-39
-19
2
56
130
198
270
345
384
379
361
332
272
195
118
33
-31
-40
-38
-65
-88
-84
-78
-74
-59
-37
-13
23
45
11
-43
-59
-65
-84
-87
-88
-95
-78
-94
-133
-60
61
160
427
674
390
-168
-337
-209
-179
-193
-173
-207
-239
-195
-163
-178
-173
-152
-152
-140
-92
-50
-24
29
104
145
154
167
171
146
103
39
-40
-98
-122
-129
-137
-140
-131
-124
-128
-117
-79
-59
-67
-47
11
45
30
2
-7
-9
-16
-25
-37
-38
-12
-8
-56
-46
49
120
221
379
291
-99
-331
-237
-135
-140
-130
-118
-134
-129
-112
-112
-97
-71
-65
-54
-20
6
29
83
146
196
252
304
324
316
291
234
152
83
37
4
-17
-20
-22
-34
-41
-34
-18
5
19
4
-4
28
50
18
-28
-47
-56
-70
-83
-91
-95
-85
-88
-122
-92
26
110
188
286
166
-172
-327
-216
-134
-148
-141
-126
-131
-130
-121
-111
-96
-85
-77
-60
-35
-10
23
74
135
195
250
296
315
304
276
227
140
47
-3
-25
-58
-77
-73
-91
-128
-127
-100
-93
-102
-102
-81
-30
21
26
-8
-44
-76
-96
-82
-68
-76
-50
-26
-84
-71
102
243
381
604
501
-37
-350
-201
-75
-127
-128
-78
-79
-95
-89
-88
-88
-51
2
-2
-26
16
88
138
203
280
318
331
350
352
309
208
74
-27
-79
-127
-164
-166
-154
-152
-160
-168
-146
-103
-102
-117
-60
43
129
203
265
338
490
674
793
955
1239
1345
971
323
-173
-386
-444
-460
-460
-453
-467
-500
-514
-519
-544
-578
-605
-644
-692
-724
-749
-769
-744
-651
-518
-367
-203
-43
80
145
160
143
111
74
47
38
31
20
15
21
24
10
-7
-1
11
-7
-30
-24
-9
-6
-2
10
41
97
145
148
120
104
108
107
93
75
91
142
128
64
134
263
297
495
825
652
20
-273
-135
-69
-114
-97
-82
-88
-62
-52
-72
-73
-62
-57
-38
-18
-12
16
82
143
181
222
271
305
303
265
203
135
69
9
-37
-65
-85
-97
-100
-100
-102
-105
-100
-69
-39
-53
-63
-7
44
12
-43
-58
-72
-97
-94
-82
-100
-107
-82
-83
-88
-30
76
237
405
312
-73
-314
-225
-106
-109
-107
-75
-74
-81
-72
-63
-60
-44
-23
-13
-4
22
61
104
161
229
277
309
337
329
274
212
146
57
-20
-52
-58
-68
-86
-97
-88
-75
-81
-76
-33
0
-7
6
70
121
123
128
169
240
339
431
495
634
889
1032
824
358
-77
-326
-409
-413
-414
-434
-441
-434
-454
-497
-524
-541
-571
-602
-632
-663
-684
-694
-682
-624
-522
-395
-255
-124
-20
49
84
84
57
21
-6
-26
-42
-44
-36
-30
-26
-23
-27
-30
-19
2
-2
-28
-23
7
3
-11
31
102
134
114
77
60
64
61
56
60
61
81
102
70
95
244
354
506
842
869
274
-225
-154
-2
-54
-71
-24
-30
-39
-29
-38
-37
-4
28
20
-6
24
109
173
212
270
341
408
466
467
400
327
259
155
42
-29
-67
-92
-103
-110
-112
-113
-125
-110
-47
9
50
137
303
549
800
961
1139
1440
1575
1218
540
-48
-372
-494
-523
-527
-525
-532
-549
-562
-579
-613
-657
-701
-732
-754
-803
-852
-837
-778
-717
-595
-387
-180
-37
46
82
89
80
59
47
38
7
-21
-14
8
12
-2
-17
-7
18
31
29
11
-16
-22
-14
-26
-68
-106
-95
-50
-48
-85
-64
19
71
62
43
35
17
-14
-13
19
27
29
52
32
20
106
183
316
673
812
319
-211
-205
-46
-81
-104
-53
-61
-85
-64
-53
-56
-39
-27
-30
-13
16
35
73
141
208
261
298
320
336
335
304
252
178
97
40
6
-21
-42
-62
-77
-71
-58
-64
-80
-73
-49
-48
-69
-60
-11
31
18
-28
-44
-34
-58
-87
-70
-64
-83
-60
-46
-76
-37
57
139
290
352
42
-349
-378
-223
-183
-189
-173
-189
-196
-164
-142
-131
-104
-80
-71
-51
-20
11
45
93
156
230
290
310
301
282
238
157
73
20
-18
-50
-53
-43
-52
-52
-27
-18
-37
-33
8
33
17
9
44
80
73
38
12
-2
-18
-24
-17
-26
-40
-20
-16
-51
-16
86
166
318
458
237
-200
-326
-167
-103
-136
-123
-111
-126
-121
-112
-120
-120
-107
-99
-91
-69
-41
-14
35
111
178
220
256
284
278
241
197
138
46
-50
-103
-121
-138
-153
-153
-153
-160
-166
-172
-172
-151
-132
-124
-91
-45
-38
-54
-60
-70
-86
-93
-85
-72
-81
-78
-40
-56
-86
33
207
328
513
545
113
-336
-308
-128
-121
-125
-85
-100
-119
-101
-81
-60
-49
-59
-51
-14
22
49
78
139
242
334
381
400
398
369
314
213
81
-30
-99
-134
-147
-159
-170
-173
-173
-166
-157
-158
-152
-136
-144
-145
-79
1
24
7
-24
-55
-68
-59
-39
-23
-20
-3
5
-27
20
166
264
407
634
493
-63
-347
-202
-119
-163
-127
-100
-136
-128
-108
-117
-94
-57
-61
-60
-17
25
51
94
164
247
327
377
381
352
309
243
146
44
-31
-81
-116
-136
-143
-147
-148
-148
-150
-131
-81
-62
-104
-123
-63
5
21
2
-30
-56
-65
-73
-84
-95
-108
-94
-68
-100
-97
37
171
316
573
576
100
-295
-242
-125
-158
-166
-145
-168
-180
-176
-180
-174
-170
-164
-136
-108
-79
-21
35
77
149
230
274
306
329
299
224
154
93
24
-33
-55
-64
-76
-81
-84
-87
-81
-75
-66
-47
-45
-60
-44
15
71
85
93
142
212
302
435
542
624
867
1202
1178
647
37
-291
-403
-447
-450
-438
-445
-458
-471
-488
-496
-503
-525
-542
-548
-567
-587
-582
-552
-491
-387
-256
-114
17
110
176
224
219
170
128
106
94
89
80
73
77
67
55
79
101
82
73
82
59
32
49
68
57
55
86
113
102
70
48
37
27
21
30
37
37
54
55
31
73
173
234
325
409
206
-179
-284
-128
-64
-93
-70
-50
-67
-63
-47
-53
-55
-34
-16
-12
-1
30
63
98
150
208
264
323
359
350
333
303
212
106
50
4
-58
-83
-74
-79
-99
-117
-134
-131
-104
-88
-95
-94
-59
-13
7
-8
-57
-109
-119
-110
-124
-136
-143
-154
-136
-139
-157
-54
96
187
371
470
87
-405
-410
-188
-162
-207
-184
-166
-150
-127
-130
-129
-108
-95
-72
-37
-15
7
49
107
193
285
332
355
378
353
280
193
79
-31
-73
-89
-126
-141
-133
-136
-131
-120
-135
-134
-106
-114
-133
-80
-3
13
-2
-14
-41
-67
-68
-51
-31
-23
11
106
179
235
405
609
735
893
885
377
-215
-310
-161
-179
-233
-189
-165
-187
-183
-170
-175
-185
-190
-191
-194
-215
-242
-247
-228
-203
-171
-121
-55
6
46
68
68
46
19
-8
-39
-60
-59
-59
-77
-90
-85
-73
-48
-15
-14
-26
11
79
118
118
91
52
28
13
3
18
28
27
43
16
-27
65
198
279
545
798
464
-150
-291
-115
-105
-150
-101
-94
-134
-121
-86
-82
-79
-57
-41
-39
-19
25
66
102
149
214
282
320
306
272
250
221
160
89
38
-2
-39
-52
-50
-65
-91
-110
-128
-151
-157
-148
-154
-164
-129
-77
-76
-108
-125
-136
-153
-161
-158
-161
-161
-139
-129
-151
-115
-5
76
177
300
157
-234
-398
-248
-149
-189
-200
-161
-138
-145
-163
-158
-136
-133
-130
-99
-68
-52
-20
38
97
150
202
241
250
242
229
191
121
51
2
-28
-43
-50
-45
-30
-22
-23
-22
-23
-15
23
54
40
31
66
98
93
66
25
-13
-29
-32
-36
-33
-18
2
-5
-29
14
124
253
409
432
126
-224
-219
-37
8
-14
10
20
9
8
-3
-9
16
37
29
25
53
93
116
141
201
282
338
360
375
391
367
277
165
74
6
-35
-59
-95
-121
-111
-102
-114
-122
-131
-134
-103
-73
-38
79
242
377
545
754
913
1103
1417
1528
1046
211
-394
-613
-672
-705
-729
-761
-774
-758
-766
-809
-851
-884
-909
-927
-963
-1016
-1043
-1014
-944
-860
-768
-632
-448
-290
-202
