# session 195
-9
-60
-54
-38
-54
-65
-60
-55
-34
-28
-48
-7
22
-53
-23
31
-189
-144
209
-786
-3009
-3385
-1279
278
126
-140
-6
-42
-112
-37
-20
-9
96
148
121
129
159
159
160
178
174
142
123
134
161
171
134
146
364
619
554
211
-79
-152
-8
135
81
159
344
52
-10
723
16
-2743
-3570
-1104
753
447
174
457
427
342
443
447
431
515
586
642
727
794
800
785
808
746
635
756
752
285
368
847
-956
-4864
-6185
-3252
11
941
816
889
993
939
847
937
1016
794
1008
1387
-432
-3601
-3519
-123
1943
1738
1640
1756
1289
852
719
546
444
483
460
395
367
350
336
292
243
230
176
96
49
-56
-86
14
-215
-395
145
-523
-3951
-6293
-3866
-41
956
469
595
755
636
572
515
752
596
-1592
-4214
-3555
-366
1308
1004
1027
1491
1311
776
420
145
8
89
175
179
167
134
99
97
91
56
17
4
29
25
-63
-116
-46
14
-24
-48
39
213
352
374
406
481
418
358
401
189
92
542
-191
-3053
-4699
-2678
13
468
5
91
193
96
153
236
236
296
383
420
447
477
502
535
573
588
561
535
546
529
459
435
491
543
553
511
426
404
417
349
370
511
435
387
603
386
217
1000
240
-3377
-4997
-2386
-434
-788
-188
1004
764
344
635
669
484
541
535
433
465
524
536
522
473
512
571
465
462
575
414
271
-347
-2576
-3617
-417
1874
-1669
-4747
-1746
1852
1653
1172
2129
1990
761
707
1043
-1041
-4509
-4923
-1726
830
817
304
435
484
334
313
286
218
251
291
257
253
301
313
280
270
302
341
363
352
308
260
227
207
181
126
68
20
-84
-181
-159
-172
-188
-56
-178
-343
248
27
-2633
-4465
-2392
376
575
-6
260
437
290
344
412
347
327
308
271
328
384
316
258
296
295
231
219
226
216
268
361
531
847
948
529
-81
-560
-793
-562
50
543
486
210
628
796
-1467
-4255
-3311
62
1345
669
543
794
640
580
721
704
647
695
727
720
739
746
695
630
568
459
318
205
105
7
-42
-43
-61
-114
-167
-224
-261
-188
-104
-155
-130
-22
-164
-171
144
-75
-218
616
-8
-2782
-3228
-502
753
-117
-226
180
-40
-164
-45
-140
-163
-57
-86
-50
135
305
589
827
474
-195
-393
-211
-152
-157
-119
-151
-126
-7
-52
-148
-87
-121
-155
46
-92
-319
277
-59
-2731
-4080
-1681
661
460
7
323
326
192
329
323
200
223
214
117
104
147
156
174
213
218
195
191
226
261
258
237
240
250
244
235
224
245
322
379
397
399
342
335
379
211
172
491
273
-47
816
569
-2763
-5115
-3364
-724
250
690
1024
769
347
183
203
292
350
367
378
370
381
433
468
468
459
442
442
508
605
635
611
612
637
704
785
728
757
1041
929
667
1379
1162
-2318
-5133
-2792
1080
1693
821
924
1024
664
575
581
442
420
450
383
367
399
338
278
333
324
183
159
235
161
118
170
-9
7
427
-653
-4291
-7188
-5744
-1620
944
950
462
699
897
580
886
1583
-46
-3446
-3893
-912
972
611
408
721
681
599
689
664
615
648
645
628
648
647
636
640
598
568
651
704
671
754
790
656
816
956
535
734
1302
-885
-5104
-6763
-6088
-5962
-4656
-911
1621
1244
762
1417
1066
-1411
-3529
-2555
135
1349
1022
895
1035
886
767
834
812
733
733
725
691
706
706
632
580
586
576
548
509
454
490
615
719
914
1141
917
274
-62
74
148
69
144
193
72
171
233
-120
86
585
-788
-2807
-2020
208
553
-53
131
342
215
297
385
317
371
471
469
471
471
399
323
263
180
131
131
78
-27
-63
-10
46
91
146
134
58
74
147
149
183
205
140
302
434
110
299
756
-978
-3707
-3099
-126
832
75
57
339
107
22
246
309
264
365
481
496
643
803
457
-135
-225
12
7
-112
-93
-63
-101
-143
-151
-116
-109
-157
-179
-178
-181
-151
-155
-167
-58
-12
-52
123
138
-86
404
575
-1411
-2690
-322
1297
-1255
-2996
-989
600
190
-11
8
82
481
-626
-2605
-1926
349
706
33
195
359
144
194
283
168
153
230
257
305
308
212
194
266
286
295
298
233
254
307
265
416
471
80
376
1042
-492
-2902
-2151
313
670
-16
245
457
180
196
317
229
219
272
229
197
207
215
249
272
238
218
263
323
325
291
333
447
503
502
542
607
618
567
525
509
438
356
352
277
178
249
155
-34
355
421
-922
-1750
-549
557
222
-90
126
115
-1
60
58
-8
2
53
106
135
136
141
123
109
128
92
63
143
152
122
203
78
-62
360
243
-1843
-4755
-6227
-5265
-2463
209
1176
767
348
878
1142
-501
-1757
-671
-672
-2751
-2505
110
1002
391
482
746
599
625
746
693
688
760
783
804
861
901
882
831
816
783
672
586
568
529
477
440
375
337
355
340
305
296
277
263
243
195
255
299
98
83
330
149
141
777
-121
-2718
-3010
-440
941
393
260
551
413
327
420
374
335
359
360
398
409
383
424
511
771
1207
1223
601
60
55
230
203
40
17
83
28
51
135
-54
79
385
-1768
-6280
-7443
-3112
459
-797
-3267
-3849
-3031
-1102
950
1412
1025
1162
1322
1178
1179
1182
1025
966
961
857
783
783
736
637
573
562
554
525
502
496
478
443
403
383
400
388
302
248
265
250
232
243
208
283
453
277
121
583
291
-1912
-3352
-1199
1565
137
-3363
-3274
-304
1314
1057
-647
-3153
-2935
420
2183
1226
644
907
842
771
835
760
797
749
572
841
465
-1789
-3385
-1784
631
1107
756
872
937
844
869
844
858
914
785
915
1235
215
-2416
-4235
-3259
-640
1006
956
550
542
505
341
301
289
228
240
292
274
217
191
189
177
176
195
189
197
288
362
377
498
703
805
947
1248
1287
761
61
-347
-447
-428
-420
-458
-489
-456
-434
-522
-565
-611
-1225
-2111
-1942
-875
-442
-705
-732
-626
-714
-731
-651
-637
-561
-395
-297
-231
-109
-14
5
12
5
-63
-133
-109
-35
-45
-138
-195
-196
-190
-182
-173
-167
-151
-150
-179
-201
-197
-200
-214
-205
-190
-213
-230
-135
41
170
218
273
424
655
864
1035
1215
1326
1288
1192
1110
1006
914
888
859
758
621
512
452
406
361
333
263
147
71
0
-4
105
-31
-209
130
61
-530
197
435
-2589
-4175
-1246
-489
-3680
-3884
-1034
-50
62
927
985
598
891
1082
922
976
1041
921
859
826
713
644
644
604
546
537
536
517
503
487
501
545
514
498
594
526
399
596
538
169
587
469
-2085
-3913
-1911
568
486
-82
189
235
96
224
329
469
726
867
1037
1255
1058
447
-64
-276
-340
-372
-379
-366
-403
-444
-383
-378
-448
-339
-417
-1107
-1566
-1056
-447
-514
-667
-467
-455
-643
-266
-293
-2406
-4196
-2692
-1311
-2850
-2922
-131
829
-82
422
1184
745
551
831
760
675
755
694
660
731
701
631
615
597
607
589
506
561
592
201
-166
124
599
622
458
508
616
521
458
642
531
259
778
727
-1572
-3176
-1386
687
562
223
367
-309
-1422
-1953
-1542
-277
678
583
359
482
473
396
436
389
318
357
357
324
366
358
303
392
555
684
904
984
514
-69
-90
133
116
102
119
-25
117
269
-1092
-3477
-3866
-1605
376
502
163
279
360
292
327
367
348
369
406
432
474
490
465
451
443
405
348
304
275
221
141
92
85
74
51
36
24
17
32
49
35
13
14
-8
-50
-36
21
33
-43
-108
-9
72
-95
-51
435
514
-85
-434
-295
-248
-308
-260
-256
-294
-230
-180
-224
-188
-49
80
319
587
376
-259
-568
-387
-238
-296
-353
-350
-347
-348
-360
-397
-410
-347
-277
-255
-214
-174
-206
-167
-13
23
5
120
59
-236
-183
200
310
208
235
222
62
-31
-37
-81
-143
-183
-228
-264
-251
-221
-240
-284
-285
-254
-218
-173
-151
-154
-103
0
68
119
233
400
600
843
1020
1068
1221
1553
1585
1012
290
-69
-105
-65
-29
1
28
55
49
0
-37
-23
-4
-19
-47
-73
-98
-108
-132
-197
-248
-263
-296
-313
-251
-185
-143
-29
116
187
241
278
217
177
182
79
52
133
-27
-30
262
-100
-309
581
-135
-2515
-1997
-437
-2850
-4688
-1325
1619
714
-28
544
460
176
361
383
288
349
347
292
309
324
324
301
237
260
373
395
342
335
316
268
287
287
226
292
337
191
272
430
131
272
970
15
-2202
-2284
-303
772
267
-727
-1118
-360
435
270
16
182
204
123
207
244
213
239
239
218
243
261
269
296
304
323
386
423
449
520
537
539
581
443
337
560
400
41
675
565
-2174
-3887
-1453
1256
305
-2275
-2820
-1091
201
-179
-334
578
1035
800
908
1234
1322
1465
1836
2071
1821
1222
697
389
237
218
154
68
177
115
-94
346
299
-2040
-4714
-5328
-5277
-4931
-2465
460
1061
473
266
236
618
874
-233
-1717
-2211
-2032
-1083
579
1401
1068
902
1059
992
922
982
971
948
951
902
867
872
877
884
836
735
717
773
756
666
648
729
702
589
700
729
407
598
813
-1166
-3899
-3224
-196
870
310
487
795
680
850
464
-1205
-2555
-2197
-742
546
1010
919
878
936
877
802
798
790
795
800
735
716
805
909
1116
1420
1443
1010
369
84
596
724
-1350
-4555
-5907
-5162
-4881
-5641
-4510
-807
1353
988
1534
1415
-2065
-3614
-475
946
-1322
-2480
-1860
-1082
540
1951
1468
716
1138
1583
1407
1250
1244
1150
1044
978
913
871
812
728
698
676
612
586
592
551
492
462
453
457
425
343
289
281
303
371
375
300
292
220
146
389
365
-80
322
595
-1474
-3289
-1554
774
608
-9
348
573
601
625
176
-242
-98
45
-48
-41
18
-10
-21
-17
-37
-32
-15
-13
-20
-29
5
47
20
26
100
71
10
71
154
286
390
268
414
656
-549
-2506
-2257
-110
708
-104
-171
516
-227
-1925
-1840
-280
209
-266
-253
-41
-103
-95
-41
-91
-56
23
-16
-54
16
94
98
67
39
20
28
48
33
26
73
72
12
28
54
7
78
277
407
617
883
649
-10
-265
-13
99
-46
-28
106
-37
-221
-124
-309
-867
-758
-14
216
-22
-21
55
-12
11
104
115
141
216
251
275
341
381
364
359
380
368
305
238
193
143
98
93
72
34
80
133
123
182
184
75
180
162
-152
282
686
-954
-2587
-1554
-438
-1113
-955
421
455
-635
-870
-268
90
34
9
116
141
77
86
206
353
450
535
592
414
53
-84
61
143
101
104
141
145
121
73
83
164
158
139
262
235
110
397
457
-466
-1025
-234
416
117
-71
100
89
66
194
215
162
157
105
35
48
57
3
-32
-30
-36
-25
-3
-23
-34
22
47
-26
-90
-53
21
51
41
19
22
83
137
77
31
139
166
46
161
273
-473
-1968
-2916
-2347
-794
261
324
219
357
462
487
352
-6
-177
4
148
116
88
95
101
105
97
106
133
129
128
149
135
130
173
163
144
211
215
169
257
311
292
443
459
325
651
643
-590
-1241
-177
551
65
-200
-80
-159
-33
190
-39
-297
-198
-125
-182
-159
-122
-122
-73
-27
-41
-33
28
77
79
50
29
44
77
97
91
77
92
138
181
182
133
136
277
427
536
760
929
621
-19
-272
71
167
-507
-971
-510
-98
-382
-646
-587
-582
-575
-430
-342
-315
-231
-191
-220
-163
-48
-3
21
88
145
179
228
281
298
278
244
204
151
101
62
22
3
26
51
46
6
-54
-72
-14
24
-47
-170
-246
-249
-210
-185
-208
-209
-117
-23
-24
-72
-100
-82
-3
42
-24
-51
19
26
-3
45
75
106
207
282
507
861
570
-276
-412
116
183
47
271
187
-133
100
-134
-1609
-2207
-764
532
405
61
60
-32
-115
-44
4
54
138
165
212
332
387
366
384
433
444
407
337
273
228
188
183
197
148
96
121
123
143
238
187
137
324
190
-22
586
400
-1557
-1919
-277
-1052
-3099
-1739
746
592
-125
276
348
40
148
251
183
258
304
212
249
413
502
650
941
903
362
-3
104
180
158
262
208
124
386
86
-1219
-1585
-186
683
201
319
765
-361
-1346
-46
864
-620
-1447
-94
795
350
175
406
362
274
324
332
306
280
247
228
180
150
199
219
205
200
119
139
287
84
-32
506
-70
-2748
-4406
-2940
-758
129
413
580
466
346
422
474
309
247
478
-33
-1756
-2652
-1379
164
431
341
529
637
757
835
485
97
152
308
281
252
279
299
292
241
237
312
295
241
333
348
272
481
225
-1581
-3356
-2532
-100
975
609
609
893
616
660
1202
116
-2400
-2771
-558
794
411
170
331
219
133
234
238
225
290
293
269
303
314
291
307
333
314
297
332
392
396
320
286
326
285
226
281
219
126
335
294
-28
425
651
-676
-1190
65
-20
-1579
-2214
-2326
-1963
-246
926
476
239
547
438
303
427
394
329
404
404
357
413
461
407
356
400
478
511
534
569
587
613
624
623
722
729
529
616
731
228
315
976
-1176
-5296
-5084
-623
1047
-1459
-3286
-2426
-599
584
704
387
280
217
84
93
153
115
77
92
131
168
174
172
202
225
207
200
239
248
215
284
426
516
734
1018
775
81
-214
-1
134
78
40
44
56
