# session 111
-44
-16
-3
6
22
42
67
101
140
186
242
298
354
418
475
496
485
454
389
279
163
89
38
-18
-51
-48
-58
-95
-115
-109
-98
-90
-97
-117
-125
-122
-119
-116
-115
-98
-39
11
1
-38
-68
-79
-68
-57
-60
-58
-64
-67
-25
-6
-30
59
237
360
530
656
344
-170
-256
-33
15
-57
-41
-6
-20
-35
-33
-29
-31
-34
-34
-27
-6
19
34
56
112
187
252
311
381
443
459
426
377
315
221
117
43
-11
-61
-78
-75
-92
-105
-90
-81
-76
-45
-35
-66
-58
4
63
146
271
375
552
869
1053
972
860
672
232
-122
-166
-261
-496
-548
-452
-444
-470
-465
-495
-523
-512
-541
-608
-638
-652
-692
-710
-681
-646
-604
-508
-376
-257
-144
-24
66
114
144
151
125
102
93
68
29
2
-12
-11
3
7
-9
-14
-6
-6
-10
-2
-3
-20
-25
-18
-19
-18
-6
2
1
-4
-6
-1
2
-2
-3
-14
-27
-12
0
-8
25
102
124
76
34
30
36
36
40
56
69
67
57
26
6
83
208
303
479
634
381
-124
-289
-129
-61
-96
-75
-48
-61
-69
-61
-55
-47
-32
-17
-16
-19
-5
23
50
91
149
195
230
283
331
338
334
331
300
245
191
127
55
11
2
-9
-30
-43
-44
-39
-33
-28
-20
-17
-32
-43
-16
29
64
116
202
319
492
681
801
925
1111
1118
736
198
-140
-256
-314
-360
-357
-340
-362
-395
-405
-399
-402
-426
-456
-470
-482
-502
-510
-510
-513
-486
-416
-342
-263
-157
-46
34
77
75
44
11
-23
-60
-79
-81
-89
-100
-95
-78
-64
-59
-58
-52
-44
-41
-42
-41
-43
-50
-55
-57
-61
-71
-78
-77
-80
-94
-105
-97
-78
-73
-70
-35
15
20
-13
-33
-34
-36
-41
-40
-43
-61
-74
-53
-52
-110
-99
47
196
340
478
313
-155
-392
-244
-109
-118
-117
-103
-112
-100
-85
-95
-90
-59
-42
-34
-3
34
45
57
108
177
235
298
379
451
487
498
496
459
382
291
205
123
43
-21
-51
-62
-75
-67
-21
43
129
258
454
742
1039
1265
1533
1801
1613
841
67
-262
-330
-388
-435
-449
-463
-482
-494
-507
-536
-576
-598
-616
-664
-711
-720
-716
-712
-662
-547
-403
-250
-92
41
116
142
140
121
84
37
-3
-13
1
7
-8
-30
-39
-31
-24
-20
1
44
148
352
564
698
811
864
705
417
221
109
-29
-170
-264
-307
-313
-320
-343
-359
-362
-377
-410
-440
-454
-460
-478
-497
-483
-434
-382
-354
-346
-338
-300
-209
-111
-58
-15
58
108
102
99
117
116
112
145
179
163
116
89
104
136
130
84
74
114
133
115
107
107
82
58
65
77
64
47
57
80
76
64
81
91
68
60
79
88
88
89
83
84
86
62
38
51
62
37
11
11
8
-8
-19
-14
-12
-26
-31
-10
3
-4
25
93
122
94
69
62
44
26
36
40
26
41
56
7
7
147
323
531
742
588
28
-320
-207
-71
-116
-143
-113
-117
-137
-141
-153
-166
-153
-132
-130
-128
-102
-73
-54
-26
22
78
127
162
193
223
231
211
189
168
119
52
-10
-66
-110
-130
-139
-152
-162
-160
-148
-137
-131
-120
-114
-114
-84
-22
34
87
170
311
502
617
618
711
906
822
366
-72
-278
-370
-410
-402
-405
-424
-410
-392
-412
-441
-447
-452
-468
-477
-480
-494
-506
-505
-496
-462
-378
-256
-127
-7
95
173
215
217
186
138
84
45
32
20
-1
-8
0
8
14
17
13
12
13
10
18
34
38
38
46
46
39
37
25
-2
-8
23
42
24
24
67
97
82
51
34
32
35
32
43
60
50
51
82
62
47
146
276
451
765
816
293
-218
-206
-42
-56
-83
-56
-62
-66
-46
-41
-44
-38
-32
-29
-30
-21
1
15
22
54
101
142
200
277
326
338
340
323
270
200
118
31
-32
-76
-119
-150
-171
-195
-192
-160
-145
-123
-36
85
238
497
787
989
1207
1446
1347
763
79
-329
-461
-481
-484
-486
-501
-534
-543
-523
-530
-561
-579
-610
-668
-713
-735
-755
-771
-760
-695
-577
-421
-237
-65
62
158
207
181
124
92
74
45
7
-27
-34
-12
0
-15
-23
-17
-25
-35
-23
-13
-18
-7
14
17
12
8
6
23
47
48
48
62
59
45
52
67
61
47
65
127
183
170
103
66
72
63
46
46
31
33
77
59
34
174
353
481
716
781
305
-198
-173
11
-11
-38
5
-8
-35
-19
-14
-20
-9
2
2
-3
0
32
79
103
130
195
253
279
326
385
391
356
323
279
210
123
29
-35
-61
-94
-134
-150
-159
-173
-172
-160
-159
-173
-167
-125
-113
-173
-206
-144
-89
-118
-168
-185
-195
-210
-206
-193
-198
-189
-153
-166
-186
-73
81
185
395
536
206
-290
-369
-199
-183
-232
-207
-187
-195
-196
-203
-201
-177
-159
-148
-128
-115
-106
-65
-2
56
104
147
200
266
325
358
347
290
215
134
36
-45
-75
-80
-91
-108
-116
-96
-73
-89
-118
-114
-100
-92
-85
-82
-60
-19
-6
-27
-41
-57
-83
-84
-51
-29
-43
-47
-15
-14
-39
26
143
236
392
467
170
-236
-285
-127
-89
-103
-62
-41
-48
-32
-8
-3
-4
13
35
34
38
75
107
113
135
185
239
294
336
357
373
366
334
311
273
177
76
29
26
29
7
-29
-39
-30
-39
-59
-39
55
158
228
401
673
825
914
1074
970
402
-146
-316
-327
-372
-401
-407
-423
-434
-441
-457
-470
-475
-481
-494
-512
-535
-557
-560
-535
-482
-410
-318
-205
-87
15
98
151
144
96
56
24
-19
-50
-53
-49
-61
-77
-80
-78
-77
-70
-64
-68
-69
-61
-58
-62
-69
-70
-53
-33
-41
-67
-80
-88
-109
-111
-83
-75
-97
-80
-14
32
31
7
-20
-30
-25
-10
15
22
16
42
46
38
141
293
432
680
766
313
-207
-211
-14
-16
-64
-51
-52
-48
-48
-79
-78
-52
-61
-72
-56
-37
-12
25
66
127
190
234
304
410
474
485
488
470
408
333
263
187
100
35
9
-5
-23
-23
-31
-67
-69
-5
86
179
269
441
772
1088
1279
1533
1721
1339
479
-193
-431
-495
-553
-590
-590
-578
-593
-630
-649
-656
-686
-732
-771
-802
-834
-876
-910
-900
-842
-748
-615
-451
-281
-126
-7
53
64
54
29
-4
-23
-26
-25
-20
-9
5
16
20
25
31
24
18
32
44
37
26
13
6
24
40
22
3
11
20
13
1
-9
4
55
118
150
131
92
72
63
61
71
70
69
101
93
44
132
304
374
502
696
497
-36
-244
-78
-3
-53
-37
-2
-13
-44
-65
-50
-30
-36
-24
7
-2
-9
42
87
93
126
200
264
303
343
373
369
350
331
284
219
160
44
-146
-265
-237
-172
-148
-133
-114
-111
-103
-74
-52
-58
-56
-19
25
36
16
-14
-44
-77
-89
-57
-30
-62
-80
-54
-67
-78
8
128
273
432
318
-110
-362
-260
-158
-192
-207
-187
-184
-182
-180
-178
-167
-161
-159
-140
-121
-119
-105
-62
-21
20
82
145
188
231
267
266
232
189
133
56
-16
-49
-59
-83
-110
-116
-116
-127
-143
-152
-141
-111
-110
-142
-129
-59
-24
-60
-101
-105
-109
-126
-115
-80
-83
-93
-64
-64
-87
-9
123
200
238
130
-179
-368
-251
-110
-101
-84
-39
-43
-58
-55
-60
-68
-65
-60
-48
-26
-7
11
34
70
126
187
243
303
358
389
405
399
348
272
209
145
68
11
-13
-24
-41
-62
-65
-44
-28
0
94
214
336
587
927
1158
1387
1712
1703
1079
297
-165
-343
-411
-431
-448
-470
-478
-475
-469
-481
-521
-555
-584
-629
-660
-671
-698
-707
-659
-599
-514
-358
-203
-103
6
119
148
106
67
43
22
4
-18
-44
-58
-52
-46
-52
-56
-48
-55
-86
-106
-103
-90
-83
-95
-98
-62
-43
-70
-66
-29
-49
-84
-44
-7
-45
-38
79
155
99
49
83
83
17
9
48
45
36
31
13
96
263
400
595
696
311
-230
-295
-106
-109
-147
-92
-98
-134
-128
-144
-147
-96
-89
-124
-104
-68
-77
-52
31
87
116
176
233
263
307
355
347
293
235
173
93
4
-59
-87
-102
-113
-106
-92
-96
-102
-70
-9
54
118
221
434
741
990
1162
1418
1652
1476
844
163
-251
-410
-457
-474
-480
-480
-486
-497
-500
-502
-516
-542
-569
-594
-624
-655
-681
-689
-656
-575
-465
-327
-166
-23
85
169
206
179
134
108
87
71
71
64
37
22
30
36
37
47
44
21
9
11
13
18
13
-8
-10
8
4
-10
12
42
38
36
77
114
94
39
4
-7
-16
-17
-16
-24
-5
22
-9
-14
95
200
298
483
476
67
-302
-271
-129
-129
-155
-146
-157
-171
-159
-145
-142
-139
-129
-115
-102
-84
-60
-31
6
45
89
146
203
235
257
292
300
251
202
171
97
-4
-50
-59
-82
-96
-88
-89
-92
-74
-38
-2
6
-18
-23
22
60
38
-8
-29
-42
-61
-58
-39
-50
-59
-25
-14
-19
64
193
305
415
340
-25
-294
-207
-64
-75
-95
-69
-78
-104
-105
-97
-106
-119
-107
-81
-71
-67
-38
-1
29
72
135
198
252
300
340
356
332
271
192
112
32
-36
-74
-92
-108
-105
-88
-100
-133
-140
-124
-118
-123
-114
-71
-13
-5
-60
-111
-125
-135
-132
-99
-97
-120
-94
-88
-118
-22
138
242
466
642
283
-286
-373
-180
-175
-226
-189
-189
-210
-179
-172
-198
-181
-151
-151
-145
-117
-95
-60
7
66
99
161
272
360
382
367
342
302
231
123
15
-45
-69
-92
-109
-104
-91
-88
-89
-51
55
151
213
423
822
1134
1323
1641
1850
1441
612
-29
-327
-457
-500
-507
-525
-530
-518
-531
-560
-580
-598
-626
-665
-716
-766
-806
-845
-865
-830
-754
-653
-494
-283
-97
26
121
189
201
176
156
137
114
104
104
97
89
86
78
66
62
64
54
29
15
21
17
-2
-8
1
4
-6
-13
4
29
22
6
48
138
182
158
124
102
82
84
102
85
65
96
95
49
126
280
393
640
882
572
-74
-285
-104
-53
-118
-108
-93
-102
-81
-72
-99
-110
-88
-71
-76
-85
-66
-19
24
53
92
146
192
227
258
269
254
233
201
140
71
20
-31
-95
-135
-140
-153
-180
-180
-152
-105
-20
79
174
375
699
970
1137
1240
1097
601
43
-290
-431
-487
-498
-506
-524
-536
-545
-552
-560
-584
-605
-611
-632
-669
-686
-685
-670
-605
-492
-365
-220
-68
50
132
179
172
157
187
257
354
428
472
636
912
1020
904
720
420
23
-194
-192
-202
-262
-272
-254
-268
-295
-313
-332
-354
-372
-388
-396
-392
-388
-368
-286
-160
-56
13
81
146
195
227
237
224
202
181
164
155
147
135
116
103
97
90
80
74
70
67
70
74
75
76
80
80
78
80
78
69
68
75
76
68
60
56
59
62
58
55
52
37
25
30
27
15
16
17
-8
-27
-20
-21
-42
-57
-71
-90
-91
-79
-80
-75
-31
23
29
-14
-56
-72
-61
-50
-67
-68
-26
-45
-100
2
196
343
571
699
288
-306
-388
-175
-174
-242
-187
-165
-203
-188
-156
-163
-159
-135
-121
-105
-83
-70
-54
-18
35
95
155
215
269
310
331
330
307
272
227
164
93
19
-64
-120
-118
-115
-155
-196
-199
-179
-154
-135
-132
-126
-96
-41
-7
-44
-120
-160
-170
-180
-177
-175
-184
-168
-163
-184
-104
61
166
255
292
24
-368
-409
-200
-129
-161
-137
-108
-115
-119
-117
-111
-97
-91
-91
-79
-53
-28
-2
44
105
161
234
343
442
486
488
460
390
284
166
71
6
-43
-75
-88
-97
-104
-105
-98
-60
17
95
179
374
705
1002
1192
1469
1828
1832
1227
378
-210
-433
-473
-478
-500
-542
-568
-559
-549
-563
-589
-623
-657
-679
-710
-749
-771
-774
-770
-737
-647
-506
-347
-204
-77
35
106
122
108
90
82
80
68
50
50
63
67
69
78
80
76
80
90
92
88
94
106
95
62
38
38
44
38
27
45
95
140
147
118
78
50
47
69
81
55
46
78
72
66
164
285
397
565
535
126
-215
-155
-13
-17
-21
6
-9
-19
1
-3
-21
-14
-6
-15
-3
32
56
73
102
140
193
255
305
353
396
398
358
315
271
208
134
68
9
-40
-69
-83
-95
-112
-120
-104
-74
-67
-72
-42
13
29
-2
-35
-62
-96
-112
-104
-108
-118
-111
-132
-172
-128
-30
66
247
364
86
-358
-461
-313
-255
-271
-271
-280
-281
-282
-312
-325
-305
-307
-321
-309
-288
-267
-228
-179
-138
-102
-60
0
69
103
89
63
31
-39
-128
-198
-252
-297
-317
-316
-329
-352
-355
-342
-328
-305
-280
-263
-235
-189
-159
-166
-187
-195
-198
-200
-182
-161
-154
-117
-92
-130
-74
111
248
431
664
480
-85
-321
-148
-58
-81
-31
-2
-20
4
27
12
22
62
90
117
160
195
205
222
275
348
432
533
622
656
664
683
665
577
473
398
339
289
257
246
259
265
240
245
302
345
392
509
681
927
1242
1452
1567
1859
2169
1935
1131
358
-22
-141
-192
-228
-259
-288
-307
-325
-351
-382
-421
-469
-512
-559
-628
-687
-718
-751
-772
-731
-638
-528
-404
-285
-198
-138
-112
-149
-230
-303
-364
-432
-501
-557
-605
-657
-719
-773
-816
-882
-971
-1022
-1037
-1075
-1101
-1079
-1084
-1079
-944
-795
-724
-529
-220
-19
