# session 216
112
141
122
138
217
258
230
210
240
253
199
149
112
10
-67
-55
-103
-132
-41
-134
-230
41
-66
-447
216
182
-3221
-7431
-8846
-8135
-5918
-1694
1759
1173
-1538
-2027
-55
1197
866
623
885
1014
1039
1109
1129
1022
747
524
570
663
635
620
626
589
590
628
608
578
606
610
569
578
624
631
638
684
723
757
804
817
796
777
727
646
592
541
444
358
340
337
318
325
313
281
391
493
404
567
879
719
1101
1999
-93
-4993
-7332
-6998
-7160
-4894
146
804
-2503
-1971
1332
1721
699
960
1092
664
628
578
235
75
51
-43
-84
-51
2
98
206
301
392
437
433
450
482
478
463
472
475
462
477
514
511
496
554
595
515
478
547
518
477
527
419
394
610
342
175
968
-213
-4943
-7378
-3648
730
1206
518
866
1016
744
749
775
647
632
670
634
624
654
617
557
620
731
783
919
1025
725
247
144
289
301
246
255
260
250
230
194
216
246
191
212
260
128
258
508
-956
-4118
-5197
-2445
587
1109
661
757
818
628
593
594
494
436
405
349
314
301
289
269
242
249
220
92
72
229
294
285
354
260
155
324
120
-187
489
-85
-4017
-6507
-3386
435
581
208
654
-1237
-4342
-4184
-1212
684
696
519
641
618
537
563
567
529
513
502
498
503
478
438
430
449
467
481
489
492
501
503
481
455
440
412
358
285
206
162
165
152
101
77
93
83
31
-19
-28
-1
20
21
47
104
130
100
55
24
-6
-35
-42
-42
-62
-58
-28
-43
-59
5
78
175
353
336
-17
-281
-210
-114
-149
-168
-147
-142
-141
-146
-144
-112
-101
-129
-121
-69
-44
-38
-11
22
50
88
121
131
140
153
145
125
93
25
-10
3
-47
-69
7
-63
-97
121
-42
-285
341
104
-2230
-3181
-952
762
307
14
353
272
132
238
227
167
171
184
202
111
82
257
48
-451
-163
548
384
-188
-133
132
89
48
104
90
101
171
162
112
125
152
150
161
178
174
193
240
270
298
342
363
377
388
351
318
296
185
128
176
42
3
269
12
-257
614
-58
-4041
-5843
-2152
1378
1453
1441
1862
896
293
1033
999
97
-94
98
-27
-94
-27
-81
-137
-131
-170
-223
-249
-288
-344
-398
-445
-461
-426
-358
-269
-135
30
172
273
337
343
310
285
267
245
231
214
186
175
183
183
175
166
158
165
172
153
143
163
166
144
131
126
138
165
166
153
146
91
37
102
165
117
131
195
172
234
248
-40
60
450
-1160
-5171
-7548
-5331
-1189
854
689
356
464
685
986
1073
667
249
249
371
340
291
305
299
271
271
276
252
239
265
281
262
258
266
251
256
300
325
338
352
327
334
391
293
73
54
210
233
136
103
103
56
7
4
12
0
8
53
109
173
230
298
489
765
947
1095
1286
1224
757
230
-80
-230
-287
-284
-292
-315
-325
-341
-364
-371
-377
-403
-441
-473
-495
-521
-539
-517
-464
-401
-297
-144
2
100
165
195
172
120
85
69
57
55
57
55
69
94
92
82
107
135
127
120
136
145
141
146
159
172
184
179
157
164
202
210
213
270
326
344
356
308
245
286
234
114
257
231
-99
279
524
-1561
-4806
-6476
-6240
-4163
-781
1152
762
395
824
906
521
239
306
632
799
702
661
697
682
689
700
687
719
711
695
790
760
673
869
807
479
968
1050
-1062
-2615
-962
1079
1014
360
456
900
491
-1890
-5175
-6715
-5223
-1758
982
1392
926
1091
1295
1154
1169
1307
1378
1528
1711
1859
2084
2217
1926
1291
712
404
302
266
222
167
130
114
94
52
-5
-56
-109
-183
-254
-304
-356
-414
-449
-433
-359
-260
-159
-13
170
287
313
329
352
321
246
211
223
220
218
226
187
160
194
141
83
214
177
-43
262
249
-2279
-6389
-7398
-3371
956
711
-1613
-1212
759
1055
478
577
693
493
480
549
477
428
508
623
701
837
968
735
242
64
209
245
167
161
169
132
126
138
100
84
129
98
54
132
74
-19
224
152
-198
483
509
-2519
-4811
-2435
697
771
100
332
368
191
20
-391
-420
43
162
-17
-1
47
11
33
53
66
171
286
352
494
715
874
1012
1240
1354
1083
528
26
-248
-340
-363
-393
-431
-448
-450
-464
-489
-505
-508
-536
-597
-633
-635
-664
-701
-675
-606
-525
-395
-228
-102
-22
66
142
147
120
138
157
123
115
163
190
200
228
225
220
299
396
444
551
760
971
1175
1370
1362
1052
669
451
373
317
243
160
87
42
19
5
-9
-26
-39
-51
-70
-100
-139
-172
-192
-209
-226
-240
-235
-181
-91
-14
61
168
282
372
447
501
506
487
513
561
544
508
535
560
556
602
658
639
614
618
590
568
573
519
435
444
507
531
539
547
527
502
485
451
425
416
375
362
406
372
344
450
406
320
585
83
-2373
-5060
-5787
-5379
-5381
-5561
-5473
-5321
-5055
-4580
-4104
-3350
-1572
782
1909
1523
1479
1982
1099
-931
-1891
-1598
-1394
-1641
-2013
-2174
-1919
-1418
-1061
-1316
-1677
-457
2047
3252
2813
2608
2852
2764
2608
2622
2545
2435
2387
2262
2090
1977
1875
1757
1658
1570
1481
1395
1307
1221
1165
1139
1104
1039
976
963
976
944
871
805
752
699
649
605
574
546
511
499
468
396
457
600
563
584
634
11
-457
377
85
-2966
-4466
-1822
626
306
-135
267
205
17
173
78
28
250
-84
-234
617
-606
-5309
-7694
-4041
393
1070
329
430
484
217
168
127
6
34
68
-9
-38
-13
-22
-11
19
-5
-37
-5
50
83
87
47
0
-12
-23
-45
-53
-70
-71
-19
-15
-53
29
168
213
214
97
-225
-428
-308
-167
-174
-170
-142
-149
-108
-49
-86
-101
-19
-20
-53
17
-20
-23
230
121
-69
648
454
-2123
-3459
-1266
921
888
245
144
660
382
-2109
-3754
-1677
695
505
36
472
565
454
724
999
1177
1441
1789
2174
2210
1538
604
57
-89
-110
-123
-138
-148
-164
-192
-211
-235
-292
-340
-364
-407
-462
-500
-537
-537
-446
-311
-194
-76
68
184
218
194
161
133
111
106
117
136
145
132
117
113
99
69
42
30
30
25
8
5
20
27
24
30
36
26
24
34
13
-30
-31
-12
-24
-24
29
85
99
81
49
22
14
20
20
1
6
39
16
-13
89
209
252
356
395
100
-254
-273
-128
-100
-130
-129
-128
-144
-158
-153
-135
-130
-121
-83
-54
-43
2
66
87
99
148
199
213
198
177
158
141
112
61
7
-31
-73
-131
-169
-163
-146
-142
-142
-148
-158
-141
-102
-90
-100
-66
1
19
-15
-42
-59
-87
-98
-74
-54
-55
-47
-47
-81
-83
-11
124
351
520
325
-112
-303
-183
-83
-102
-118
-105
-89
-70
-63
-78
-86
-78
-82
-86
-49
13
46
61
93
131
143
141
150
163
152
109
73
56
30
-3
-15
-9
-1
10
24
31
29
24
15
16
41
71
78
85
129
165
145
116
94
66
100
116
5
93
293
-588
-2630
-3458
-1771
331
893
612
445
271
152
267
343
303
328
351
315
325
356
339
327
349
362
372
401
423
440
476
484
468
509
535
494
534
530
363
427
484
61
190
732
-885
-3789
-3707
-796
1123
638
-1318
-2586
-1284
813
1081
543
705
879
726
712
730
650
626
608
562
547
531
540
559
490
448
514
561
713
979
940
608
231
-83
292
698
-1474
-5431
-6734
-5519
-5690
-6021
-3069
686
1490
855
972
1025
684
792
1077
1026
969
1045
1045
1014
1014
964
891
846
781
687
616
576
546
526
511
479
443
426
400
345
312
319
304
265
272
327
357
331
265
211
194
177
155
145
105
85
131
92
65
256
304
224
487
331
-385
55
223
-3065
-6239
-4008
144
899
61
293
527
278
305
396
305
309
348
304
293
313
305
315
346
357
350
335
311
271
211
146
99
66
38
17
1
-17
-26
-18
-20
-42
-55
-57
-63
-73
-82
-74
-26
20
20
4
-19
-63
-82
-76
-109
-153
-122
-55
-67
-107
-61
-1
96
422
662
307
-251
-339
-175
-185
-242
-213
-201
-206
-190
-194
-212
-211
-204
-196
-179
-157
-123
-67
-11
25
56
93
134
170
176
157
141
114
57
3
-31
-54
-47
-37
-76
-88
-21
6
-13
57
144
176
345
668
893
996
1010
794
409
93
-122
-232
-226
-246
-321
-307
-249
-269
-308
-311
-333
-373
-381
-388
-425
-435
-374
-293
-219
-111
23
121
183
236
250
206
152
115
80
48
31
20
10
10
8
-3
-9
-6
-26
-56
-38
15
31
7
-13
-26
-28
-15
-14
-30
-26
-7
2
7
5
-9
-11
4
3
-13
-42
-85
-107
-82
-48
-41
-44
-13
61
96
41
4
58
105
87
58
15
-52
-75
-56
-49
-14
76
201
323
247
-122
-421
-354
-183
-172
-197
-167
-157
-152
-119
-109
-112
-79
-35
-12
2
11
24
51
67
78
129
200
234
244
259
251
207
177
183
139
34
8
5
-120
-92
72
-141
-208
315
-309
-2399
-2764
-666
626
213
32
276
173
95
236
243
201
271
305
271
256
239
206
191
194
198
193
181
179
176
156
174
233
280
369
445
248
-103
-168
-7
24
-5
46
17
-73
-32
44
66
120
135
129
247
198
-153
-201
211
453
392
400
476
489
488
475
447
432
371
274
234
226
184
150
154
170
178
170
155
163
200
253
285
298
423
684
878
1024
1308
1420
968
326
15
-71
-143
-156
-168
-215
-186
-186
-274
-211
-197
-430
-282
-134
-1682
-4415
-5906
-5830
-5419
-5063
-4745
-3830
-1528
800
1366
1016
1029
1048
910
906
825
791
916
686
591
1091
506
-1272
-1280
533
1162
620
645
825
667
677
702
649
741
579
472
956
559
-1154
-1446
246
1096
608
513
741
604
512
580
505
427
468
484
448
406
357
326
311
288
268
243
218
230
227
177
171
179
124
143
243
306
516
770
557
97
-179
-608
-997
-605
37
64
-97
-12
11
-42
13
27
-30
-14
26
23
32
48
67
130
188
198
235
271
214
189
210
3
-341
-379
-168
-113
-190
-191
-172
-204
-218
-196
-176
-133
-61
15
159
436
739
1016
1323
1424
999
294
-183
-359
-440
-485
-495
-509
-525
-535
-557
-585
-606
-628
-654
-685
-718
-732
-730
-723
-661
-518
-378
-287
-182
-56
26
51
38
3
-23
-25
-28
-26
-10
-5
-3
12
16
25
69
111
135
240
475
729
941
1158
1293
1166
826
501
311
216
92
-120
-294
-319
-296
-321
-354
-371
-392
-408
-433
-487
-535
-573
-628
-653
-622
-620
-673
-685
-605
-498
-424
-357
-245
-102
-7
16
38
108
178
175
129
142
222
265
221
174
182
191
158
123
126
151
167
166
152
131
112
99
85
79
86
90
83
75
79
98
112
101
89
99
105
102
121
136
118
111
115
87
66
85
81
53
56
60
44
46
56
58
75
80
55
53
69
65
85
136
147
126
112
73
37
60
67
4
-15
46
64
27
31
53
65
128
235
395
637
706
401
24
-198
-322
-236
26
105
16
25
63
30
33
72
74
83
117
134
141
164
193
223
256
290
339
381
377
351
352
360
331
283
262
233
154
118
159
138
87
115
78
23
124
122
77
316
287
155
932
1037
-906
-1527
817
2069
850
54
-59
-317
92
-389
-3577
-6362
-6028
-5228
-5819
-5336
-2632
56
1057
370
-1032
-1242
45
780
438
381
682
711
724
861
878
846
847
821
843
945
1068
1224
1422
1666
1917
1890
1379
692
273
170
160
106
52
56
54
-18
-71
-52
-61
-134
-182
-211
-280
-331
-312
-264
-192
-81
39
160
282
349
345
334
352
376
380
354
302
255
231
211
182
151
129
115
106
88
66
67
77
66
58
52
31
62
159
234
302
321
106
-205
-238
-76
-34
-59
-13
15
-5
11
33
9
-1
30
44
45
72
98
103
127
183
232
270
312
332
307
265
226
172
99
29
-25
-59
-74
-84
-97
-101
-103
-110
-112
-114
-116
-80
-5
69
147
247
377
573
783
890
1000
1247
1355
1002
379
-119
-363
-441
-465
-499
-540
-560
-567
-579
-605
-653
-712
-761
-801
-855
-915
-946
-949
-936
-871
-737
-590
-468
-339
-199
-106
-78
-78
-85
-91
-90
-97
-120
-128
-106
-87
-82
-73
-71
-92
-100
-88
-101
-128
-113
-88
-110
-138
-137
-146
-165
-170
-192
-228
-228
-208
-204
-166
-87
-60
-94
-97
-68
-75
-91
-64
-58
-91
-67
-42
-87
-30
140
260
473
677
345
-270
-386
-157
-135
-197
-148
-127
-154
-166
-165
-123
-78
-108
-139
-96
-29
24
55
62
101
203
301
351
371
377
372
351
304
243
184
129
92
69
40
27
46
66
79
109
150
191
273
402
526
694
996
1328
1614
1985
2271
1980
1170
482
196
116
100
94
64
74
124
128
136
157
106
98
159
55
-60
-8
-100
-92
252
80
-22
1116
639
-3165
-4800
-1247
1883
1412
837
1432
1228
865
1667
1220
-2539
-5934
-4593
-499
1944
2015
732
-981
-1326
-109
441
-249
-695
-599
-581
-557
-383
-252
-170
-74
-15
63
168
175
234
468
517
437
645
608
285
788
716
-2153
-4569
-2557
650
991
366
543
9
-1006
-875
-271
-285
-376
-182
-107
-130
-22
96
119
106
65
-18
