# session 42
43
32
33
66
121
168
196
215
231
248
256
247
233
228
227
223
214
212
217
202
168
160
181
192
191
182
165
160
172
184
203
241
304
369
397
468
699
963
1145
1369
1412
812
-103
-574
-562
-442
-310
-206
-205
-245
-271
-291
-288
-281
-303
-314
-296
-300
-337
-370
-386
-399
-412
-413
-382
-309
-225
-165
-109
-15
81
113
86
44
6
-24
-39
-51
-72
-95
-108
-117
-122
-115
-98
-92
-103
-113
-108
-103
-110
-102
-74
-68
-91
-88
-59
-42
-30
-22
-39
-48
-35
-38
-47
-39
-51
-70
-48
-35
-74
-101
-79
-57
-67
-83
-86
-84
-70
-45
-48
-69
-32
57
113
114
94
63
45
61
72
61
58
63
84
93
51
87
282
460
625
829
677
83
-273
-146
-30
-76
-69
-42
-65
-71
-71
-85
-66
-35
-33
-33
-26
-35
-30
-4
-3
-2
61
149
194
222
272
308
305
291
278
241
174
97
23
-42
-92
-124
-143
-154
-162
-166
-155
-134
-129
-131
-114
-89
-73
-68
-83
-108
-102
-78
-91
-127
-115
-52
-3
-10
-44
-67
-87
-107
-112
-118
-132
-142
-155
-142
-109
-136
-149
-21
135
276
480
439
-54
-436
-329
-161
-191
-197
-147
-162
-178
-148
-129
-137
-139
-112
-77
-75
-78
-32
10
5
28
95
139
171
240
308
324
317
315
297
234
136
42
-25
-70
-96
-105
-111
-115
-107
-91
-73
-57
-50
-41
-11
13
-4
-40
-41
-15
-7
-10
0
19
45
88
122
120
122
171
228
282
405
554
637
780
1088
1264
992
446
-1
-232
-327
-348
-331
-312
-309
-313
-319
-330
-339
-347
-370
-397
-413
-432
-456
-472
-491
-516
-527
-513
-462
-355
-223
-103
41
241
451
679
941
1128
1242
1406
1347
682
-191
-536
-392
-266
-270
-263
-246
-253
-264
-288
-323
-336
-346
-392
-456
-494
-504
-497
-462
-387
-287
-191
-106
-13
79
117
82
38
25
10
-12
-9
3
-4
-6
15
28
26
34
43
42
42
41
29
28
45
37
8
16
49
45
25
35
57
64
69
76
78
81
89
94
88
80
70
57
47
47
43
30
28
32
27
25
34
35
30
28
24
26
31
28
31
47
48
41
54
64
46
37
53
51
28
16
4
-15
-2
24
2
-27
14
73
80
63
45
17
-5
-15
-20
-19
-28
-22
10
-15
-34
111
292
429
716
846
332
-304
-355
-155
-163
-204
-162
-166
-195
-193
-187
-183
-171
-160
-152
-145
-126
-97
-86
-85
-56
-13
27
84
150
195
229
269
283
260
248
252
220
150
87
28
-40
-82
-93
-116
-151
-159
-143
-140
-147
-135
-124
-136
-156
-168
-172
-168
-171
-199
-210
-162
-91
-61
-77
-107
-130
-139
-141
-148
-149
-130
-122
-124
-94
-84
-119
-53
123
270
466
633
355
-214
-393
-182
-80
-105
-74
-61
-88
-76
-59
-69
-70
-63
-63
-63
-60
-45
-7
35
72
108
146
202
282
368
438
487
508
498
449
362
255
152
66
6
-25
-41
-53
-61
-63
-62
-52
-38
-40
-58
-66
-56
-57
-76
-86
-78
-63
-26
16
8
-38
-67
-82
-88
-68
-48
-55
-54
-65
-105
-93
-61
-99
-60
118
247
431
729
590
-76
-452
-292
-175
-245
-240
-196
-212
-215
-195
-197
-187
-152
-136
-141
-131
-102
-73
-45
-21
3
41
100
164
231
294
331
339
333
306
237
139
56
3
-59
-131
-161
-160
-196
-238
-204
-155
-181
-208
-177
-166
-165
-104
-71
-101
-7
220
280
14
-397
-697
-761
-649
-496
-353
-204
-95
-63
-63
-54
-47
-44
-40
-33
-19
5
31
68
125
187
254
348
460
558
631
682
692
645
558
462
367
273
180
103
41
-12
-39
-39
-53
-82
-85
-79
-77
-25
61
125
202
316
437
601
754
735
610
522
377
180
101
2
-275
-464
-399
-319
-345
-358
-344
-378
-429
-418
-373
-390
-454
-467
-444
-457
-484
-475
-448
-414
-354
-282
-210
-122
-36
16
50
87
116
130
136
137
144
154
164
215
354
520
599
612
680
761
632
262
-59
-141
-122
-150
-188
-189
-189
-204
-212
-216
-238
-272
-300
-326
-364
-412
-451
-463
-455
-436
-392
-309
-200
-89
10
97
155
167
155
147
127
78
32
16
9
4
4
-15
-48
-48
-13
5
-7
-7
31
77
95
88
70
45
28
26
26
28
35
40
46
46
37
54
57
27
87
248
398
606
774
484
-100
-292
-93
-11
-69
-66
-64
-99
-99
-91
-105
-104
-90
-89
-81
-53
-18
1
6
40
104
153
202
278
331
340
356
369
338
286
238
176
88
5
-32
-42
-81
-122
-114
-86
-86
-113
-146
-162
-155
-142
-141
-153
-146
-98
-56
-57
-73
-94
-135
-162
-152
-148
-147
-113
-111
-166
-160
-116
-164
-149
57
213
315
537
492
-66
-472
-336
-161
-207
-226
-175
-169
-170
-149
-141
-141
-136
-119
-86
-64
-60
-41
-13
7
41
94
156
233
309
349
362
372
359
292
187
90
20
-32
-84
-126
-142
-142
-148
-154
-142
-134
-140
-130
-99
-76
-23
87
193
320
579
885
1091
1293
1542
1550
1104
430
-103
-355
-422
-445
-469
-474
-468
-473
-486
-501
-522
-545
-569
-598
-631
-662
-684
-700
-714
-715
-676
-581
-444
-300
-163
-29
79
138
151
139
116
97
83
72
70
77
89
104
105
95
105
127
128
130
150
149
127
122
142
165
164
124
97
123
140
109
91
102
99
93
97
75
37
25
38
41
17
-7
23
82
89
64
72
77
39
11
7
5
28
46
10
-20
-25
-25
47
160
274
554
818
514
-151
-385
-195
-130
-198
-180
-149
-169
-168
-147
-143
-145
-139
-122
-102
-83
-55
-25
-8
8
46
96
139
174
210
246
272
282
277
249
197
144
93
30
-25
-59
-100
-147
-163
-157
-157
-154
-145
-158
-180
-166
-131
-131
-168
-173
-112
-40
-28
-69
-115
-132
-106
-77
-92
-106
-78
-73
-81
-41
-40
-100
-43
125
246
387
460
153
-292
-343
-140
-84
-104
-57
-33
-42
-27
-17
-23
-18
-16
-19
-7
9
5
-4
9
42
75
110
158
214
264
305
331
328
304
265
203
127
62
21
-2
-21
-36
-40
-41
-48
-44
-28
-30
-50
-68
-69
-47
-22
-32
-49
-16
43
48
-7
-49
-53
-58
-91
-126
-127
-96
-88
-99
-86
-99
-142
-87
37
123
290
453
220
-266
-426
-275
-206
-232
-217
-207
-210
-191
-177
-172
-163
-160
-145
-118
-114
-109
-67
-25
0
43
101
149
198
262
327
367
375
358
318
243
147
65
12
-21
-35
-46
-74
-99
-101
-107
-116
-101
-89
-108
-121
-118
-113
-64
26
65
39
19
9
-28
-78
-105
-107
-109
-107
-89
-91
-105
-75
-71
-120
-45
143
276
482
676
378
-214
-384
-202
-153
-182
-139
-136
-152
-109
-89
-107
-93
-61
-52
-46
-34
-30
-25
-6
26
68
107
145
202
275
334
357
346
317
265
175
68
-5
-44
-71
-82
-83
-84
-63
-22
23
102
206
327
566
901
1162
1433
1824
1919
1336
476
-67
-266
-362
-432
-468
-488
-501
-516
-540
-562
-578
-599
-633
-682
-730
-765
-786
-793
-775
-720
-624
-496
-363
-237
-110
4
64
72
64
46
17
4
4
-3
-14
-22
-30
-27
-14
-8
-5
-3
-5
-2
12
20
18
25
48
61
52
47
60
63
45
35
44
46
40
43
50
49
44
39
35
36
33
16
-5
-18
-33
-41
-29
-25
-38
-27
18
53
54
27
-7
-17
-2
3
-15
-26
6
61
54
8
80
227
317
509
740
503
-102
-336
-145
-55
-116
-111
-81
-86
-83
-70
-62
-51
-37
-28
-29
-30
-15
0
7
30
61
81
112
157
195
230
259
271
268
253
223
185
141
87
41
3
-37
-62
-60
-54
-56
-54
-45
-47
-59
-63
-54
-39
-30
-36
-37
-4
34
24
-27
-71
-94
-101
-98
-92
-84
-89
-116
-130
-130
-138
-111
-36
52
203
312
101
-292
-403
-244
-171
-199
-163
-112
-130
-147
-118
-101
-111
-99
-67
-50
-38
-16
7
28
58
95
137
184
239
293
333
352
353
332
286
216
138
73
29
-8
-40
-52
-54
-67
-82
-84
-79
-80
-93
-108
-102
-85
-86
-94
-81
-54
-31
-12
-13
-43
-76
-88
-93
-99
-101
-98
-104
-97
-52
-34
-76
-35
117
237
386
552
357
-153
-361
-175
-58
-87
-73
-47
-63
-64
-46
-38
-31
-19
-3
16
36
58
74
79
98
141
181
214
263
322
364
379
378
366
323
235
133
48
-23
-85
-122
-133
-140
-157
-164
-155
-154
-162
-157
-150
-155
-146
-122
-125
-134
-101
-44
-24
-50
-93
-125
-137
-142
-156
-161
-142
-145
-168
-153
-154
-193
-119
51
180
382
530
178
-419
-550
-323
-251
-286
-247
-231
-270
-276
-253
-245
-250
-238
-203
-178
-167
-146
-123
-106
-71
-18
35
98
169
230
280
311
309
278
217
124
27
-37
-81
-120
-143
-151
-159
-162
-155
-139
-122
-120
-126
-114
-77
-50
-64
-82
-43
28
65
72
70
46
23
30
30
11
25
56
39
27
64
53
35
178
357
467
696
821
405
-128
-139
82
89
39
76
100
107
118
112
135
191
208
210
272
361
417
459
520
583
633
688
766
850
917
965
995
1000
979
923
817
678
550
461
399
355
330
321
321
315
309
316
314
292
287
304
286
215
144
97
32
-72
-195
-328
-473
-607
-717
-823
-912
-960
-1018
-1116
-1177
-1202
-1221
-1123
-919
-750
-522
-279
-466
-1032
-1295
-1118
-969
-977
-967
-926
-892
-843
-809
-797
-760
-705
-687
-702
-694
-649
-603
-563
-509
-456
-417
-360
-273
-185
-107
-34
17
31
9
-36
-83
-120
-152
-169
-158
-143
-141
-132
-108
-91
-82
-63
-44
-32
-13
16
39
43
48
87
143
163
144
124
111
100
102
111
121
138
146
150
174
177
168
243
384
532
694
686
351
33
75
250
294
311
375
421
452
492
531
582
638
673
703
751
799
842
897
957
1010
1075
1166
1258
1333
1405
1473
1503
1483
1446
1386
1233
982
738
577
481
412
343
256
192
194
203
154
86
48
5
-49
-53
-2
42
75
136
191
197
204
243
270
285
307
301
253
189
124
84
37
-83
-167
-132
-122
-105
-9
-229
-914
-1439
-1469
-1409
-1471
-1506
-1510
-1533
-1538
-1553
-1595
-1597
-1557
-1537
-1527
-1474
-1392
-1309
-1217
-1119
-1002
-803
-523
-257
-58
71
126
124
96
44
-39
-142
-234
-296
-352
-421
-466
-470
-448
-399
-332
-285
-253
-215
-187
-160
-114
-94
-89
11
181
264
263
304
371
384
385
431
476
483
489
482
427
379
347
273
260
367
437
538
724
510
-207
-649
-536
-426
-468
-394
-264
-227
-203
-143
-102
-105
-117
-81
-11
1
-27
11
94
165
305
547
756
895
1055
1212
1311
1411
1529
1607
1637
1572
1322
1002
832
781
651
389
81
-189
-314
-224
-19
128
178
199
230
268
305
343
382
474
690
891
876
710
451
7
-374
-346
-178
-242
-339
-269
-219
-295
-390
-459
-518
-572
-648
-734
-793
-845
-923
-993
-1028
-1067
-1131
-1158
-1101
-1058
-1154
-1329
-1431
-1460
-1517
-1619
-1746
-1914
-2067
-2062
-1899
-1742
-1595
-1285
-822
-407
-86
237
531
764
1070
1449
1719
1990
2462
2789
2500
1781
1150
802
667
643
638
618
604
589
562
529
493
447
404
364
314
244
178
153
157
137
107
132
220
330
453
572
640
651
642
617
559
483
415
356
312
285
254
209
163
133
109
63
10
-7
-11
-44
-73
-79
-105
-160
-185
-170
-167
-200
-227
-222
-225
-260
-280
-271
-285
-322
-332
-333
-357
-360
-332
-332
-352
-341
-324
-327
-321
-311
-325
-338
-324
-311
-316
-319
-321
-330
-334
-328
-327
-338
-346
-337
-310
-286
-281
-267
-211
-149
-133
-152
-162
-155
-151
-144
-131
-130
-122
-88
-89
-123
-53
98
240
490
699
425
-129
-325
-201
-151
-154
-115
-116
-136
-124
-121
-113
-79
-62
-73
-79
-71
-55
-32
2
37
63
106
171
217
242
276
299
295
297
296
263
223
193
152
104
70
46
28
30
42
41
32
42
73
103
120
150
219
301
394
569
787
933
1080
1242
1126
655
197
-32
-149
-214
-211
-213
-255
-286
-290
-292
-302
-333
-378
-414
-438
-465
-496
-530
-560
-562
-527
-465
-377
-270
-151
-28
77
140
161
160
141
99
53
30
24
22
24
17
-4
-13
-3
1
-6
-14
-21
-26
-23
-19
-25
-29
-16
-4
-6
-7
1
7
3
-3
3
14
7
-10
-20
-41
-70
-71
-54
-56
-67
-48
-4
33
39
12
-12
-4
2
-11
1
19
-2
2
36
13
36
200
363
592
941
866
176
-318
-217
-69
-127
-142
-111
-133
-140
-117
-120
-130
-130
-128
-121
-114
-103
-78
-59
-56
-22
49
102
135
190
255
296
309
309
297
262
202
132
60
-9
-51
-69
-94
-122
-130
-129
-131
-119
-87
-62
-28
54
168
306
537
826
1031
1183
1407
1492
1106
404
-119
-311
-366
-399
-405
-418
-445
-444
-437
-463
-492
-509
-548
-592
-622
-681
-761
-807
-828
-840
-820
-769
-683
-533
-343
-179
-61
32
99
129
117
75
34
20
14
4
5
-2
-33
-33
16
37
10
-6
6
23
39
43
37
42
47
52
73
85
79
88
106
111
113
107
98
86
49
26
54
55
1
6
106
187
172
114
93
117
122
101
106
130
149
177
163
114
201
408
552
727
899
627
24
-191
-1
57
-24
-8
53
