# session 188
-24
-47
-90
-139
-169
-175
-158
-137
-134
-119
-72
-74
-121
-60
75
147
275
419
206
-237
-339
-156
-153
-274
-249
-171
-177
-187
-167
-176
-189
-160
-140
-138
-101
-64
-61
-30
32
61
88
146
181
187
200
204
194
188
170
129
90
54
5
-34
-39
-40
-60
-67
-50
-51
-68
-75
-76
-62
-32
-25
-38
-29
-3
29
62
57
19
-8
-22
-32
-31
-30
-22
-5
-21
-35
5
-8
-79
-21
123
236
443
588
268
-242
-356
-194
-140
-151
-116
-96
-87
-69
-79
-98
-94
-83
-75
-70
-83
-92
-64
-35
-43
-42
1
39
50
77
129
167
166
148
148
160
133
61
-4
-33
-46
-60
-68
-67
-64
-58
-47
-38
-33
-31
-24
4
38
36
17
43
86
69
20
5
5
-4
1
5
5
16
13
18
50
19
-26
84
251
415
701
767
263
-242
-211
-36
-74
-148
-146
-110
-70
-100
-166
-140
-51
-8
-8
-23
-41
-29
13
46
67
92
121
146
151
142
154
190
205
166
98
48
27
8
-22
-59
-73
-51
-45
-85
-106
-88
-91
-130
-157
-151
-127
-117
-141
-175
-165
-103
-49
-61
-109
-130
-134
-147
-145
-117
-97
-117
-129
-68
-26
-92
-86
73
191
309
495
359
-137
-376
-224
-79
-55
-123
-147
23
-52
-279
190
205
-1741
-3153
-1589
383
390
-9
233
286
156
249
303
268
330
388
380
386
405
415
405
352
278
229
204
192
168
116
93
131
145
96
71
86
64
31
67
113
97
88
116
132
159
189
153
109
116
88
38
56
90
68
31
24
20
-9
-7
76
208
482
857
832
271
-133
-64
1
-127
-181
-130
-133
-178
-192
-180
-171
-175
-185
-183
-168
-153
-148
-144
-134
-112
-92
-78
-59
-38
-21
0
15
-1
-24
-23
-38
-100
-148
-155
-187
-254
-263
-217
-207
-233
-236
-212
-179
-165
-196
-215
-169
-127
-139
-143
-100
-38
-8
-55
-151
-184
-126
-93
-129
-122
-40
-19
-61
-34
7
-27
27
225
375
491
581
350
-113
-261
-86
-18
-79
-80
-52
-52
-54
-49
-30
-2
9
21
42
41
36
63
93
107
124
151
196
261
299
301
307
317
329
343
321
273
243
195
111
55
44
47
47
1
-64
-37
41
47
23
15
-14
-3
68
59
8
59
96
31
8
11
-84
-140
-69
-50
-111
-88
-22
-27
-38
-38
-71
-19
101
84
104
352
381
-31
-311
-216
-124
-119
-102
-161
-193
-111
-141
-259
-190
-55
-86
-134
-70
-39
-76
-61
-20
-13
12
17
-26
45
136
37
50
215
86
96
489
-125
-1746
-1809
45
765
-749
-1834
-881
309
286
13
176
233
112
132
177
162
185
201
178
204
262
253
166
79
47
62
103
141
137
91
75
139
180
91
18
110
230
328
461
365
-60
-321
-194
-55
-77
-88
-71
-98
-111
-70
-40
-57
-67
-56
-66
-71
-48
-49
-67
-43
-6
14
32
37
48
118
207
245
248
249
243
224
189
128
38
-34
-36
-10
-34
-66
-43
-25
-34
-27
-39
-94
-122
-117
-125
-130
-114
-81
-11
79
147
209
321
486
590
549
451
353
258
355
623
545
21
-327
-264
-199
-290
-327
-256
-215
-253
-280
-253
-230
-229
-219
-221
-248
-250
-187
-117
-111
-136
-125
-99
-116
-172
-217
-234
-259
-287
-252
-157
-90
-75
-68
-42
-7
-4
-39
-40
1
14
14
36
29
-8
-23
-22
-38
-57
-42
17
61
26
-30
-9
33
-9
-71
-46
25
81
118
98
21
-20
-13
-4
36
96
105
63
43
41
-1
-6
131
271
354
574
708
338
-146
-161
16
-6
-46
6
12
-5
2
-18
-26
27
53
10
-17
21
76
83
51
60
121
164
189
208
214
289
389
359
385
477
259
203
635
-172
-2667
-3574
-1507
360
299
14
244
279
205
285
286
231
258
263
237
238
220
235
325
333
233
174
129
124
219
104
-101
199
300
-673
-1314
-486
336
232
161
425
585
718
630
-51
-454
193
170
-1945
-3490
-1957
258
525
89
265
385
255
289
330
254
246
307
360
388
380
399
431
394
422
513
458
474
584
318
279
768
-506
-3926
-5132
-2379
334
703
415
459
550
540
329
508
847
-679
-3204
-2883
-192
953
451
460
754
624
570
671
640
653
769
814
852
939
992
1125
1467
1712
1446
797
261
41
-25
-92
-137
-99
-79
-154
-146
-121
-306
-252
49
-490
-1354
-873
-435
-2228
-4119
-3174
-839
203
117
106
235
280
339
394
432
552
667
658
613
587
550
535
535
475
418
441
462
426
415
436
419
406
420
369
342
435
381
213
411
333
-1396
-3818
-4035
-1680
420
701
393
500
622
553
557
626
633
605
601
607
582
570
587
615
797
1100
1230
1086
439
-398
82
799
-2102
-6674
-6121
-1302
1053
445
258
513
619
624
-973
-3720
-4032
-1340
884
1092
838
971
1035
984
1010
1033
1052
1100
1104
1087
1051
938
839
761
639
617
616
450
473
614
371
400
694
41
68
1405
-1008
-6405
-5491
307
158
-4013
-3098
545
1030
248
564
701
470
575
630
515
559
633
576
478
468
605
752
851
984
866
337
-22
79
167
111
122
83
-50
-129
-70
162
170
-135
210
468
-1717
-4501
-3524
-202
959
327
357
679
567
542
644
623
664
741
677
592
572
505
387
316
268
189
131
155
208
196
134
172
329
419
460
642
876
1092
1370
1418
1130
869
-25
-2546
-5137
-4956
-2259
-79
225
-68
-6
64
-7
11
27
-72
-148
-162
-193
-247
-294
-296
-234
-185
-188
-138
11
157
242
317
372
345
293
275
243
209
215
175
105
136
199
165
94
66
81
147
197
161
137
178
156
55
35
93
86
39
56
83
59
42
46
52
81
95
58
41
65
62
31
-1
-30
-21
20
32
36
71
100
94
44
17
129
159
-32
90
360
-65
-164
676
-425
-3696
-4054
-680
1358
772
260
235
29
83
283
191
105
193
217
151
130
162
157
108
118
168
134
81
131
195
177
153
177
224
256
239
250
362
399
306
341
382
210
253
364
-31
72
676
-1060
-4390
-4194
-691
920
204
115
519
353
245
400
368
283
306
313
311
326
309
280
267
251
226
211
216
213
203
225
226
172
188
282
359
513
764
943
872
246
-383
208
502
-2044
-4572
-2879
294
747
12
232
441
249
312
394
278
265
329
316
316
349
357
384
445
458
443
485
496
433
423
366
190
222
210
-512
-1210
-741
56
-1
-245
-61
-71
-181
58
-108
-387
395
115
-2915
-4404
-1839
236
-302
-340
495
396
66
294
354
196
224
257
234
300
309
217
292
510
610
753
1014
845
195
-110
107
210
80
41
101
155
156
86
105
164
53
95
246
-114
-120
700
-409
-3803
-4506
-1294
886
452
220
661
634
526
668
665
572
549
467
360
325
296
239
188
157
152
149
105
50
56
90
73
36
47
69
59
78
133
117
32
5
43
23
-54
-64
-64
-115
-14
80
-140
-30
438
-343
-1893
-1474
434
937
126
-200
-39
-11
-25
6
12
11
22
35
31
14
16
16
9
47
93
68
22
42
93
110
121
161
186
185
246
328
277
236
346
309
161
273
207
-83
329
143
-2619
-4927
-3019
201
720
11
174
386
225
290
410
328
300
378
404
380
347
296
255
279
312
271
244
286
261
190
210
221
190
287
429
529
731
787
375
-83
-153
-11
105
29
-101
79
81
-250
204
528
-1257
-2770
-1204
677
381
-95
274
318
147
277
347
319
390
427
419
450
469
462
435
373
315
287
254
177
90
128
187
40
-7
209
66
-99
428
-380
-3890
-6010
-3539
-61
899
571
391
568
886
-582
-3833
-4548
-1472
995
881
506
753
764
637
664
681
727
821
920
1036
919
509
296
412
459
359
351
433
444
360
289
294
311
287
266
273
262
254
289
270
202
284
354
234
354
543
221
377
1002
-744
-4179
-4180
-760
971
343
170
477
305
199
321
272
190
217
249
257
209
146
187
260
249
211
201
210
233
224
158
106
109
127
141
141
111
125
172
125
132
233
15
-79
669
388
-2665
-5153
-3474
-312
527
51
164
371
268
288
352
276
247
283
273
274
303
284
243
262
314
339
356
359
321
307
370
429
400
305
265
359
402
267
195
189
35
33
117
-249
-194
510
-793
-3948
-4189
-1049
691
132
-5
378
258
158
315
320
307
418
443
372
390
539
687
773
971
1318
1422
1004
410
94
62
88
54
7
20
1
-85
-52
-21
-135
-16
84
-333
-201
374
-1065
-3382
-2607
-90
285
-480
-249
51
-137
-61
165
209
275
368
387
408
405
353
339
338
281
224
213
190
140
120
150
172
165
164
120
10
34
159
67
-9
153
36
-97
238
-17
-385
660
355
-2424
-2414
-264
-2220
-4614
-1613
1477
594
-85
639
551
289
511
469
435
644
788
1121
1389
896
201
104
224
165
153
225
209
165
204
200
-69
-396
-281
156
297
167
237
308
72
143
536
-538
-3521
-5291
-3452
-261
1047
778
711
908
827
702
692
612
502
480
483
439
382
371
383
352
300
284
300
326
345
348
380
478
601
741
928
1109
1349
1769
1874
1147
336
93
-253
-395
332
-365
-3496
-4697
-1949
384
99
-302
22
-6
-156
-71
-136
-275
-237
-198
-243
-244
-191
-135
-59
60
194
273
292
309
319
303
306
286
145
-34
-67
56
163
166
156
173
170
216
275
193
161
243
53
-114
236
18
-1930
-4520
-5513
-3805
-763
890
658
378
624
652
527
546
560
573
620
585
511
455
409
449
516
453
357
357
361
337
340
327
329
415
556
781
940
663
120
-89
51
101
-10
-5
117
23
-98
126
38
-324
318
457
-2153
-4123
-1983
646
491
-96
305
390
196
319
368
319
426
488
439
432
424
372
333
291
235
172
83
48
136
187
90
6
26
45
45
57
25
10
96
125
51
114
260
233
203
211
49
111
356
2
-94
710
-72
-2925
-4199
-3060
-1807
-663
452
587
452
781
646
61
1
247
222
152
207
190
135
195
277
302
327
263
185
410
595
210
-51
444
739
263
21
430
648
433
353
490
518
492
601
677
523
347
350
322
200
223
221
31
71
176
-111
-48
293
-258
-155
1205
-406
-4030
-2727
669
-1403
-4206
-1499
1481
831
178
617
418
162
329
174
-29
192
381
284
219
305
408
490
578
769
883
316
-212
659
932
-1621
-3652
-2066
648
1675
-336
-4915
-6242
-1441
1707
-1632
-4553
-2270
775
1204
885
1124
1255
1196
1258
1306
1297
1343
1380
1308
1184
1146
1164
1058
881
837
856
760
615
580
612
545
450
528
588
422
385
470
287
382
730
233
190
1427
-148
-4748
-5083
-483
1655
442
234
778
483
350
578
435
270
437
611
637
663
768
758
395
18
162
371
-459
-2623
-5148
-6198
-4416
-763
1703
525
-2966
-4179
-1568
980
1036
595
860
927
755
850
1002
977
893
890
970
1004
922
826
776
707
616
545
449
337
312
321
263
235
273
265
215
155
149
291
247
-1
378
564
-1770
-5063
-4731
-1146
968
545
120
406
501
381
380
415
376
313
322
380
366
299
264
241
241
295
341
349
368
394
391
421
496
479
443
527
471
357
684
484
-1946
-5194
-5490
-2407
398
828
414
512
646
530
509
575
562
530
513
504
516
510
463
409
360
358
441
512
525
620
817
932
920
939
966
826
678
802
860
437
16
43
-13
-221
16
89
-400
-72
438
-1213
-2995
-1679
293
48
-556
-206
-121
-358
-280
-235
-351
-335
-269
-278
-263
-189
-103
-64
-62
11
130
154
119
112
109
131
185
198
241
260
125
171
331
-3
-73
549
-325
-2640
-2603
-252
589
-77
-21
300
130
95
204
119
71
109
76
81
139
93
3
12
39
-11
-32
24
41
22
76
115
21
-71
-51
-44
-99
-127
-131
-100
-49
-118
-143
31
38
87
586
561
23
328
-276
-3188
-4096
-1127
788
-52
-392
117
-2
-173
-37
-99
-114
35
-14
-41
89
-3
9
307
56
-126
695
-12
-3207
-4074
-949
1196
638
455
1032
799
436
753
740
190
172
-259
-2474
-3764
-1676
716
725
281
640
738
579
726
800
659
676
817
817
700
628
643
669
628
578
636
710
630
556
684
736
546
545
841
969
1104
1529
1333
397
298
694
186
394
1346
-423
-2625
-769
255
-3080
-3679
304
1880
596
634
1145
749
724
1048
960
860
965
1016
1020
1031
1053
1104
1099
1014
930
847
772
718
638
571
550
488
454
507
453
384
447
310
173
441
111
-1124
-1357
-246
252
-91
-124
-13
-132
-129
-42
-104
-164
-152
-166
-211
-260
-318
-378
-387
-322
-254
-123
128
98
-460
-953
-932
-819
-897
-930
-913
-993
-1047
-1012
-1045
-1121
-1033
-952
-1172
-1243
-901
-997
-1344
-815
-843
-2763
-3619
-1753
-372
-834
-1040
-698
-770
-856
-739
-821
-937
-939
-1029
-1133
-1096
-1034
-1070
-1137
-1095
-994
-1000
-974
-801
-802
-940
-829
-672
-567
-296
-344
-496
121
-171
-2623
-3708
-1415
600
417
206
593
690
771
950
942
1110
1455
1566
1791
2280
2274
1739
1574
1899
2142
2212
2322
2497
2656
2752
2899
3152
3304
3362
3550
3759
3897
4124
4316
4456
4837
4905
3509
671
