# session 197
13
6
27
44
31
46
100
89
39
95
209
277
352
337
105
-79
3
114
107
122
168
161
147
175
209
232
243
239
236
247
263
279
304
336
356
358
356
360
360
354
354
365
376
383
381
357
317
285
256
218
195
213
236
228
221
233
238
238
255
275
288
306
316
294
245
191
160
158
146
118
108
101
99
121
89
14
31
86
162
387
516
261
-188
-534
-414
-84
-553
-770
439
-996
-6985
-9520
-4317
473
218
-22
1202
816
-211
40
367
184
276
475
468
511
587
580
583
572
510
492
499
443
372
342
307
245
211
202
165
116
107
122
135
151
149
133
154
199
218
218
202
143
92
77
31
-7
38
25
-30
88
155
52
251
482
313
589
801
-308
-239
1299
-1864
-8300
-7586
-960
1394
370
477
-1870
-5963
-4832
-78
1588
742
771
1106
892
856
982
930
933
1012
1008
989
984
951
927
907
868
840
823
805
810
816
771
705
676
672
666
660
660
659
652
630
602
592
587
555
495
433
391
361
313
260
232
188
122
82
33
-12
55
137
185
425
652
333
-236
-377
-243
-261
-325
-293
-274
-285
-272
-260
-246
-204
-164
-145
-125
-101
-93
-99
-87
-35
28
59
70
73
37
-41
-124
-201
-271
-331
-392
-463
-523
-568
-602
-596
-542
-478
-416
-353
-309
-277
-243
-208
-157
-96
-88
-123
-96
-22
-20
-79
-92
-70
-95
-138
-129
-100
-101
-82
-53
-90
-115
-30
77
227
474
487
90
-232
-183
-90
-125
-134
-110
-120
-119
-106
-118
-123
-98
-72
-53
-28
3
27
43
62
88
114
134
147
152
164
178
175
158
156
166
148
105
79
74
52
18
20
54
67
54
49
52
45
36
55
102
114
69
67
129
122
40
11
-21
-90
-68
-59
-109
24
78
-92
172
330
-258
308
1296
-1731
-6239
-4907
-63
1200
80
287
682
356
368
532
401
386
477
434
407
444
436
422
441
460
472
481
494
514
536
560
586
595
581
559
543
526
482
399
327
297
272
224
166
126
124
102
58
76
40
-86
5
89
-132
28
304
-244
16
1094
-1414
-6180
-5618
-644
1318
284
13
52
-149
235
469
211
305
557
573
719
778
339
-56
29
189
181
177
197
175
175
220
259
271
265
264
278
287
292
303
291
262
260
279
299
318
316
321
341
290
236
263
175
39
64
-96
-298
-28
-200
-729
145
57
-3926
-6399
-2973
356
15
-40
-257
-2878
-3649
-710
1250
962
1250
2162
2294
1905
1496
1134
958
878
725
597
557
469
335
338
415
420
567
831
646
59
-206
-95
-78
-164
-177
-178
-203
-213
-217
-203
-178
-177
-161
-116
-112
-150
-162
-135
-99
-75
-68
-59
-36
-2
39
53
21
-11
-26
-55
-95
-140
-204
-245
-223
-191
-186
-171
-140
-139
-167
-177
-174
-191
-212
-209
-195
-189
-163
-92
-14
17
2
-27
-47
-58
-67
-54
-27
-32
-42
-13
-18
-45
50
178
277
567
821
498
-68
-171
-4
-13
-47
33
67
37
46
69
65
80
109
78
51
103
85
32
144
129
-28
194
203
-274
302
588
-2891
-6716
-4677
140
1361
353
476
799
524
520
658
569
559
626
601
602
638
607
555
520
477
448
460
488
516
592
775
981
1049
967
813
640
588
698
650
267
-87
-139
-93
-123
-168
-184
-180
-173
-193
-208
-187
-194
-247
-276
-295
-355
-352
-272
-293
-305
-195
-292
-395
-123
-222
-526
191
126
-2468
-3792
-1362
724
224
-199
202
148
-4
163
165
89
172
208
183
210
224
203
198
186
161
146
134
123
117
113
107
99
95
103
99
68
45
46
34
14
23
49
60
67
72
42
-8
-26
-22
-33
-58
-85
-90
-64
-77
-126
-93
16
154
376
460
111
-348
-430
-292
-265
-290
-262
-235
-212
-176
-155
-140
-110
-80
-63
-47
-27
-4
22
45
60
77
100
125
153
184
200
221
248
222
188
211
138
7
229
708
782
432
225
221
151
68
73
80
79
127
190
288
487
679
796
945
986
634
108
-173
-259
-337
-358
-347
-398
-410
-367
-414
-437
-367
-467
-512
-227
-461
-1413
-1545
-600
-165
-450
-462
-264
-242
-183
-44
19
77
159
180
160
147
144
148
143
124
113
120
131
139
136
132
144
163
150
110
108
153
168
136
118
129
134
135
136
134
155
175
154
151
161
111
125
183
51
47
267
3
-164
499
-189
-2686
-2912
-393
607
23
263
48
-1072
-793
394
471
119
288
377
254
283
328
284
277
338
432
520
607
623
353
-67
-184
-26
29
-30
-44
-48
-72
-79
-97
-118
-101
-88
-115
-135
-126
-111
-88
-56
-45
-40
2
63
88
70
61
83
94
78
75
69
31
-3
-21
-42
-50
-77
-141
-123
-11
32
-8
-17
-9
-25
-39
-49
-64
-67
-68
-74
-71
-65
-57
-34
-19
-30
-22
31
73
60
29
6
-17
-24
-2
15
5
5
32
25
-10
38
140
233
428
605
371
-126
-300
-146
-74
-133
-153
-118
-92
-120
-174
-177
-152
-157
-155
-137
-154
-167
-123
-90
-106
-94
-33
25
76
144
212
250
259
253
230
180
117
63
22
0
0
10
11
14
25
27
29
47
57
66
121
189
252
415
643
777
938
1222
1238
728
110
-197
-261
-271
-284
-322
-376
-408
-421
-429
-433
-435
-447
-461
-487
-556
-626
-622
-584
-593
-603
-568
-509
-402
-255
-146
-63
34
82
82
106
119
73
31
22
16
9
14
18
18
18
24
35
44
51
64
79
85
86
87
89
90
87
85
89
85
74
74
75
67
70
79
78
80
74
44
47
107
129
71
21
34
57
61
72
70
44
73
153
165
108
74
67
36
-11
-46
-67
-79
-70
-39
-3
32
49
55
127
261
367
463
485
238
-101
-154
-24
-5
-44
-24
-12
-19
-1
10
-6
-15
-6
3
4
4
11
20
19
22
40
52
62
98
156
188
182
176
187
183
137
84
63
52
21
-35
-127
-165
-92
-99
-174
-91
-103
-249
-39
-13
-419
116
443
-2074
-4369
-2338
630
634
-46
392
520
224
298
368
264
285
324
299
326
345
312
290
257
213
196
171
153
206
304
400
409
166
-201
-299
-123
-20
-54
-80
-94
-109
-85
-86
-155
-184
-138
-130
-158
-139
-112
-114
-100
-85
-86
-54
5
33
37
45
50
49
43
21
-12
-43
-78
-116
-143
-169
-195
-190
-158
-141
-118
-51
6
72
285
578
767
973
1221
1080
450
-120
-314
-347
-389
-424
-440
-444
-466
-505
-513
-504
-504
-425
-275
-191
-138
41
256
274
102
-36
-11
90
152
186
255
336
348
291
240
219
191
145
111
110
127
144
152
151
145
138
137
140
138
127
124
138
143
126
104
87
67
43
17
-8
-27
-39
-48
-57
-68
-74
-80
-92
-98
-98
-105
-104
-88
-93
-120
-126
-116
-112
-100
-102
-145
-158
-104
-61
-52
-36
-41
-72
-73
-60
-81
-101
-100
-119
-132
-97
-65
-93
-148
-157
-83
6
60
223
447
333
-101
-298
-148
-48
-84
-86
-67
-80
-82
-65
-52
-41
-28
-17
-3
14
26
27
25
30
40
57
90
121
129
136
172
209
206
182
171
151
110
74
39
-7
-47
-76
-100
-95
-70
-77
-112
-109
-74
-67
-88
-91
-74
-66
-66
-58
-33
21
55
19
-25
3
47
36
9
3
1
-6
-9
-10
-14
-25
-26
-26
-48
-48
27
119
180
173
-8
-272
-319
-148
-44
-67
-83
-71
-73
-71
-53
-47
-59
-51
-22
-19
-36
-23
13
29
34
52
81
108
131
149
174
204
206
189
202
213
155
56
-26
-76
-101
-131
-162
-155
-142
-159
-147
-95
-53
-4
63
150
328
547
678
830
1038
980
542
80
-155
-234
-245
-232
-245
-272
-276
-275
-297
-323
-336
-354
-381
-398
-412
-439
-461
-460
-443
-397
-316
-229
-133
-5
104
166
232
271
204
101
71
72
51
34
33
31
32
39
47
57
62
58
56
71
94
105
101
102
114
117
111
120
138
138
121
101
84
74
75
73
59
57
77
81
57
55
76
69
39
34
55
93
151
197
192
157
134
125
119
112
99
82
80
92
87
77
107
110
53
94
238
319
496
821
733
134
-228
-144
-75
-100
-94
-101
-89
-120
-159
-12
-94
-354
209
188
-2969
-6316
-4837
-721
774
123
93
403
304
301
441
452
459
486
454
422
392
332
281
239
196
182
176
148
125
121
107
96
112
132
134
129
120
103
94
100
122
167
209
199
148
103
81
57
20
-6
-14
-43
-74
-54
-27
-56
-77
-69
-94
-78
48
142
183
251
169
-129
-296
-199
-94
-78
-73
-87
-102
-67
-30
-28
-18
-8
-15
4
47
59
40
52
109
155
167
192
247
292
307
310
303
285
251
191
121
72
34
-7
-32
-28
-21
-21
-10
9
18
24
30
28
33
48
66
116
189
291
497
734
845
987
1296
1360
872
234
-122
-248
-299
-304
-301
-308
-305
-302
-311
-319
-320
-314
-316
-352
-391
-392
-387
-411
-429
-414
-385
-366
-333
-228
-79
20
75
150
213
212
159
97
58
41
22
-7
-41
-45
1
6
-42
-18
-14
-79
20
55
-201
-15
327
-1254
-4689
-6535
-4723
-1319
603
623
350
501
589
517
538
563
522
537
598
610
577
567
596
601
539
467
448
443
403
368
362
330
306
348
340
282
366
503
569
789
984
617
23
-75
110
101
37
69
66
33
41
35
3
9
34
7
-27
11
56
40
32
66
81
96
152
193
196
220
254
239
208
218
183
49
-13
12
-74
-101
18
-131
-204
236
-91
-1299
-1025
164
-659
-1955
-752
1063
1216
1123
1696
1850
1306
636
86
-200
-225
-240
-301
-309
-291
-298
-318
-337
-342
-348
-376
-397
-413
-459
-503
-519
-548
-554
-484
-392
-308
-210
-133
-55
62
128
107
89
79
47
42
61
60
63
74
66
52
43
44
72
73
3
-63
-70
-81
-123
-130
-66
2
-4
-29
4
25
-20
-30
15
20
0
27
66
65
40
10
-8
-5
-3
-9
7
39
60
66
58
47
64
57
-5
-23
17
16
1
7
-25
-20
61
130
271
439
297
-78
-300
-273
-13
6
-1020
-2302
-1965
-326
496
127
32
450
107
-866
-829
151
533
295
305
429
388
403
469
472
492
508
457
420
413
369
305
264
226
175
134
99
56
29
34
36
17
7
39
91
116
132
178
216
290
491
694
848
1086
1283
1351
1241
324
-1226
-1629
-568
51
-278
-411
-253
-290
-331
-261
-255
-276
-273
-304
-345
-370
-405
-443
-472
-497
-497
-448
-364
-267
-168
-77
-3
58
88
62
11
-8
-16
-57
-88
-78
-84
-102
-87
-95
-147
-147
-86
-65
-100
-134
-150
-156
-152
-134
-108
-93
-103
-116
-106
-78
-54
-42
-35
-32
-42
-67
-100
-129
-133
-109
-105
-123
-81
22
71
54
51
50
20
20
56
61
30
34
83
81
56
164
333
454
702
888
492
-134
-214
30
36
-48
-2
25
0
14
20
-7
3
52
72
51
39
67
125
169
170
173
219
266
275
282
291
270
236
219
194
157
145
144
109
52
35
63
71
32
8
27
49
88
174
262
403
676
927
1106
1442
1723
1362
502
-143
-371
-431
-446
-472
-525
-517
-466
-483
-527
-524
-529
-579
-628
-669
-716
-730
-708
-715
-722
-630
-520
-472
-320
-107
-74
-32
91
-26
-13
239
-143
-340
559
-269
-3460
-3908
-700
917
70
-69
386
202
92
265
219
159
234
246
236
268
272
261
259
236
215
218
212
184
180
189
157
118
135
145
96
69
100
112
79
58
84
127
136
105
97
111
77
33
69
126
116
108
115
53
26
126
182
212
398
424
3
-366
-310
-175
-140
-111
-146
-104
29
-216
-645
-499
-102
-182
-366
-247
-175
-169
-27
-11
-5
284
187
-485
-512
270
609
405
397
468
387
359
349
257
213
218
177
147
160
154
128
116
113
122
151
164
147
146
186
235
273
324
397
515
729
950
1031
1075
1196
1140
736
285
65
-9
-83
-159
-203
-235
-286
-326
-317
-304
-333
-374
-397
-415
-430
-437
-444
-449
-444
-438
-421
-376
-310
-229
-128
-29
45
102
139
148
141
128
105
85
81
79
62
42
40
47
54
64
60
40
32
26
0
-26
-46
-74
-96
-104
-149
-220
-208
-133
-187
-344
-378
-348
-431
-516
-508
-528
-566
-534
-515
-545
-531
-495
-520
-551
-505
-452
-467
-476
-440
-423
-345
-132
68
191
236
15
-374
-491
-348
-294
-319
-283
-265
-286
-281
-280
-280
-221
-139
-103
-87
-50
-3
34
58
82
120
167
213
256
289
301
294
265
234
233
235
189
128
94
67
41
37
41
54
92
113
100
122
203
276
313
349
395
429
435
441
505
589
594
543
520
530
553
573
564
560
571
550
538
556
494
400
426
482
503
554
456
109
-99
11
115
59
3
-6
-13
-1
37
70
96
142
209
258
277
288
305
336
371
401
441
503
554
568
545
493
429
358
246
71
-129
-276
-338
-381
-482
-631
-791
-963
-1131
-1239
-1262
-1270
-1327
-1337
-1156
-859
-677
-651
-593
-416
-246
-187
-183
-155
-103
-59
-38
-36
-43
-68
-127
-202
-251
-267
-265
-222
-162
-156
-132
16
