# session 259
66
392
28
154
1061
-382
-4606
-5773
-1940
920
364
110
673
8
-643
-244
33
517
721
-1273
-2737
-882
-17
-2301
-3131
-1828
-1594
-1353
191
844
281
220
513
438
338
453
599
706
896
1119
958
450
237
353
399
404
329
239
437
395
32
447
680
-646
-1225
-271
-944
-2743
-2555
-1363
-603
568
1364
869
648
1113
784
442
1347
775
-2550
-3920
-1414
877
1265
514
-1408
-2138
-333
1004
1107
901
-1183
-3149
-966
1767
302
-1727
-573
996
838
523
679
586
474
628
626
456
503
674
803
1112
1427
1171
544
331
522
507
357
473
485
234
383
491
8
411
844
-2134
-5559
-3544
212
-436
-2005
-417
1194
896
720
979
873
820
857
677
614
669
590
573
543
429
579
535
128
547
783
-1430
-3483
-1727
936
314
-2240
-3562
-2741
-690
720
676
337
441
473
318
297
316
301
434
529
398
546
1084
1111
492
165
261
314
347
277
172
379
259
-144
506
570
-1913
-2996
-523
-45
-2837
-2859
125
1120
359
457
768
589
608
719
619
640
774
698
531
533
519
386
478
531
106
153
705
-344
-2319
-1775
649
1514
1075
1338
1854
1616
971
423
55
-136
-217
-265
-274
-249
-247
-285
-316
-296
-277
-356
-479
-515
-552
-642
-601
-558
-656
-480
-198
-338
-50
643
-446
-2531
-2029
264
888
300
292
278
-58
-24
164
121
127
282
418
476
453
467
513
393
331
457
330
218
440
-140
-1562
-2148
-2296
-3156
-3127
-1235
442
638
336
266
306
341
350
340
372
457
571
649
600
527
636
827
889
1039
1304
873
-120
32
747
-830
-3374
-2930
-1114
-1533
-2119
-542
717
312
92
466
535
493
616
647
622
685
739
729
771
886
843
694
752
697
394
578
634
-691
-1736
-698
449
57
-424
-271
-281
-360
-185
-92
-91
82
328
550
825
1098
1308
1582
1864
1767
1161
445
-4
-201
-301
-319
-274
-319
-410
-335
-272
-406
-351
-222
-964
-2409
-2907
-1819
-494
-143
-368
-391
-257
-180
-26
203
315
331
379
443
446
409
373
383
613
942
956
1034
1595
1503
539
383
123
-2096
-3278
-1298
-227
-1545
-1457
115
296
-243
-68
53
-148
-163
-163
-245
-169
-30
12
52
215
438
524
486
510
519
473
509
419
287
470
320
-30
702
697
-1924
-3367
-1697
-1131
-1942
-574
1200
750
165
585
683
532
636
606
520
615
616
532
619
704
612
576
633
578
559
635
529
549
788
471
305
1085
-68
-4094
-5440
-2101
-121
-1797
-2453
-512
1000
988
696
657
679
703
699
635
577
583
599
582
658
859
1049
1309
1618
1418
673
305
514
550
435
544
439
295
758
263
-2708
-5366
-4935
-3948
-4370
-3260
-369
90
-1547
-1148
817
1453
1039
820
732
713
823
875
865
850
816
864
953
897
806
850
855
736
700
753
780
820
792
781
1010
1097
1010
1401
1529
1071
1884
2349
-1381
-5335
-3512
-141
-1025
-3214
-3039
-1671
-449
300
243
-53
72
249
12
-128
231
-162
-1710
-1878
-136
143
-1440
-1519
-20
507
263
514
782
670
629
703
715
682
576
499
552
560
503
490
407
388
549
419
237
622
238
-1769
-2722
-1048
613
571
168
114
54
132
327
347
329
376
357
338
376
387
398
413
358
354
495
624
789
1129
1199
626
64
121
288
142
113
207
31
29
211
-773
-2855
-3871
-2954
-1306
-67
368
254
216
342
369
395
516
622
687
695
662
645
544
430
452
314
108
298
220
-239
212
405
-1351
-2369
-1366
-1534
-2448
-1386
-516
-1617
-2032
-752
394
707
672
678
849
944
855
824
829
797
1061
1513
1385
687
214
133
214
271
-19
-151
313
-199
-2031
-2333
-579
301
-201
-323
-111
-232
-270
-98
-36
-25
37
92
171
274
312
301
317
327
287
273
256
150
143
242
112
57
368
183
-660
-1121
-1335
-1663
-1224
-248
92
96
286
282
165
250
347
375
428
456
447
424
440
528
544
652
1070
1156
635
298
-109
-1329
-2116
-1358
-286
47
62
35
-65
-54
32
23
6
77
165
221
282
350
396
463
568
599
586
625
556
463
563
391
52
461
522
-1102
-2202
-1292
-657
-895
-358
288
52
-53
230
222
175
328
386
416
453
352
385
500
336
474
870
487
595
1758
105
-3792
-3187
414
-374
-2971
-1592
567
190
-170
355
254
-41
105
147
21
6
27
46
68
57
70
83
86
168
153
65
345
521
0
-132
268
-595
-1872
-1072
504
592
203
349
309
95
179
273
216
262
437
527
525
605
589
410
565
655
139
440
1146
-979
-3842
-2199
919
95
-1725
-1375
-1177
-1155
214
925
216
111
549
434
254
321
293
261
333
392
427
435
436
455
423
427
488
421
466
711
575
472
1033
598
-1530
-2534
-1302
-94
275
504
402
127
246
389
239
159
251
307
329
381
360
295
459
630
392
339
614
232
107
1050
-229
-4149
-4593
-894
63
-2411
-3002
-1740
-1472
-1086
320
842
285
236
562
477
324
368
404
467
571
596
613
648
612
581
579
525
548
641
590
621
765
553
562
1131
377
-1783
-1995
76
1040
421
216
405
246
128
225
264
246
242
262
276
243
300
437
401
360
461
367
357
643
439
425
1409
647
-2081
-1559
1640
1235
-1500
-1671
-972
-1258
-665
206
-140
-432
-158
-218
-347
-211
-190
-235
-190
-181
-199
-263
-288
-149
-212
-326
31
7
-321
616
577
-2754
-4325
-1377
-128
-2142
-1756
658
916
158
381
595
459
468
432
396
542
614
556
562
620
638
636
620
525
454
515
471
380
550
433
32
483
593
-1312
-2321
-498
347
-996
-995
269
304
-79
200
276
75
148
255
232
258
298
318
363
337
270
315
319
241
400
488
213
479
954
-261
-1958
-1188
678
761
-3
-7
112
-25
25
143
151
181
208
205
233
250
293
381
382
388
500
532
608
832
750
690
1225
1035
-552
-1448
-891
-466
-296
137
84
-200
65
-66
-540
67
26
-2453
-3757
-1525
386
-122
-541
-170
-245
-484
-398
-321
-367
-388
-188
61
-12
172
652
37
-940
-523
-547
-2080
-1971
157
1000
541
653
854
668
789
1158
1394
1534
1597
1660
1592
1114
686
711
598
218
110
95
96
313
76
-167
605
-77
-3457
-4408
-1119
296
-1968
-3089
-2243
-1735
-892
545
924
587
717
844
665
625
622
505
509
584
555
524
534
515
505
469
368
397
475
320
271
423
184
137
722
16
-2005
-2221
-1063
-1432
-1849
-308
971
707
490
654
520
373
417
472
591
665
553
482
521
509
519
542
413
405
590
403
176
571
384
-1194
-2416
-2395
-2092
-1359
-39
561
277
204
339
275
264
347
340
336
391
421
397
374
429
449
387
456
463
329
594
706
174
637
1073
-1975
-4934
-2413
495
-1125
-1870
82
-415
-2003
-627
954
492
296
783
709
562
702
690
640
650
592
641
779
816
879
1016
1139
1388
1690
1607
1035
263
-266
-152
-33
-1255
-3243
-3534
-1671
16
219
-62
-78
-122
-258
-302
-338
-440
-529
-536
-442
-327
-242
-76
145
265
350
450
403
326
363
286
247
410
165
-86
525
302
-1672
-2552
-1655
-1380
-1162
202
831
194
-36
167
139
192
313
243
226
339
397
403
390
386
442
440
379
481
651
765
1076
1332
905
201
85
328
306
207
323
299
61
167
331
-501
-2086
-3030
-2636
-1241
126
508
243
240
439
447
422
498
543
553
584
578
500
406
366
363
318
252
256
281
262
287
311
225
217
297
257
374
520
94
101
774
-1071
-5212
-5739
-2131
-314
-1070
-1016
-327
21
642
1086
990
950
736
260
237
525
561
518
572
561
524
561
563
496
485
508
457
460
542
508
526
661
528
515
865
532
233
1215
525
-2928
-4081
-2342
-2413
-2887
-690
912
182
-70
423
305
179
229
31
205
569
306
372
999
11
-2053
-1741
426
1071
430
493
791
495
415
784
645
391
939
621
-1837
-3667
-2618
-577
378
485
425
392
427
489
567
633
630
626
645
607
585
629
629
637
723
723
724
832
691
506
810
602
-1088
-2773
-2761
-1522
-336
136
34
-56
35
102
172
287
335
334
393
501
503
400
432
453
224
209
407
146
135
683
-289
-2493
-2823
-1872
-1687
-731
1018
973
69
275
526
405
470
185
320
1100
-286
-3098
-2597
364
1241
526
532
762
746
634
392
660
899
-371
-1985
-2098
-1386
-633
229
509
64
-171
-51
10
136
402
515
473
541
590
444
488
593
226
304
1014
78
-2003
-1901
-777
-1337
-1410
265
912
291
413
846
840
1010
1303
1469
1746
1663
903
353
413
467
400
428
378
351
417
207
107
481
123
-1376
-2469
-2344
-1319
-152
163
397
856
-1053
-4192
-3478
-42
1377
1033
187
-1137
-929
726
1020
489
634
395
99
507
-154
-1497
-812
814
903
460
636
651
489
599
636
565
652
743
741
676
634
770
638
167
354
116
-2841
-5635
-3533
458
207
-2695
-2772
-173
1141
587
744
1260
-1016
-4678
-4536
-751
1709
1364
787
1486
1891
325
-1088
259
2071
1778
1242
1536
1178
781
1156
302
-1635
-1466
454
1030
429
367
522
396
381
452
475
592
710
743
712
593
625
749
586
696
1104
648
608
1892
264
-4337
-4171
346
516
-2365
-1457
844
482
-185
242
247
-27
1
-82
-129
63
79
-78
-83
-63
-154
-196
-209
-266
-178
-66
-119
82
346
-60
-395
-185
-759
-1715
-1476
-1239
-1827
-1371
131
696
138
-303
367
1142
-545
-3162
-2211
975
1858
1193
1450
1888
1968
2201
2125
1753
1489
785
113
326
-47
-1322
-1181
-322
-1063
-1602
-341
414
-165
-405
-228
-350
-483
-494
-478
-346
-379
-633
-509
1
254
243
364
498
432
379
425
318
210
328
199
-9
487
278
-1869
-2822
-636
809
-424
-930
278
740
295
208
309
345
459
492
525
651
637
590
586
443
496
630
63
-396
238
190
-1648
-3036
-2650
-1597
-367
842
1091
487
95
119
180
220
295
364
427
494
503
444
426
453
418
390
391
311
370
522
307
312
890
415
-1225
-1813
-1449
-1288
-394
849
683
65
328
500
210
248
445
421
435
467
480
641
611
541
1029
1149
853
1966
2084
-2103
-5122
-2203
347
-1299
-2113
-1080
-1054
-783
341
297
-328
-184
-36
-215
-221
-176
-194
-146
-119
-127
-101
-56
72
256
327
361
462
426
350
474
353
92
548
583
-1220
-2436
-936
674
407
-28
166
100
-34
142
212
159
267
418
451
403
425
511
382
259
504
428
106
706
630
-1761
-2813
-725
-202
-2024
-1558
572
704
21
440
766
515
585
749
407
1
15
176
192
171
199
199
178
177
155
140
185
164
96
184
178
30
347
447
-995
-2360
-1295
565
720
94
159
400
339
282
291
315
390
397
331
314
281
254
327
259
113
338
418
-142
-212
254
-631
-2262
-2035
-459
241
145
176
191
83
84
181
265
317
418
516
291
-150
-226
55
173
98
103
155
133
102
131
164
143
111
108
93
64
109
223
274
265
346
460
368
116
-39
-52
-4
78
104
28
-16
51
114
57
-39
-9
57
9
35
110
-23
70
373
-4
-146
694
-300
-3374
-3729
-1245
-804
-2404
-2784
-1834
-643
338
545
357
532
652
304
-23
-32
40
66
104
133
140
175
223
272
364
400
363
492
674
614
653
821
584
636
1225
527
-860
-310
311
-1486
-2775
-1774
-872
-338
802
1296
862
716
727
455
319
404
449
452
450
466
511
503
456
453
429
364
397
431
295
314
485
183
-22
589
190
-1958
-2716
-1160
-281
-538
-186
264
83
45
205
127
107
267
309
251
276
356
387
370
395
455
486
539
562
455
522
761
627
505
778
432
83
1012
269
-3433
-4724
-2286
-1213
-1445
7
1116
497
268
582
455
464
697
599
426
418
399
354
314
302
350
320
262
348
437
575
837
603
-104
-307
-209
-200
350
305
-1379
-1993
-826
-1297
-2625
-1331
628
508
77
407
317
-2
104
202
125
145
235
346
470
529
544
512
390
330
347
215
98
154
41
-50
168
-65
-399
285
137
-1998
-2823
-1539
-1270
-1450
-125
823
414
287
506
387
338
369
211
135
220
337
465
530
751
1209
1225
572
9
-44
245
361
-1016
-4282
-6367
-4082
-215
181
-1568
-1635
-1257
-1698
-815
860
971
486
700
782
606
718
832
793
839
875
810
767
737
667
627
629
606
564
531
496
514
554
429
341
567
595
319
572
597
-1095
-2702
-1673
344
703
157
168
325
263
436
799
1078
1447
1710
1308
526
192
374
455
296
393
559
225
235
819
-28
-1700
-1189
-272
-1738
-2374
-483
27
-1094
-522
723
500
156
530
616
421
448
470
381
357
392
438
472
454
420
395
356
336
340
309
253
249
292
260
184
301
339
-408
-1558
-1934
-1678
-1516
-942
163
699
606
680
912
1275
1714
1494
755
450
444
311
342
444
362
371
435
399
428
245
3
365
142
-1705
-2859
-1800
-546
-171
189
397
172
77
140
35
-121
-203
-232
-231
-246
-234
-173
-150
-160
-181
-224
-180
-143
-304
-343
-162
-242
-266
-37
-477
-681
354
-612
-4088
-4356
-1517
-1477
-2745
-1111
611
64
-254
325
296
-214
-454
-397
-238
-173
-191
-146
-94
-105
-100
-48
1
26
19
-6
57
213
203
114
293
331
98
488
647
-1166
-2805
-1434
681
763
228
409
437
196
243
317
220
215
317
379
431
518
622
737
834
856
819
793
791
785
782
797
796
758
701
660
680
771
899
