# session 105
-18
-5
8
-4
-26
-27
-22
-30
-34
-27
-22
-19
-12
-3
6
29
75
122
158
225
326
402
458
535
579
538
472
425
348
226
127
82
66
47
14
-7
6
25
30
28
15
7
42
83
98
152
258
391
627
885
1004
1232
1698
1779
1100
269
-191
-431
-584
-602
-586
-615
-631
-623
-625
-633
-635
-631
-631
-648
-671
-685
-708
-737
-742
-718
-681
-602
-465
-300
-138
13
125
178
186
156
98
54
38
13
-25
-42
-31
-17
-2
17
32
43
53
69
108
156
227
423
728
956
1087
1234
1257
1014
715
515
308
83
-77
-204
-288
-268
-229
-271
-333
-350
-355
-371
-376
-374
-369
-341
-317
-341
-388
-412
-409
-389
-346
-285
-218
-148
-65
25
92
112
107
101
86
60
47
48
35
15
12
6
-15
-28
-30
-37
-48
-51
-53
-55
-51
-43
-36
-35
-34
-22
-6
-2
-12
-16
-1
15
8
-11
-19
-11
-4
-7
-16
-23
-20
-6
4
3
4
12
25
33
26
23
37
41
30
47
62
24
2
35
33
0
32
86
89
88
97
66
18
1
-3
-1
12
8
7
41
36
-12
50
215
362
541
610
249
-257
-345
-156
-103
-141
-130
-131
-155
-158
-152
-153
-150
-141
-122
-95
-73
-57
-29
6
34
68
126
187
242
305
368
420
453
444
408
374
327
250
166
91
28
-11
-31
-40
-51
-78
-91
-64
-41
-58
-78
-72
-59
-52
-46
-33
-20
-32
-42
-8
23
-9
-63
-89
-96
-111
-132
-151
-162
-180
-205
-196
-182
-219
-224
-134
-23
155
394
318
-158
-474
-387
-276
-293
-274
-232
-233
-220
-196
-203
-203
-174
-152
-146
-135
-115
-91
-75
-58
-10
53
100
155
236
300
336
366
366
310
221
127
36
-26
-50
-70
-103
-108
-83
-80
-91
-61
-26
2
89
191
277
481
749
900
1044
1201
1027
527
123
-83
-248
-338
-334
-363
-429
-451
-444
-451
-462
-475
-491
-489
-483
-502
-521
-512
-501
-488
-430
-321
-192
-59
77
201
291
329
318
273
207
148
116
100
88
83
80
76
85
100
105
105
102
89
77
77
81
80
73
69
73
70
54
51
56
46
39
43
32
17
26
30
12
15
36
25
-5
-7
3
-9
-26
-16
3
-1
-10
14
62
84
59
20
-4
-18
-27
-24
-14
-25
-50
-48
-50
-95
-86
28
151
317
508
369
-129
-420
-308
-191
-216
-220
-197
-202
-202
-194
-194
-191
-177
-155
-132
-120
-103
-69
-33
-6
30
79
132
189
252
309
353
384
397
376
325
261
186
104
29
-32
-80
-111
-125
-132
-139
-140
-136
-140
-148
-137
-103
-62
-15
36
129
342
621
810
977
1309
1568
1264
489
-145
-379
-444
-495
-510
-514
-534
-539
-530
-529
-532
-532
-534
-532
-526
-528
-544
-559
-556
-537
-490
-394
-271
-149
-9
148
253
279
270
250
207
145
84
42
19
3
-1
9
16
12
16
38
50
51
65
83
84
87
98
87
65
63
77
82
63
43
59
88
76
44
47
64
58
40
24
10
1
-8
-32
-55
-20
72
123
96
56
39
32
28
14
7
23
17
6
36
9
-46
67
250
349
526
617
205
-338
-374
-151
-133
-196
-174
-157
-167
-171
-183
-176
-144
-132
-133
-110
-73
-46
-23
7
45
92
155
237
325
403
464
505
514
488
440
372
271
155
67
1
-60
-98
-114
-133
-155
-168
-176
-178
-170
-171
-184
-186
-175
-167
-158
-153
-159
-152
-106
-53
-56
-109
-158
-183
-194
-207
-230
-237
-220
-228
-237
-198
-189
-195
-76
94
247
490
554
117
-340
-311
-129
-140
-178
-148
-146
-163
-157
-151
-155
-164
-161
-131
-98
-76
-42
8
47
81
141
227
319
400
467
530
573
558
496
422
334
228
145
100
63
26
3
-5
-9
-16
-28
-38
-40
-36
-37
-37
-28
-25
-43
-66
-59
-7
43
40
-3
-43
-70
-75
-60
-67
-105
-109
-69
-59
-77
-87
-121
-128
-48
58
258
548
495
-23
-391
-323
-209
-234
-242
-216
-203
-189
-187
-194
-183
-163
-145
-130
-119
-103
-80
-55
-19
27
68
113
168
224
281
323
321
296
277
227
130
39
-16
-54
-87
-113
-120
-105
-101
-116
-113
-96
-98
-96
-74
-70
-86
-82
-56
-29
-13
-11
0
41
71
51
6
-20
-21
-17
-25
-29
-19
-26
-40
-23
-31
-95
-78
47
147
268
400
220
-221
-380
-196
-86
-102
-65
-20
-24
-18
-5
-13
-17
-10
-14
-20
-9
6
11
23
53
87
120
170
237
307
370
415
433
420
369
286
193
105
34
-12
-41
-68
-86
-91
-99
-112
-121
-122
-117
-112
-109
-101
-99
-122
-141
-111
-69
-74
-91
-57
1
11
-24
-59
-81
-88
-83
-90
-101
-90
-93
-112
-90
-98
-151
-59
133
243
447
685
411
-207
-402
-227
-191
-234
-188
-183
-220
-197
-166
-173
-177
-159
-135
-116
-100
-85
-69
-33
36
101
149
219
315
398
451
485
508
488
401
282
172
75
-3
-50
-82
-107
-121
-131
-134
-125
-121
-125
-123
-121
-126
-123
-115
-128
-144
-124
-105
-121
-119
-72
-29
-19
-35
-70
-103
-107
-94
-101
-116
-115
-127
-134
-92
-90
-136
-49
128
255
471
637
293
-281
-391
-182
-137
-180
-136
-103
-107
-100
-104
-112
-100
-96
-106
-103
-82
-63
-53
-40
-10
40
103
172
251
335
404
443
461
451
391
293
195
121
79
49
6
-23
-7
12
-9
-26
-4
10
-2
-5
0
1
5
2
-15
-23
-12
-5
-21
-21
27
76
66
23
-17
-51
-61
-49
-71
-113
-114
-112
-127
-110
-103
-118
-67
16
132
401
535
157
-337
-400
-246
-230
-258
-230
-217
-213
-190
-173
-169
-162
-151
-138
-121
-101
-82
-63
-29
23
76
128
190
252
299
338
366
370
340
275
187
103
34
-21
-56
-71
-85
-99
-107
-110
-115
-117
-106
-91
-95
-98
-68
-20
49
131
183
289
535
736
805
930
995
680
174
-127
-247
-331
-354
-349
-380
-396
-384
-403
-439
-453
-463
-488
-511
-528
-545
-564
-578
-564
-515
-442
-329
-167
-1
137
258
344
368
350
311
247
181
137
95
51
36
42
33
22
33
49
54
55
59
66
74
80
84
84
73
66
74
79
74
77
87
86
74
72
82
84
74
75
81
72
62
68
73
57
28
11
17
25
20
9
0
8
48
84
71
30
1
-6
-8
-31
-58
-54
-48
-49
-37
-67
-109
-23
122
255
516
654
240
-325
-401
-216
-204
-248
-212
-201
-228
-230
-219
-214
-209
-201
-188
-175
-160
-136
-113
-90
-50
6
56
106
175
260
331
371
398
418
401
333
239
141
54
-15
-70
-110
-133
-147
-159
-162
-162
-168
-178
-177
-151
-105
-67
-44
-4
113
348
619
795
971
1350
1686
1413
567
-148
-391
-448
-516
-529
-512
-532
-531
-494
-489
-513
-516
-511
-522
-533
-539
-548
-547
-540
-535
-501
-411
-289
-158
-15
132
253
325
336
293
222
151
86
34
4
-13
-22
-18
-10
-9
-6
-2
-3
12
40
52
51
55
54
49
57
67
68
63
58
60
67
63
54
59
66
64
70
79
64
42
38
43
36
11
-15
3
70
110
86
53
46
38
20
7
18
44
53
59
78
45
12
133
313
453
706
854
438
-172
-299
-138
-130
-173
-150
-160
-186
-176
-180
-194
-186
-178
-180
-166
-145
-133
-113
-79
-47
-9
55
133
202
270
337
379
389
380
352
301
231
149
65
-4
-58
-104
-134
-147
-155
-164
-169
-167
-160
-149
-133
-127
-145
-157
-133
-116
-144
-165
-120
-46
-24
-69
-126
-151
-146
-131
-129
-138
-136
-143
-163
-151
-141
-173
-134
3
112
285
510
340
-209
-457
-281
-172
-208
-181
-137
-138
-116
-83
-83
-91
-86
-78
-74
-73
-67
-51
-40
-40
-20
33
92
154
237
315
361
390
409
392
323
224
144
97
51
18
26
41
36
39
51
43
34
49
64
50
18
5
23
44
42
39
63
102
103
59
24
22
22
5
-15
-25
-25
-31
-40
-35
-51
-78
-12
107
216
460
685
428
-113
-290
-149
-124
-188
-164
-135
-167
-198
-210
-220
-229
-227
-213
-193
-173
-147
-112
-74
-38
1
54
119
189
258
314
350
367
360
319
254
180
105
41
-4
-39
-73
-93
-97
-103
-118
-129
-133
-132
-134
-149
-173
-180
-157
-136
-144
-156
-132
-89
-81
-112
-142
-159
-171
-165
-159
-174
-180
-169
-152
-124
-127
-148
-58
94
210
404
510
159
-325
-368
-180
-154
-178
-151
-157
-169
-160
-161
-141
-111
-122
-113
-45
2
6
39
105
143
173
242
329
399
468
537
572
562
522
447
333
210
111
36
-27
-70
-93
-115
-120
-95
-88
-111
-117
-102
-103
-109
-103
-93
-79
-68
-83
-87
-28
41
48
21
6
-15
-37
-32
-26
-33
-24
-25
-45
-35
-39
-65
30
205
322
515
688
382
-207
-385
-191
-114
-155
-137
-119
-135
-133
-126
-128
-123
-115
-115
-115
-109
-100
-79
-35
12
53
112
197
280
347
406
445
449
421
359
264
153
54
-22
-73
-105
-133
-157
-161
-147
-143
-155
-163
-152
-136
-134
-145
-157
-153
-138
-143
-158
-124
-56
-42
-86
-115
-124
-139
-145
-145
-152
-154
-171
-188
-146
-121
-159
-96
77
206
392
569
309
-237
-403
-202
-115
-172
-177
-154
-167
-189
-184
-155
-142
-151
-139
-107
-88
-71
-39
0
47
100
153
222
307
374
415
451
471
436
346
250
171
90
9
-38
-53
-72
-99
-111
-111
-99
-77
-67
-59
-34
-24
-40
-33
10
31
3
-14
34
100
107
76
54
27
3
8
12
8
18
10
-5
16
7
-27
47
171
274
495
635
307
-171
-248
-105
-104
-147
-124
-119
-134
-128
-131
-149
-159
-166
-165
-149
-133
-118
-107
-101
-74
-23
17
55
116
175
216
251
277
276
238
172
105
49
4
-22
-34
-48
-54
-48
-47
-39
-24
-25
-36
-31
-21
-34
-58
-63
-50
-42
-49
-48
-20
-2
-27
-68
-93
-106
-112
-119
-127
-118
-105
-123
-131
-109
-127
-134
-25
100
191
318
261
-128
-411
-300
-142
-152
-161
-132
-133
-130
-122
-130
-125
-114
-127
-136
-119
-95
-79
-64
-40
3
56
112
182
270
353
412
450
469
452
389
304
221
151
91
48
25
10
-6
-15
-18
-29
-40
-41
-43
-53
-57
-63
-84
-95
-81
-69
-72
-62
-24
17
25
4
-25
-56
-74
-67
-60
-62
-50
-48
-62
-54
-61
-66
46
192
309
594
809
426
-198
-327
-133
-97
-143
-124
-126
-144
-129
-121
-136
-143
-132
-119
-112
-96
-68
-49
-32
0
39
83
139
197
251
306
348
356
331
273
188
97
21
-42
-91
-112
-116
-130
-148
-149
-142
-135
-123
-118
-116
-106
-103
-113
-106
-82
-73
-84
-85
-54
-14
-5
-36
-85
-122
-121
-102
-110
-131
-127
-122
-122
-111
-131
-140
-27
115
220
426
525
147
-347
-391
-207
-199
-256
-230
-196
-178
-168
-191
-198
-153
-118
-133
-137
-92
-48
-46
-41
3
51
85
143
227
296
348
386
391
362
311
239
155
90
44
0
-29
-33
-39
-57
-64
-57
-49
-39
-36
-50
-59
-53
-63
-81
-57
-8
24
96
229
342
448
618
761
856
1074
1324
1236
759
208
-175
-341
-365
-371
-398
-403
-396
-409
-419
-413
-416
-432
-445
-454
-461
-473
-492
-504
-502
-491
-465
-405
-318
-219
-94
54
173
252
325
397
531
742
853
943
1339
1636
1078
80
-375
-324
-319
-379
-368
-365
-393
-401
-396
-400
-409
-412
-408
-416
-433
-441
-443
-436
-395
-321
-236
-130
-11
73
121
174
218
210
166
120
76
45
38
37
25
20
25
22
8
6
15
9
0
15
28
17
15
28
32
40
62
69
61
69
75
64
62
75
69
53
58
67
55
43
52
59
47
36
34
20
4
5
-1
-34
-56
-51
-52
-59
-54
-49
-48
-37
-26
-21
-10
8
19
18
14
20
29
20
3
4
17
9
-20
-25
10
48
50
25
2
-4
-13
-26
-18
-12
-34
-18
21
-11
-3
158
312
475
753
717
131
-331
-256
-116
-160
-164
-134
-173
-186
-148
-148
-169
-154
-123
-109
-102
-83
-54
-29
-8
17
52
105
173
227
262
310
358
359
323
302
283
228
148
71
1
-58
-91
-103
-114
-129
-151
-172
-176
-161
-150
-158
-181
-190
-172
-165
-183
-182
-137
-87
-75
-103
-149
-180
-174
-155
-160
-163
-147
-158
-169
-127
-122
-142
-12
181
307
492
531
72
-432
-405
-172
-164
-216
-179
-152
-153
-147
-142
-123
-95
-86
-87
-73
-50
-25
8
41
72
124
202
282
358
437
502
530
517
456
361
263
153
25
-59
-69
-74
-109
-137
-156
-174
-171
-157
-158
-142
-92
-38
22
106
221
439
754
993
1151
1402
1569
1264
612
75
-218
-377
-441
-452
-471
-484
-485
-494
-497
-498
-524
-548
-552
-570
-597
-604
-615
-645
-653
-620
-561
-469
-331
-173
-28
101
214
297
335
321
279
247
224
189
151
130
128
119
89
67
66
51
33
54
73
42
11
20
21
1
4
22
14
-2
-4
-12
-41
-61
-45
-28
-40
-36
11
43
31
13
2
-14
-32
-50
-58
-44
-45
-74
-74
-63
-83
-41
80
176
314
465
293
-135
-301
-159
-80
-106
-93
-73
-80
-66
-45
-49
-51
-30
-18
-29
-27
2
20
15
23
63
112
154
193
247
307
339
335
330
329
302
242
174
108
42
