# session 265
-16
-19
-9
-7
-20
-14
13
18
8
22
49
60
71
105
147
180
216
272
328
332
286
250
229
167
71
10
-8
-40
-86
-102
-94
-98
-106
-101
-99
-96
-71
-40
-30
-29
-7
29
57
75
82
59
27
32
59
58
50
86
131
127
87
52
32
19
5
3
21
16
-19
-10
14
-27
-24
86
202
380
576
413
-64
-291
-179
-98
-117
-120
-114
-101
-79
-105
-144
-123
-89
-98
-113
-114
-114
-94
-51
-21
6
53
91
127
171
185
156
117
71
14
-30
-62
-97
-123
-135
-147
-160
-163
-160
-163
-173
-176
-170
-170
-168
-152
-135
-134
-143
-136
-107
-85
-86
-68
-5
46
39
13
-2
-17
-28
-23
-8
8
9
8
35
42
12
44
153
321
582
669
271
-235
-325
-183
-155
-169
-142
-133
-132
-125
-137
-144
-133
-116
-90
-70
-69
-49
1
44
96
179
257
319
386
433
420
381
340
264
157
73
26
-12
-45
-65
-77
-89
-93
-87
-83
-91
-98
-100
-109
-107
-64
21
130
224
309
518
853
1044
1034
1008
834
381
27
-69
-240
-463
-451
-352
-377
-405
-384
-413
-456
-452
-460
-510
-551
-572
-593
-601
-575
-530
-477
-386
-261
-150
-65
25
111
164
183
165
113
65
41
27
45
118
202
318
549
808
989
1193
1371
1197
652
117
-185
-310
-335
-327
-336
-351
-366
-397
-419
-416
-421
-451
-486
-521
-558
-585
-593
-571
-505
-401
-273
-122
33
136
168
194
242
240
158
87
88
96
43
-18
-8
39
40
-1
-21
-10
-9
-11
20
31
3
51
176
293
472
583
312
-95
-135
37
51
4
44
71
50
40
38
30
34
42
39
43
74
111
137
172
218
248
249
236
226
217
181
115
58
19
-33
-93
-118
-105
-93
-105
-117
-109
-103
-117
-127
-130
-152
-177
-174
-157
-147
-131
-92
-48
-40
-65
-86
-90
-100
-116
-93
-16
51
102
212
334
373
403
506
650
846
974
710
120
-282
-334
-311
-332
-329
-321
-324
-306
-283
-289
-304
-314
-331
-355
-379
-406
-435
-454
-460
-455
-429
-372
-294
-211
-135
-74
-19
47
103
124
134
146
173
299
532
741
952
1236
1267
745
64
-238
-224
-202
-229
-250
-240
-194
-164
-179
-182
-154
-148
-165
-188
-216
-202
-118
-27
51
151
246
301
329
322
272
217
176
131
91
65
37
16
13
6
-12
-18
-16
-21
-29
-40
-51
-52
-55
-71
-77
-71
-78
-87
-79
-70
-69
-64
-48
-38
-49
-58
-46
-40
-49
-50
-45
-51
-64
-78
-97
-105
-104
-107
-113
-121
-130
-131
-135
-149
-144
-122
-123
-139
-128
-102
-100
-96
-47
9
2
-43
-59
-53
-62
-69
-48
-34
-42
-23
-8
-47
-19
132
278
460
635
412
-130
-335
-138
-40
-104
-104
-73
-81
-71
-49
-50
-48
-30
-16
0
31
56
63
81
126
170
209
260
302
306
297
292
255
182
134
117
61
-34
-102
-126
-122
-105
-103
-115
-103
-46
47
150
283
541
882
1142
1397
1701
1619
893
83
-246
-250
-269
-327
-365
-397
-413
-412
-425
-461
-500
-537
-574
-607
-634
-652
-655
-632
-564
-441
-305
-195
-91
19
89
94
65
43
27
-2
-29
-19
-1
-14
-26
-17
-22
-36
-34
-42
-71
-78
-51
-36
-52
-75
-88
-104
-112
-86
-49
-40
-39
-23
-26
-52
-53
-24
-13
-18
-15
-14
-31
-55
-80
-110
-119
-108
-116
-127
-81
0
43
41
29
28
42
55
59
74
83
84
105
102
73
142
286
432
658
734
319
-193
-236
-59
-50
-86
-61
-64
-64
-34
-41
-63
-50
-41
-41
-16
-2
-15
1
46
91
154
222
247
267
320
336
287
242
226
188
119
63
51
51
21
-17
-23
-15
-23
-29
-19
-13
-17
-24
-36
-56
-67
-56
-46
-58
-66
-38
-5
-6
-32
-68
-96
-96
-84
-89
-94
-87
-81
-75
-79
-83
-34
53
171
368
441
133
-260
-312
-175
-144
-168
-156
-151
-152
-145
-148
-159
-162
-147
-114
-90
-88
-80
-37
14
50
95
166
229
253
249
226
183
132
68
-3
-64
-111
-150
-169
-175
-181
-180
-166
-154
-151
-142
-128
-124
-129
-114
-75
-48
-52
-35
25
64
46
14
-4
-15
-21
-20
-19
-18
-24
-19
4
-7
-36
25
145
277
477
543
200
-225
-271
-134
-141
-172
-119
-99
-131
-134
-116
-109
-91
-65
-51
-37
2
49
84
118
168
233
303
368
414
434
421
379
320
245
157
79
28
-3
-23
-34
-41
-48
-39
-21
-25
-52
-70
-76
-81
-80
-80
-90
-108
-123
-110
-52
7
19
-5
-36
-55
-57
-64
-75
-61
-44
-48
-38
-47
-81
-7
157
302
506
605
232
-302
-383
-182
-147
-213
-210
-187
-181
-181
-175
-155
-137
-125
-99
-83
-69
-18
45
72
93
157
233
277
298
312
289
223
160
95
0
-84
-135
-180
-196
-175
-175
-189
-160
-127
-138
-143
-112
-96
-119
-130
-102
-91
-132
-149
-78
5
14
-17
-35
-49
-68
-80
-73
-56
-64
-81
-49
-21
-64
-43
99
202
275
353
162
-265
-418
-231
-116
-149
-154
-123
-103
-80
-45
-12
-3
1
26
35
33
83
161
204
235
278
323
374
423
439
417
379
324
241
136
45
-7
-41
-80
-102
-100
-106
-116
-102
-83
-80
-67
-43
-46
-69
-64
-38
-46
-76
-59
7
56
69
60
45
67
133
194
263
377
510
648
783
878
972
1022
822
442
197
44
-198
-360
-339
-336
-391
-378
-337
-348
-369
-382
-415
-441
-452
-485
-539
-579
-607
-622
-613
-595
-564
-483
-371
-278
-197
-115
-58
-37
-29
-27
-36
-48
-49
-44
-35
-18
2
11
14
21
24
24
32
38
30
35
57
49
16
12
33
31
11
19
64
111
131
111
63
22
12
14
16
19
5
-14
0
-2
-25
23
111
199
380
467
166
-201
-190
-32
-34
-59
-13
-1
-12
5
16
19
34
40
35
40
59
82
106
127
151
191
236
269
297
320
319
295
256
196
120
49
-4
-49
-91
-114
-120
-133
-142
-128
-113
-110
-99
-86
-90
-99
-108
-108
-87
-53
-12
49
138
217
253
321
501
697
871
1204
1567
1473
888
285
-85
-275
-337
-343
-367
-390
-386
-371
-373
-403
-428
-416
-405
-430
-466
-493
-516
-537
-546
-530
-475
-389
-291
-183
-81
-8
28
26
-1
-26
-38
-51
-63
-63
-60
-57
-47
-35
-29
-24
-17
-14
-14
-12
-17
-24
-17
-7
-19
-38
-37
-31
-40
-52
-61
-75
-87
-87
-85
-89
-85
-53
-5
22
14
-17
-53
-66
-57
-61
-68
-57
-49
-39
-17
-24
-5
99
195
327
581
600
167
-189
-121
0
-39
-54
-30
-55
-70
-56
-54
-54
-46
-49
-54
-52
-50
-44
-20
14
48
91
146
198
231
253
266
257
231
191
128
62
12
-32
-66
-71
-65
-67
-65
-67
-74
-59
-31
10
86
164
286
568
887
1105
1437
1821
1654
842
57
-322
-463
-497
-463
-450
-459
-436
-420
-436
-439
-438
-468
-498
-515
-549
-575
-564
-550
-523
-424
-282
-176
-103
-26
42
62
31
-6
-15
-17
-31
-37
-28
-19
-8
-3
-9
-1
23
34
36
43
48
57
82
123
221
410
625
810
966
1020
887
652
449
285
117
-65
-220
-296
-305
-307
-322
-346
-363
-364
-381
-420
-419
-367
-332
-353
-406
-467
-510
-502
-464
-428
-372
-274
-175
-112
-54
23
84
116
140
151
147
154
168
161
142
131
123
112
93
75
70
57
28
28
41
22
13
47
47
5
6
38
23
-18
-6
51
76
43
7
9
30
45
56
56
55
60
53
38
43
60
64
52
28
14
18
3
-36
-45
-23
-20
-34
-20
33
89
96
57
38
52
49
34
39
34
9
6
-4
-62
-59
73
232
372
401
99
-351
-446
-230
-133
-169
-137
-89
-98
-102
-86
-73
-60
-50
-48
-41
-27
-11
10
34
63
106
162
225
283
318
329
332
320
282
220
134
42
-12
-43
-94
-147
-174
-188
-194
-190
-198
-210
-189
-152
-122
-81
-11
103
312
567
759
1010
1408
1539
1035
283
-148
-261
-295
-306
-303
-312
-318
-321
-338
-356
-362
-368
-382
-402
-426
-455
-482
-488
-465
-418
-337
-221
-100
1
82
118
85
25
-4
-19
-53
-75
-69
-63
-63
-62
-61
-43
-24
-40
-50
-14
11
-5
-13
-11
-26
-32
-9
9
-5
-38
-51
-26
-5
-20
-33
-31
-47
-57
-16
27
10
-16
13
69
93
76
35
1
-12
-26
-43
-36
-27
-44
-46
-42
-68
-55
32
126
246
337
166
-180
-293
-143
-47
-67
-72
-55
-48
-39
-26
-22
-28
-32
-19
-1
5
19
44
56
71
121
173
197
221
254
266
250
226
192
130
48
-8
-32
-71
-123
-135
-109
-91
-87
-70
-38
-9
45
138
231
379
666
939
1103
1335
1484
1121
412
-78
-254
-331
-367
-369
-384
-403
-411
-424
-449
-481
-511
-529
-544
-571
-600
-609
-599
-572
-511
-412
-293
-164
-33
66
118
138
125
96
112
206
368
505
555
713
1115
1466
1533
1415
1045
377
-179
-354
-376
-415
-432
-448
-488
-515
-524
-527
-533
-557
-595
-646
-703
-731
-725
-715
-694
-618
-485
-326
-154
4
111
175
221
221
152
64
17
2
-6
-9
3
30
60
72
68
80
100
106
122
124
77
103
249
356
423
486
300
-102
-244
-83
-10
-57
-38
-18
-52
-46
-8
-18
-44
-36
-11
14
35
42
64
121
177
220
275
325
344
339
313
256
183
114
57
11
-32
-65
-68
-57
-52
-42
-37
-42
-28
10
21
-4
-2
49
91
82
44
9
-12
-19
-27
-45
-60
-65
-54
-27
-38
-74
-18
105
219
399
482
161
-268
-298
-120
-106
-159
-147
-141
-136
-113
-116
-118
-87
-64
-66
-73
-69
-39
-3
9
42
111
150
147
160
170
131
95
85
27
-61
-85
-68
-91
-129
-126
-98
-82
-78
-68
-68
-99
-137
-159
-168
-160
-146
-146
-137
-103
-80
-86
-100
-113
-114
-106
-106
-97
-71
-57
-42
-18
-40
-51
39
159
295
468
394
-11
-268
-169
-69
-93
-84
-72
-105
-105
-79
-74
-59
-37
-40
-47
-38
-26
-2
47
95
115
126
155
192
215
227
231
206
147
87
53
30
-3
-24
-9
13
3
-4
30
62
70
115
192
247
381
644
839
948
1158
1248
866
272
-73
-182
-252
-298
-305
-314
-333
-349
-359
-371
-395
-424
-452
-484
-519
-535
-530
-524
-508
-445
-341
-238
-142
-41
43
84
91
85
78
65
43
24
11
0
-9
-6
4
2
-13
-28
-37
-47
-58
-69
-81
-87
-84
-82
-80
-70
-62
-68
-80
-74
-35
20
59
77
87
78
44
23
22
3
-27
-11
49
88
79
40
12
17
21
11
19
28
28
59
73
38
86
218
330
543
756
502
-74
-287
-131
-79
-138
-126
-102
-104
-97
-98
-101
-84
-77
-81
-62
-36
-24
-4
27
54
99
172
233
261
273
279
283
278
231
144
73
24
-34
-65
-59
-79
-117
-109
-83
-88
-92
-81
-84
-88
-65
-50
-66
-63
-8
47
40
-4
-40
-65
-79
-91
-105
-101
-94
-102
-84
-76
-109
-59
88
202
312
342
43
-346
-357
-150
-104
-142
-119
-95
-94
-80
-65
-50
-34
-32
-43
-42
-8
31
30
23
75
156
207
228
235
245
251
213
134
55
-8
-53
-94
-144
-163
-134
-124
-161
-170
-117
-55
-36
-54
-65
-44
-33
-64
-80
-35
17
15
-18
-46
-62
-69
-78
-77
-62
-61
-58
-30
-39
-58
15
118
246
503
597
215
-218
-239
-108
-116
-141
-124
-127
-122
-97
-92
-92
-81
-73
-60
-39
-26
-9
25
62
92
130
167
188
208
224
201
153
115
76
15
-42
-71
-84
-94
-95
-83
-65
-59
-72
-84
-79
-77
-91
-98
-81
-55
-30
-2
43
110
183
228
249
305
410
534
696
865
930
922
886
704
419
229
54
-209
-356
-316
-288
-322
-330
-336
-363
-376
-386
-418
-457
-488
-520
-558
-587
-586
-560
-531
-488
-414
-326
-237
-145
-60
9
59
91
95
67
30
18
26
13
-13
-16
-4
-6
-17
-20
-14
-3
1
-9
-27
-43
-58
-72
-57
-9
33
63
111
161
162
124
82
50
27
13
17
28
26
31
48
37
50
144
239
377
640
692
284
-107
-91
28
2
-27
-9
-17
-28
-23
-28
-37
-31
-17
-10
-5
10
34
63
87
102
126
174
223
246
262
270
251
215
170
98
25
-10
-32
-66
-88
-89
-92
-101
-110
-113
-106
-105
-121
-125
-110
-110
-118
-75
11
63
50
20
10
10
-4
-15
-2
-6
-31
-13
-4
-75
-80
54
190
389
614
413
-167
-429
-278
-204
-247
-214
-193
-221
-201
-168
-166
-157
-152
-154
-132
-106
-97
-73
-29
15
69
116
142
180
227
236
203
151
80
1
-63
-111
-149
-174
-179
-169
-161
-160
-152
-129
-114
-123
-140
-165
-188
-175
-155
-172
-159
-67
-1
-30
-88
-116
-126
-136
-137
-118
-103
-87
-43
-38
-85
-22
136
247
441
658
444
-82
-267
-121
-81
-129
-105
-88
-112
-107
-74
-54
-56
-52
-24
-5
-5
19
61
91
122
172
227
278
316
318
294
267
236
195
133
50
-11
-28
-36
-45
-35
-19
0
33
77
155
255
349
529
805
1016
1216
1513
1587
1142
469
-29
-291
-384
-393
-417
-449
-437
-420
-439
-458
-461
-479
-514
-538
-553
-571
-577
-560
-516
-431
-317
-212
-112
1
86
111
103
81
52
39
26
-21
-68
-72
-65
-87
