# session 55
-11
-4
7
16
18
24
40
57
73
91
99
102
133
193
246
296
366
436
468
469
452
399
305
196
105
39
-11
-54
-84
-95
-99
-105
-98
-80
-85
-97
-73
-46
-55
-55
-12
63
159
248
315
436
614
723
829
1157
1527
1413
764
93
-275
-430
-472
-443
-446
-493
-498
-478
-497
-530
-540
-542
-567
-619
-661
-685
-716
-743
-736
-696
-608
-465
-304
-141
27
156
206
207
187
138
86
73
84
82
72
75
79
67
54
55
57
43
28
32
46
48
43
50
58
44
24
30
52
51
42
78
149
177
133
78
72
91
80
59
58
60
67
76
51
56
157
282
466
719
653
131
-261
-194
-57
-84
-108
-78
-78
-101
-118
-125
-123
-116
-94
-63
-58
-66
-43
3
38
68
103
148
195
229
245
253
241
197
137
70
7
-35
-61
-89
-109
-109
-109
-119
-126
-127
-124
-103
-73
-72
-96
-85
-33
-7
-32
-69
-89
-101
-116
-110
-91
-104
-128
-101
-98
-160
-119
43
174
319
406
99
-396
-501
-304
-240
-273
-239
-214
-228
-225
-209
-183
-143
-125
-124
-106
-77
-43
9
65
111
176
264
333
376
418
438
398
320
233
130
21
-43
-57
-70
-93
-93
-68
-55
-59
-54
-41
-33
-24
-21
-35
-27
25
95
186
291
373
477
648
791
915
1221
1596
1510
820
70
-274
-316
-323
-348
-360
-368
-379
-382
-386
-402
-425
-453
-489
-527
-566
-606
-647
-678
-680
-657
-607
-487
-323
-199
-98
45
147
121
64
55
31
-17
-26
-6
-6
-19
-15
5
11
-6
-12
1
6
7
15
12
0
-1
-10
-35
-35
-11
-20
-48
-14
78
130
109
70
52
46
32
33
51
40
25
55
42
11
140
311
420
720
980
581
-104
-249
-49
-37
-99
-69
-66
-94
-82
-63
-58
-56
-62
-55
-30
-23
-29
-1
45
76
117
186
236
254
281
315
300
221
132
68
-1
-79
-129
-140
-147
-167
-171
-153
-156
-189
-198
-170
-145
-135
-134
-142
-127
-79
-45
-50
-69
-88
-102
-109
-110
-106
-114
-118
-81
-71
-129
-96
33
113
295
583
445
-146
-443
-269
-138
-168
-159
-135
-138
-108
-73
-77
-79
-55
-31
-29
-22
15
51
68
105
165
216
272
330
346
333
317
269
193
115
31
-39
-67
-82
-100
-106
-105
-104
-93
-92
-108
-117
-107
-87
-51
-16
17
98
213
282
364
525
634
708
1004
1383
1318
759
174
-163
-309
-354
-353
-353
-364
-373
-379
-385
-405
-430
-443
-456
-489
-524
-547
-564
-565
-534
-484
-414
-306
-173
-54
37
102
126
111
81
54
30
0
-21
-21
-20
-46
-72
-60
-26
-17
-29
-30
-15
-5
-5
-13
-29
-39
-34
-27
-27
-27
-16
5
21
37
75
114
121
100
75
62
56
54
53
41
29
50
64
35
67
186
310
483
611
358
-134
-297
-122
-33
-68
-63
-49
-60
-56
-51
-60
-63
-62
-62
-52
-38
-33
-14
31
83
124
163
207
255
300
330
334
304
239
155
79
22
-26
-67
-92
-99
-102
-117
-134
-128
-113
-120
-121
-88
-75
-103
-95
-34
3
-6
-34
-79
-118
-128
-123
-109
-101
-114
-97
-70
-107
-84
77
207
371
660
578
-41
-430
-277
-142
-207
-199
-153
-179
-180
-147
-147
-143
-120
-113
-102
-75
-55
-30
14
69
129
194
269
349
401
398
351
275
172
69
2
-48
-113
-159
-149
-132
-147
-161
-163
-172
-162
-121
-96
-99
-107
-111
-77
38
188
289
370
525
711
832
999
1340
1572
1287
599
-1
-284
-365
-377
-376
-394
-424
-441
-444
-457
-490
-531
-554
-561
-592
-652
-693
-701
-720
-741
-690
-570
-446
-310
-146
-6
79
131
138
103
68
51
35
17
-5
-25
-29
-16
0
12
26
41
50
57
64
65
70
89
101
84
63
68
93
100
67
40
91
181
213
175
124
98
99
105
102
92
82
104
130
89
71
171
291
505
892
930
307
-258
-233
-71
-110
-135
-89
-88
-100
-80
-61
-69
-103
-113
-60
-14
-31
-34
8
31
54
123
181
209
256
287
262
241
215
122
20
-26
-73
-138
-161
-154
-169
-184
-166
-148
-155
-165
-152
-127
-118
-128
-125
-87
-39
-23
-56
-106
-122
-110
-121
-142
-135
-128
-128
-111
-126
-137
-34
99
201
369
372
-46
-444
-393
-201
-180
-196
-171
-159
-133
-114
-119
-92
-55
-56
-46
-17
-9
15
69
100
121
182
267
334
364
369
366
329
235
134
69
17
-43
-84
-89
-87
-99
-109
-94
-74
-74
-87
-93
-90
-74
-47
-25
13
108
213
284
400
561
643
714
949
1160
996
515
69
-176
-272
-294
-291
-299
-313
-313
-315
-341
-365
-374
-401
-448
-478
-487
-502
-525
-533
-512
-461
-374
-244
-93
19
82
136
175
162
113
79
62
41
20
17
25
35
44
38
23
30
49
36
9
12
26
20
11
10
7
7
6
-7
-11
12
26
12
16
64
107
105
75
55
50
37
18
18
16
-1
17
38
-8
-1
135
250
380
580
472
-42
-353
-223
-95
-131
-135
-106
-120
-132
-124
-120
-108
-95
-95
-100
-94
-75
-45
-17
10
59
133
200
244
288
336
347
308
248
179
95
10
-57
-103
-131
-152
-170
-172
-162
-149
-141
-147
-149
-121
-101
-113
-101
-43
9
27
24
-5
-50
-75
-70
-54
-52
-83
-101
-70
-82
-137
-41
147
226
398
649
399
-245
-453
-218
-142
-206
-160
-120
-139
-110
-76
-96
-103
-70
-52
-53
-34
10
56
87
110
158
244
320
358
395
420
371
258
144
56
-10
-66
-116
-152
-170
-172
-165
-154
-147
-137
-114
-94
-87
-79
-73
-74
-52
31
169
295
375
484
645
760
880
1193
1527
1403
757
77
-260
-345
-376
-392
-385
-387
-401
-412
-419
-433
-455
-477
-500
-540
-589
-625
-660
-706
-726
-693
-622
-520
-379
-214
-64
44
109
133
118
92
75
53
26
15
10
-7
-9
13
22
8
3
18
28
29
37
44
35
21
23
32
26
9
8
18
6
4
53
111
120
98
78
56
39
49
66
52
40
76
74
15
85
258
337
515
847
720
42
-342
-185
-64
-137
-155
-127
-142
-145
-127
-120
-106
-82
-64
-46
-23
-8
17
69
124
165
217
277
313
334
355
356
323
271
201
104
12
-36
-54
-75
-98
-102
-100
-116
-130
-117
-103
-114
-132
-141
-128
-99
-96
-117
-94
-35
-28
-77
-107
-109
-114
-113
-96
-95
-108
-84
-64
-110
-108
1
90
249
584
638
125
-331
-281
-134
-171
-188
-141
-141
-147
-124
-118
-116
-90
-67
-57
-46
-30
-11
20
66
120
173
221
254
273
285
276
235
172
93
9
-58
-98
-119
-129
-140
-149
-141
-128
-136
-145
-130
-130
-166
-168
-94
-16
24
72
171
345
551
670
735
879
963
744
337
1
-197
-277
-272
-270
-304
-327
-329
-345
-380
-401
-406
-426
-463
-483
-487
-498
-508
-489
-433
-348
-235
-110
5
102
184
229
225
190
148
109
77
53
35
23
15
11
10
16
23
28
31
29
23
25
28
23
26
38
44
41
40
47
57
50
28
26
53
64
57
78
124
156
155
123
80
61
61
56
45
33
26
39
27
-15
40
178
288
483
673
412
-159
-363
-183
-97
-144
-146
-133
-130
-118
-120
-121
-93
-73
-76
-62
-35
-22
1
48
90
129
193
268
324
358
369
368
351
281
172
85
16
-65
-128
-144
-138
-144
-159
-163
-158
-159
-161
-157
-151
-132
-109
-122
-147
-111
-37
-13
-45
-83
-102
-105
-112
-127
-126
-124
-137
-120
-110
-148
-81
117
265
416
541
246
-312
-457
-243
-187
-237
-186
-161
-192
-170
-134
-138
-140
-127
-111
-84
-54
-30
9
65
120
183
269
353
407
425
415
375
293
171
50
-38
-110
-175
-204
-198
-193
-200
-197
-177
-155
-135
-114
-102
-106
-100
-71
-65
-94
-79
1
58
59
46
16
-29
-30
8
17
-8
-20
7
15
-41
-26
128
256
407
672
624
72
-324
-220
-88
-132
-118
-67
-95
-104
-58
-37
-46
-48
-36
-11
2
-3
14
63
112
148
189
247
314
362
365
341
306
241
143
42
-36
-77
-87
-101
-121
-111
-97
-106
-100
-65
-29
32
112
197
378
630
783
939
1237
1299
813
183
-159
-311
-414
-431
-429
-475
-495
-471
-476
-513
-553
-590
-606
-615
-649
-681
-680
-665
-620
-503
-349
-206
-70
41
95
120
145
136
86
48
32
11
-8
-8
-10
-20
-15
-7
-18
-27
-16
-6
-11
-17
-4
17
17
7
21
39
25
11
27
40
26
10
5
-1
-8
-11
-15
-35
-61
-61
-35
-20
-27
-15
35
80
77
47
39
43
34
31
52
60
64
90
76
49
135
271
405
643
735
330
-178
-240
-70
-37
-57
-36
-41
-62
-63
-65
-71
-75
-75
-61
-39
-23
-9
17
57
105
157
212
276
338
370
367
347
316
261
180
92
24
-18
-54
-84
-95
-95
-99
-104
-92
-60
-7
75
172
279
461
695
848
986
1229
1275
814
165
-208
-323
-385
-422
-429
-441
-458
-473
-496
-520
-539
-571
-627
-683
-721
-760
-796
-794
-751
-664
-514
-333
-173
-25
111
179
171
133
92
54
25
9
8
8
7
18
24
12
5
10
13
15
12
2
1
13
13
-2
-15
-14
-3
2
-1
4
12
7
5
20
33
37
41
35
13
-3
3
18
7
-30
-33
29
88
78
33
17
22
19
22
30
22
39
66
27
42
215
358
483
759
778
220
-263
-181
3
-38
-78
-48
-58
-80
-80
-78
-56
-27
-31
-39
-19
-7
-17
1
61
121
166
214
255
276
290
299
284
242
183
110
38
-13
-54
-95
-127
-146
-162
-168
-157
-144
-143
-143
-137
-129
-126
-138
-157
-157
-140
-146
-175
-171
-110
-44
-28
-57
-88
-95
-97
-99
-80
-73
-84
-58
-53
-91
-5
163
241
446
750
536
-119
-378
-187
-123
-196
-169
-132
-153
-149
-136
-142
-126
-99
-96
-86
-54
-42
-36
23
100
134
175
267
344
376
388
356
275
194
114
15
-66
-100
-114
-128
-141
-151
-148
-132
-118
-109
-112
-112
-79
-34
-22
-1
77
179
306
505
683
796
1049
1433
1487
992
326
-116
-314
-392
-420
-430
-434
-439
-448
-457
-471
-495
-523
-555
-587
-620
-658
-684
-678
-655
-619
-532
-384
-222
-80
40
128
166
178
186
171
136
120
114
85
64
74
83
71
48
36
48
62
53
39
19
-12
-17
7
19
10
-9
-28
-23
0
15
8
-18
-40
-26
2
7
0
2
-2
-15
-9
25
48
42
55
111
141
102
66
75
69
40
46
62
54
68
78
37
64
199
308
416
520
329
-108
-282
-130
-36
-69
-73
-63
-77
-80
-77
-78
-76
-71
-60
-43
-27
-6
15
28
61
124
183
220
256
286
299
290
255
212
162
83
1
-54
-95
-121
-112
-105
-123
-128
-121
-121
-108
-85
-79
-74
-65
-66
-59
-30
13
96
228
389
599
796
857
919
1155
1241
821
197
-171
-287
-331
-355
-381
-412
-424
-436
-466
-494
-516
-546
-581
-611
-639
-670
-697
-703
-684
-643
-563
-432
-282
-137
4
124
182
171
145
131
104
73
71
78
54
24
25
43
50
41
25
22
29
20
0
2
8
-6
-2
26
16
-14
6
39
23
-7
-14
-8
7
16
-2
-28
-39
-38
-5
63
113
105
68
40
15
-14
-28
-39
-61
-59
-42
-56
-55
-28
-47
-20
136
260
386
627
569
15
-369
-237
-72
-100
-99
-67
-90
-91
-61
-62
-67
-58
-61
-57
-20
3
3
35
94
136
194
285
347
372
401
409
368
313
262
186
92
15
-37
-76
-98
-106
-115
-115
-91
-44
28
118
222
406
691
947
1175
1538
1817
1501
685
26
-218
-301
-380
-427
-460
-506
-541
-565
-606
-657
-697
-727
-759
-797
-826
-833
-820
-772
-666
-516
-351
-184
-38
64
118
125
104
88
81
58
27
22
35
36
32
33
28
29
39
37
33
42
39
30
50
60
30
11
16
0
-22
-28
-46
-63
-49
-39
-60
-74
-66
-53
-46
-51
-47
-25
-34
-71
-62
-17
-38
-108
-117
-58
-21
-26
6
88
134
116
88
73
53
36
34
37
40
44
38
37
41
7
-7
89
210
308
445
413
31
-304
-252
-101
-104
-124
-100
-103
-111
-99
-96
-95
-83
-77
-69
-47
-22
0
30
65
103
155
213
262
301
325
325
304
268
216
161
104
30
-38
-65
-77
-100
-98
-61
-52
-76
-72
-48
-45
-50
-40
-37
-37
-22
-14
-23
2
83
160
175
161
194
267
331
423
559
630
688
990
1393
1309
645
-3
-265
-326
-381
-420
-430
-433
-433
-434
-441
-449
-462
-476
-487
-506
-534
-557
-570
-577
-576
-558
-502
-400
-271
-138
-9
99
162
184
181
154
100
48
28
26
16
7
13
10
-11
-19
-1
16
13
10
17
15
-4
-9
7
12
0
-11
-15
-14
-12
-4
33
87
107
85
57
35
18
4
-9
-20
-26
-26
-24
-31
-32
-13
-33
-57
35
180
291
430
416
19
-370
-327
-128
-103
-122
-80
-66
-76
-65
-63
-72
-55
-25
-15
-10
3
13
39
93
135
172
247
328
370
406
431
401
339
267
166
61
-14
-70
-104
-113
-130
-144
-118
-82
-80
-86
-64
-55
-75
-70
-49
-65
-74
-18
55
88
89
68
35
13
6
-4
-17
-21
-27
-47
-68
-66
-41
