# session_0,session_1,session_2,session_3,session_4,session_5,session_6,session_7,session_8,session_9,session_10,session_11,session_12,session_13,session_14,session_15,session_16,session_17,session_18,session_19,session_20,session_21,session_22,session_23,session_24,session_25,session_26,session_27,session_28,session_29,session_30,session_31,session_32,session_33,session_34,session_35,session_36,session_37,session_38,session_39,session_40,session_41,session_42,session_43,session_44,session_45,session_46,session_47,session_48,session_49,session_50,session_51,session_52,session_53,session_54,session_55,session_56,session_57,session_58,session_59,session_60,session_61,session_62,session_63,session_64,session_65,session_66,session_67,session_68,session_69,session_70,session_71,session_72,session_73,session_74,session_75,session_76,session_77,session_78,session_79,session_80,session_81,session_82,session_83,session_84,session_85,session_86,session_87,session_88,session_89,session_90,session_91,session_92,session_93,session_94,session_95,session_96,session_97,session_98,session_99,session_100,session_101,session_102,session_103,session_104,session_105,session_106,session_107,session_108,session_109,session_110,session_111,session_112,session_113,session_114,session_115,session_116,session_117,session_118,session_119,session_120,session_121,session_122,session_123,session_124,session_125,session_126,session_127,session_128,session_129,session_130,session_131,session_132,session_133,session_134,session_135,session_136,session_137,session_138,session_139,session_140,session_141,session_142,session_143,session_144,session_145,session_146,session_147,session_148,session_149,session_150,session_151,session_152,session_153,session_154,session_155,session_156,session_157,session_158,session_159,session_160,session_161,session_162,session_163,session_164,session_165,session_166,session_167,session_168,session_169,session_170,session_171,session_172,session_173,session_174,session_175,session_176,session_177,session_178,session_179,session_180,session_181,session_182,session_183,session_184,session_185,session_186,session_187,session_188,session_189,session_190,session_191,session_192,session_193,session_194,session_195,session_196,session_197,session_198,session_199,session_200,session_201,session_202,session_203,session_204,session_205,session_206,session_207,session_208,session_209,session_210,session_211,session_212,session_213,session_214,session_215,session_216,session_217,session_218,session_219,session_220,session_221,session_222,session_223,session_224,session_225,session_226,session_227,session_228,session_229,session_230,session_231,session_232,session_233,session_234,session_235,session_236,session_237,session_238,session_239,session_240,session_241,session_242,session_243,session_244,session_245,session_246,session_247,session_248,session_249,session_250,session_251,session_252,session_253,session_254,session_255,session_256,session_257,session_258,session_259,session_260
64,66,58,60,56,59,58,51,56,62,69,69,69,57,57,72,63,60,63,63,62,66,62,58,65,62,62,59,60,69,69,67,68,57,60,56,58,52,65,67,63,69,57,53,61,55,56,64,66,67,67,62,81,89,81,65,58,61,62,63,62,65,67,67,64,64,60,58,61,63,0,66,61,72,78,82,82,76,74,57,56,56,54,53,55,54,55,56,60,55,57,58,56,55,54,55,57,57,57,55,53,54,57,55,56,59,57,57,60,58,57,59,55,54,53,52,57,56,56,57,56,55,56,56,55,55,58,56,56,71,77,69,68,64,74,74,66,65,68,69,70,61,64,67,71,63,67,69,68,63,63,63,65,65,60,67,67,0,67,67,66,60,62,71,58,59,61,66,74,76,72,69,0,56,56,54,54,55,57,51,54,53,53,56,53,57,56,56,57,58,61,59,78,72,69,70,68,0,67,76,61,64,73,66,62,69,66,70,76,73,64,70,67,79,75,77,58,68,66,60,69,65,65,64,66,66,69,64,66,64,64,65,67,62,78,67,64,69,67,71,70,65,68,63,64,67,72,61,71,65,71,75,74,71,72,85,77,68,65,72,58
59,64,66,58,60,55,59,58,51,56,62,67,69,69,60,57,73,63,60,63,63,62,66,62,58,65,62,62,60,69,69,69,68,68,59,58,55,55,53,65,67,63,69,57,53,61,54,56,64,66,67,67,62,89,89,81,64,58,60,57,63,63,65,67,67,63,63,60,58,61,0,0,66,61,72,78,82,76,76,57,57,55,56,54,53,55,54,55,56,60,55,57,58,56,55,54,55,57,57,59,54,53,54,57,54,56,59,57,57,60,60,57,59,55,55,52,52,57,56,56,57,55,55,57,56,55,55,58,56,71,77,77,69,68,64,74,74,66,65,68,69,71,61,64,68,71,63,67,69,68,63,64,63,65,65,60,67,67,0,66,66,66,57,62,71,58,58,61,66,74,76,69,0,0,56,55,54,54,54,57,51,53,53,53,56,53,58,56,56,57,58,59,59,78,72,69,0,0,0,67,76,61,54,73,69,62,69,66,73,76,73,64,70,67,80,74,77,58,68,66,60,69,65,65,64,66,66,69,64,66,64,64,66,67,62,78,67,64,69,68,71,70,64,67,63,64,67,71,61,71,59,70,75,74,71,72,85,77,68,68,72
59,65,66,58,60,53,59,58,51,57,61,66,69,69,61,57,73,63,60,63,63,62,66,62,59,65,62,62,59,60,69,69,68,68,61,56,55,53,54,65,66,63,69,57,53,62,54,56,65,66,67,68,63,81,88,81,63,58,60,57,63,63,65,67,66,63,63,62,58,61,70,0,66,61,72,78,84,81,76,73,57,54,56,54,52,55,53,55,56,60,55,57,58,56,55,54,55,57,57,60,54,53,54,57,54,56,58,57,57,61,60,58,59,55,55,52,52,57,56,56,57,55,56,58,56,55,55,58,56,56,71,77,69,68,64,74,74,66,65,69,70,71,61,64,68,71,63,67,69,68,63,66,63,65,64,62,67,67,65,66,66,66,57,62,71,58,58,62,66,74,77,71,69,0,56,55,54,54,53,57,52,54,53,53,56,55,58,56,56,57,58,61,59,78,72,69,68,0,0,67,76,62,53,73,70,62,69,66,73,76,73,64,71,66,81,74,77,58,68,66,60,69,65,65,64,65,67,69,64,66,64,64,66,67,62,78,67,64,68,68,71,70,64,67,65,64,67,66,61,71,59,69,75,74,67,72,83,77,67,68,72
59,65,68,59,60,53,59,58,51,57,58,65,69,69,62,57,73,63,60,63,63,62,66,62,59,65,62,62,59,60,69,70,68,68,61,56,55,53,60,66,66,63,69,60,53,63,54,56,68,66,67,68,65,81,87,79,61,59,60,57,63,63,66,67,65,63,63,62,58,61,70,0,66,61,72,78,85,81,76,72,57,54,56,54,52,55,53,55,57,59,56,57,58,59,55,55,56,57,57,60,54,54,54,57,55,56,56,57,57,62,60,58,56,55,55,52,52,57,57,56,56,55,55,58,56,54,54,58,56,0,71,76,69,68,65,74,74,66,65,69,70,70,61,64,68,71,63,67,69,71,63,66,63,65,64,63,67,67,63,65,65,66,57,62,71,58,58,62,66,74,77,71,69,0,56,53,54,53,53,57,52,54,53,53,56,55,59,56,56,57,58,61,59,78,72,69,68,0,0,67,76,62,53,73,71,62,69,65,74,76,73,64,71,66,81,73,77,58,67,66,60,69,65,65,65,65,68,69,65,64,63,63,66,67,62,78,67,64,68,68,71,70,64,67,65,64,68,64,61,71,59,68,75,72,67,72,83,75,68,73,72
59,65,68,59,57,53,57,58,51,57,57,65,69,69,62,57,73,61,60,63,63,62,65,62,60,65,62,62,59,60,69,70,68,68,61,56,55,53,60,66,66,63,69,61,53,63,54,59,68,66,67,68,68,81,86,79,60,61,60,57,63,63,66,68,65,62,62,63,58,60,70,70,66,61,72,78,86,81,76,66,57,54,56,54,53,55,53,56,57,58,56,57,58,59,55,55,56,56,57,60,54,55,55,57,54,56,56,56,57,62,60,58,55,56,55,53,53,57,57,56,56,55,55,59,56,54,54,58,56,0,71,76,68,67,67,74,74,66,65,69,70,70,62,64,68,71,63,67,69,71,65,66,63,63,64,64,67,67,63,65,64,66,57,62,71,58,58,62,66,74,77,71,69,0,56,53,55,53,53,56,52,54,54,53,55,55,59,56,56,56,58,61,67,78,72,69,68,0,0,67,75,62,53,73,71,64,69,65,75,77,73,64,71,66,81,72,68,58,67,66,60,69,65,65,65,64,68,69,66,63,63,63,66,67,62,78,68,68,68,68,71,70,64,67,65,65,68,63,61,71,59,64,75,72,66,72,80,74,68,73,71
59,65,68,60,56,53,57,58,51,60,57,65,0,68,62,53,73,61,60,63,63,62,64,62,61,65,62,62,59,60,69,70,69,68,63,56,55,53,60,66,66,63,69,61,53,63,54,61,68,66,67,68,68,81,86,79,60,62,60,57,63,63,66,68,60,61,62,63,58,60,70,70,66,61,74,79,86,81,75,62,57,54,56,55,53,55,53,56,58,58,56,57,58,59,55,55,56,56,57,60,54,56,57,57,54,56,56,55,57,62,60,58,55,56,56,53,55,57,57,56,56,55,56,59,56,55,54,58,56,0,71,75,68,67,68,74,74,66,65,69,70,70,63,64,67,68,63,67,69,71,65,66,62,62,64,64,67,67,62,65,64,66,57,62,71,58,59,63,66,74,71,71,70,0,56,53,55,53,53,55,52,54,54,53,55,55,60,56,56,56,58,59,68,78,72,69,68,0,0,67,75,62,53,73,71,67,69,66,75,77,73,64,71,66,81,72,68,58,67,66,60,68,65,64,65,63,68,69,66,63,63,63,66,66,64,78,69,68,68,66,71,70,64,66,66,66,68,63,61,71,62,64,75,72,66,72,78,73,67,73,71
64,64,68,59,56,53,57,55,51,60,57,65,0,68,63,53,71,60,60,63,63,62,66,62,61,65,62,62,59,60,69,70,70,68,64,56,55,53,60,66,66,63,71,62,54,65,54,62,68,66,67,68,69,81,85,79,60,62,60,60,62,63,66,68,60,61,62,63,58,60,70,70,65,61,74,79,85,82,75,59,57,55,56,55,53,56,53,56,58,57,57,57,58,59,55,55,56,56,57,60,54,56,57,56,54,57,54,55,57,63,60,58,55,56,56,53,57,57,57,56,56,55,56,59,57,55,54,58,56,0,72,74,68,67,69,73,73,66,65,69,71,68,63,65,67,65,65,67,69,71,65,66,62,62,64,64,67,67,62,65,64,66,57,64,71,58,60,63,66,74,71,71,70,0,56,53,57,53,54,55,51,53,54,53,56,55,60,60,56,55,58,59,68,78,72,69,68,0,0,67,74,62,53,71,71,67,68,66,75,77,73,64,70,66,81,72,68,59,66,66,60,67,65,63,65,63,68,70,66,63,62,63,66,65,68,77,69,68,68,65,69,70,65,65,66,66,68,63,64,71,67,64,75,72,66,72,74,71,67,73,71
65,64,68,59,53,53,57,55,52,60,57,65,0,68,63,53,68,60,60,63,63,62,63,62,61,65,62,62,59,60,69,70,71,68,64,56,62,54,60,66,63,63,71,62,55,65,52,62,68,65,67,68,70,81,85,78,59,62,59,60,60,63,66,68,60,61,61,63,60,60,70,67,66,63,78,79,85,82,75,59,56,55,56,55,53,56,54,56,58,57,57,57,58,59,56,56,56,55,57,57,54,56,57,56,54,58,54,54,58,64,60,58,55,56,56,53,57,57,57,56,56,55,56,59,57,54,55,58,56,0,72,75,68,67,69,74,69,66,65,69,72,65,63,65,67,60,66,68,69,71,65,63,62,62,63,64,67,67,62,65,64,66,57,66,71,58,60,64,67,74,70,72,70,0,56,53,57,53,54,55,52,54,54,53,55,55,60,60,55,55,58,59,70,78,71,71,68,0,0,67,71,62,54,68,71,67,68,66,75,77,73,64,69,66,81,70,68,62,66,66,62,66,64,63,66,63,68,70,66,63,62,63,65,64,71,76,70,68,68,65,69,71,65,65,66,66,68,63,65,71,70,64,75,73,66,74,74,70,67,72,0
65,63,66,59,53,53,57,55,52,60,58,66,0,68,63,47,67,60,60,63,63,62,63,62,61,65,62,62,59,60,69,70,71,68,64,57,62,54,61,66,63,63,71,62,56,65,52,62,68,65,66,64,70,81,85,77,59,62,59,60,60,62,67,68,60,61,61,63,60,60,70,66,66,63,78,81,83,81,75,56,56,55,56,55,53,56,54,57,58,57,57,56,58,59,55,56,56,55,57,57,54,56,57,56,55,58,53,54,58,64,60,58,55,56,56,53,57,57,57,55,56,54,56,59,57,55,55,58,56,0,72,75,68,67,69,74,68,66,65,69,72,65,63,65,67,59,67,68,70,71,65,62,62,62,62,64,67,67,62,65,64,66,57,66,71,58,61,64,67,74,70,72,70,62,56,53,57,53,55,54,52,55,54,54,55,55,60,60,55,55,58,59,70,78,71,71,68,0,0,67,68,62,62,67,71,68,68,66,73,77,73,64,69,66,81,67,68,75,66,66,63,66,64,63,67,63,68,70,66,63,62,63,63,63,76,76,70,68,68,65,69,72,68,65,66,66,68,63,65,71,72,64,75,73,66,78,74,70,66,72,0
65,63,60,59,53,53,59,55,53,62,58,66,0,68,63,47,67,60,60,63,63,62,61,62,61,65,58,62,59,61,69,70,71,68,64,58,62,56,62,66,63,65,71,63,56,63,52,62,68,65,66,62,70,81,85,71,57,62,59,60,60,62,67,68,60,61,61,63,60,61,70,65,63,63,78,82,83,80,75,56,56,55,56,55,53,56,54,57,59,56,57,53,58,58,56,56,56,55,57,57,54,56,57,55,55,58,53,54,58,64,61,59,56,56,56,53,57,57,57,55,55,54,56,59,57,55,55,58,56,0,72,75,68,67,69,74,59,66,65,69,72,65,63,65,67,59,67,68,70,71,65,62,63,60,62,64,67,67,62,66,64,68,57,66,71,58,61,64,67,72,70,72,70,56,56,53,57,53,55,53,52,54,55,54,55,55,60,60,55,55,58,59,70,78,72,71,68,0,0,67,65,62,62,66,71,68,68,66,73,77,73,64,69,66,81,65,68,75,65,63,63,66,64,63,68,63,68,70,65,64,62,64,63,63,77,74,70,68,68,65,69,72,72,65,67,66,68,63,65,71,74,71,72,75,67,79,74,69,65,72,0
65,63,58,59,53,53,60,55,53,62,58,67,0,68,63,47,67,60,60,63,63,64,61,61,61,65,58,62,59,61,69,70,71,68,61,59,62,56,64,66,63,65,71,65,57,62,52,62,67,65,66,62,70,81,85,71,57,62,59,60,60,62,66,68,60,61,61,63,60,61,70,66,63,63,78,82,83,80,75,56,56,57,56,55,53,56,54,56,58,56,58,53,58,57,56,55,56,55,56,57,54,56,57,55,55,59,53,55,58,64,60,59,56,55,56,53,57,57,57,55,55,54,56,58,58,55,55,58,56,0,72,74,68,67,69,74,59,66,65,69,72,65,62,67,67,59,67,70,70,71,65,62,65,60,61,64,67,67,65,66,65,68,57,66,71,58,61,65,67,72,70,72,70,55,56,53,57,55,55,53,53,54,54,54,55,58,60,60,55,55,60,59,70,78,72,71,68,0,0,67,63,62,66,66,71,68,68,66,71,75,71,67,69,66,81,65,68,75,65,63,63,66,64,63,68,64,69,70,63,65,62,64,63,63,79,62,70,68,68,65,69,72,73,65,67,66,64,63,65,71,74,74,68,76,68,79,76,68,65,71,0
65,63,56,59,53,54,61,55,53,62,58,69,71,68,63,47,66,60,64,63,63,64,61,59,61,65,58,62,59,65,69,66,71,68,60,59,62,56,64,66,63,65,70,65,57,59,52,62,67,65,66,62,70,82,84,71,57,62,59,58,60,62,66,69,61,61,62,63,61,61,70,66,63,64,78,82,83,80,75,56,56,58,56,55,53,56,54,57,58,55,58,53,58,54,56,55,56,55,56,57,54,56,57,55,56,59,53,55,58,64,60,59,56,54,56,53,57,57,57,55,55,54,55,58,58,54,55,58,56,0,77,74,68,67,69,74,59,66,65,69,71,65,62,67,67,59,68,70,70,71,65,62,67,60,60,64,67,67,65,66,66,69,57,66,71,58,61,65,68,72,70,72,70,55,56,53,57,56,56,53,53,55,54,55,55,58,60,58,55,57,60,59,70,78,71,71,68,0,0,67,58,62,71,65,72,68,68,66,71,74,71,67,69,67,81,65,68,75,65,61,64,66,60,63,68,64,69,70,63,65,62,64,63,62,79,62,70,70,68,65,69,72,73,65,68,63,64,63,65,71,76,75,68,76,71,79,79,67,65,71,0
64,63,56,59,54,54,61,55,54,62,59,69,72,68,62,47,66,61,64,63,63,64,61,58,61,63,58,62,59,68,69,66,71,62,60,59,63,56,64,65,62,65,69,65,57,57,55,62,66,65,67,62,70,82,84,71,57,61,60,58,60,63,66,69,66,62,62,63,61,61,70,66,62,64,78,82,83,77,75,56,56,58,55,55,54,56,54,57,59,55,58,53,58,54,55,55,56,55,56,57,54,56,57,55,56,59,53,55,58,63,60,59,56,54,56,53,57,57,56,55,55,54,55,57,58,54,55,58,56,0,77,74,68,67,69,74,59,66,65,69,71,66,62,67,67,59,68,70,70,71,65,62,67,60,59,64,68,67,66,66,66,70,57,66,71,58,61,66,71,72,70,71,70,55,56,54,57,56,56,52,53,54,54,55,55,58,60,58,55,58,60,59,70,78,71,71,68,0,0,67,58,65,71,65,73,68,68,67,71,74,71,67,69,75,81,65,72,75,65,60,64,66,53,64,68,64,69,70,63,65,64,64,63,62,79,62,70,70,68,65,69,72,73,66,69,63,64,63,65,71,76,76,65,76,71,85,80,67,65,71,0
64,63,56,59,56,55,61,55,54,62,60,69,72,68,62,47,66,61,64,63,64,64,61,58,61,62,58,60,60,68,69,65,67,61,60,59,63,56,64,65,63,66,68,65,57,57,55,62,66,65,67,62,70,82,83,71,57,61,60,58,60,63,66,69,67,62,63,63,60,62,70,66,62,64,78,82,82,76,75,56,56,58,55,55,54,56,55,56,59,54,58,53,58,54,55,55,56,55,56,57,54,56,57,55,56,59,53,55,58,62,59,59,56,54,56,53,57,57,56,55,55,54,55,56,58,55,56,58,56,0,77,74,68,67,69,74,59,66,65,69,71,67,62,67,67,59,68,70,70,71,59,62,67,60,59,64,68,0,66,66,66,69,57,66,70,58,61,66,71,74,70,70,70,53,56,54,57,56,56,51,53,54,54,55,55,58,58,57,55,58,60,59,71,75,70,71,68,0,67,67,58,68,71,65,73,68,68,68,71,74,71,67,69,78,81,65,73,72,65,60,64,66,53,64,67,64,69,68,63,65,64,64,63,62,79,62,70,70,68,67,69,72,73,66,69,63,64,63,65,71,76,76,65,76,72,85,80,67,65,71,0
64,63,56,59,56,56,61,55,54,62,61,69,72,66,62,47,66,62,64,63,64,64,61,58,61,62,58,60,60,68,69,65,67,61,60,59,63,54,65,65,63,67,64,65,58,55,57,62,66,65,67,62,71,82,81,71,57,61,60,58,61,63,66,69,67,64,63,63,60,62,70,66,61,64,78,82,82,76,75,57,56,58,55,55,55,56,55,56,59,54,58,53,57,54,55,55,56,55,56,57,54,56,57,55,56,59,55,55,58,60,57,59,56,54,55,53,57,57,56,55,55,55,55,56,58,54,56,58,56,0,77,72,68,67,69,74,60,66,65,69,71,67,62,67,68,59,68,70,70,71,59,62,67,60,59,64,67,0,67,67,66,68,58,66,70,58,61,66,71,76,71,69,70,53,56,54,57,56,56,51,53,54,54,55,55,58,58,56,55,58,61,59,77,75,69,71,68,0,67,67,58,68,71,65,73,68,68,68,71,74,71,67,69,79,81,65,73,71,64,60,64,66,53,64,67,64,69,68,63,65,65,63,63,62,78,63,70,70,68,69,69,68,71,66,69,63,66,63,69,71,76,76,65,76,72,85,80,67,65,71,253
64,63,56,60,56,56,61,54,54,62,62,69,72,60,57,47,66,62,64,63,64,64,61,58,61,62,58,60,60,68,69,65,67,58,60,58,63,51,65,66,63,68,62,65,60,55,57,62,66,65,67,62,75,82,81,68,57,60,62,58,61,63,66,69,67,64,62,63,60,62,70,66,61,64,78,82,82,76,75,57,56,58,55,53,55,56,55,56,59,54,58,53,57,54,54,55,56,55,56,57,54,56,57,55,56,59,56,55,59,60,57,59,56,54,53,53,57,57,56,56,55,55,54,56,57,55,56,58,56,0,77,72,68,67,71,74,62,66,66,69,70,67,61,67,68,61,68,70,70,66,59,62,67,62,59,64,67,0,68,67,66,65,59,66,70,58,61,66,71,76,73,69,70,55,56,52,57,56,57,51,53,54,54,55,55,57,58,56,56,58,61,59,78,75,69,71,68,0,67,68,58,68,71,65,73,68,68,69,72,74,71,67,69,79,81,65,73,68,65,60,64,66,53,64,66,64,69,68,64,65,65,63,63,62,78,63,70,70,68,70,71,68,70,66,69,63,70,63,71,71,76,76,65,75,72,85,79,67,65,71,55
64,63,56,60,57,57,61,52,55,62,64,69,72,60,57,63,65,62,64,63,64,64,61,58,61,62,58,65,60,68,69,65,67,57,60,58,63,51,65,66,63,68,61,65,61,55,57,62,66,66,67,62,76,88,81,66,57,61,62,58,62,63,67,69,67,64,62,63,60,62,70,66,60,64,78,82,82,76,75,57,56,57,54,53,55,56,55,56,59,54,58,53,57,54,54,55,56,55,56,57,54,56,57,55,56,59,56,56,59,59,57,59,56,54,53,53,57,56,56,56,56,55,54,55,57,55,56,56,56,0,77,70,67,67,71,75,64,66,67,69,70,67,62,67,69,63,68,70,70,63,59,62,67,64,59,64,67,0,68,67,66,65,60,66,69,58,61,66,71,76,73,69,70,55,56,54,56,56,57,51,54,54,54,55,55,57,58,56,56,58,61,59,78,72,69,71,68,0,67,68,59,68,71,65,73,68,68,70,73,74,69,67,68,79,81,65,73,68,65,60,67,65,53,64,66,65,69,67,66,65,65,63,64,62,78,66,64,70,68,71,71,68,70,66,69,63,72,63,71,71,72,75,66,75,72,85,79,67,65,71,0
64,63,57,60,57,58,60,52,55,62,69,69,72,57,57,64,63,62,64,63,64,64,61,58,62,62,58,60,60,68,69,65,67,57,60,57,63,51,65,67,63,69,57,61,61,55,57,62,66,68,67,62,81,88,81,65,57,60,62,59,62,64,67,69,67,64,62,58,61,62,0,66,61,67,78,82,82,76,75,57,56,57,54,53,55,55,55,56,59,54,58,56,56,54,54,55,56,56,56,57,54,56,57,55,56,59,56,56,59,58,57,59,56,54,53,52,57,56,56,56,56,55,54,55,57,55,58,56,56,0,77,70,67,66,73,74,64,65,67,69,70,67,62,67,70,63,68,70,68,63,59,62,67,64,60,64,67,0,68,67,66,65,61,66,63,58,61,66,71,76,73,69,70,55,56,54,56,56,57,51,53,54,54,56,54,56,56,56,57,58,61,59,78,72,69,71,68,0,67,68,59,68,71,65,71,68,68,70,73,74,64,68,68,79,79,68,73,68,65,60,67,65,58,64,66,65,69,65,66,64,65,63,65,62,78,67,64,68,68,72,71,65,69,64,68,65,72,62,71,71,72,75,69,74,72,85,77,68,65,71,0
