# ts,sessionnum,HR,BR,ST,QTc,Cadence,Shock,QOS,FF QOS,Afib,Active Calories,Stress,Power
0,0,64,12,10,435,107,34,95,89,1,0,25,130048
20000,1,63,12,90,444,104,12,95,91,6,0,26,125952
40000,2,59,23,70,431,110,4,95,88,6,0,24,98304
61000,3,59,16,60,444,0,0,95,92,1,0,20,96256
81000,4,56,15,70,422,0,0,95,92,1,0,20,107520
101000,5,54,12,70,355,0,0,95,92,1,0,16,88064
121000,6,59,13,60,422,92,52,95,97,1,0,15,120832
141000,7,55,12,50,415,0,0,95,91,6,0,15,112640
161000,8,53,12,70,386,96,8,95,91,6,0,11,101376
181000,9,62,15,70,438,96,28,95,90,1,0,11,124928
201000,10,59,15,60,454,104,42,95,88,6,0,14,115712
221000,11,68,16,80,458,108,14,95,87,6,0,15,129024
241000,12,69,18,70,458,103,44,95,87,6,0,21,108544
262000,13,68,15,60,430,85,30,95,92,6,0,29,129024
282000,14,62,14,80,438,197,22,95,87,6,0,22,86016
302000,15,53,16,50,454,0,0,95,90,1,0,10,98304
322000,16,67,14,60,438,0,0,95,91,1,0,11,120832
342000,17,61,14,70,424,76,8,95,85,1,0,15,119808
362000,18,60,17,80,419,105,42,95,87,6,0,13,130048
382000,19,63,16,60,435,80,8,95,88,6,0,12,121856
402000,20,63,17,80,415,101,10,95,80,6,0,14,116736
422000,21,63,16,30,435,75,16,95,89,6,0,21,116736
442000,22,62,16,40,425,0,0,95,92,6,0,10,106496
463000,23,61,14,60,420,26,10,95,91,6,0,9,110592
483000,24,61,17,80,405,98,94,95,86,6,0,23,118784
503000,25,65,13,30,425,97,22,95,80,6,0,23,106496
523000,26,59,13,60,417,96,36,95,89,6,0,13,115712
543000,27,62,12,80,416,99,24,95,87,6,0,6,122880
563000,28,59,15,80,426,79,40,95,77,6,0,6,116736
583000,29,61,15,70,509,112,22,95,71,6,0,8,138240
603000,30,69,15,0,438,98,16,95,70,1,0,8,120832
623000,31,69,15,50,453,0,0,95,93,1,0,25,100352
643000,32,68,17,60,438,0,0,95,91,1,0,31,109568
664000,33,68,16,70,411,59,252,95,90,6,0,17,103424
684000,34,60,14,60,416,0,0,95,90,1,0,15,106496
704000,35,57,12,60,412,89,104,95,91,1,0,17,106496
724000,36,62,15,80,417,111,36,95,79,1,0,14,111616
744000,37,53,14,30,410,0,0,95,89,1,0,14,128000
764000,38,63,14,80,413,108,22,95,86,1,0,6,131072
784000,39,66,15,80,441,107,32,95,87,6,0,16,118784
804000,40,63,15,60,432,21,78,95,92,1,0,28,103424
824000,41,65,15,80,421,0,0,95,91,1,0,23,122880
844000,42,69,15,80,408,73,32,95,91,6,0,26,114688
865000,43,62,15,50,422,0,0,95,87,1,0,18,114688
885000,44,56,13,70,401,93,10,95,89,1,0,17,109568
905000,45,61,12,50,409,0,0,95,92,1,0,11,97280
925000,46,54,13,60,357,0,0,95,92,1,0,9,110592
945000,47,62,17,50,436,72,62,95,85,1,0,15,137216
965000,48,66,17,40,422,107,24,95,89,6,0,17,126976
985000,49,66,16,80,455,88,4,95,88,6,0,17,114688
1005000,50,67,14,50,488,103,20,95,82,6,0,19,129024
1025000,51,62,14,70,444,106,18,95,80,6,0,21,130048
1045000,52,70,16,90,463,97,22,95,83,6,0,20,114688
1066000,53,81,21,80,489,103,12,95,78,6,0,18,131072
1086000,54,85,17,100,459,102,10,95,85,6,0,32,123904
1106000,55,71,15,20,400,100,26,95,89,6,0,14,114688
1126000,56,57,13,80,385,0,0,95,87,6,0,9,71680
1146000,57,61,14,70,412,0,0,95,93,1,0,18,63488
1166000,58,60,13,70,404,0,0,95,92,1,0,24,97280
1186000,59,58,14,60,409,98,40,95,95,1,0,18,103424
1206000,60,62,13,70,421,103,40,95,88,1,0,19,117760
1226000,61,63,13,80,442,0,0,95,92,1,0,26,115712
1246000,62,66,14,70,438,0,0,95,90,1,0,27,98304
1267000,63,68,11,60,443,0,0,95,92,6,0,29,101376
1287000,64,65,10,50,418,108,14,95,93,6,0,24,133120
1307000,65,62,13,50,431,104,14,95,88,6,0,28,129024
1327000,66,62,13,80,417,0,0,95,90,1,0,24,110592
1347000,67,63,12,80,422,0,0,95,90,1,0,17,114688
1367000,68,60,14,80,419,99,26,95,94,1,0,16,98304
1387000,69,61,15,110,421,35,2,95,85,1,0,17,98304
1407000,70,70,12,30,412,134,48,95,72,1,0,17,97280
1427000,71,66,13,70,433,0,0,95,85,1,0,13,110592
1447000,72,63,12,70,405,0,0,95,84,1,0,13,99328
1468000,73,63,16,50,452,77,2,95,90,6,0,14,132096
1488000,74,78,16,80,456,105,36,95,91,6,0,25,123904
1508000,75,82,17,60,456,138,42,95,90,6,0,45,147456
1528000,76,83,18,60,461,107,22,95,87,6,0,45,143360
1548000,77,80,17,70,453,83,6,95,72,6,0,46,129024
1568000,78,75,17,50,427,0,0,95,89,6,0,46,100352
1588000,79,57,15,90,375,0,0,95,75,6,0,21,111616
1608000,80,56,14,40,390,30,180,95,90,6,0,14,117760
1628000,81,56,13,70,397,0,0,95,92,1,0,15,126976
1648000,82,56,13,60,386,12,238,95,91,1,0,16,155648
1669000,83,54,15,40,405,31,24,95,91,1,0,15,167936
1689000,84,53,14,70,413,0,0,95,92,1,0,15,119808
1709000,85,56,13,70,408,0,0,95,91,1,0,17,100352
1729000,86,54,13,60,420,0,0,95,92,1,0,17,76800
1749000,87,56,15,60,417,0,0,95,93,1,0,18,120832
1769000,88,58,16,50,426,0,0,95,92,1,0,18,107520
1789000,89,56,13,50,424,0,0,95,93,1,0,19,122880
1809000,90,57,12,60,429,0,0,95,92,1,0,20,105472
1829000,91,56,12,50,426,0,0,95,92,1,0,16,145408
1849000,92,58,13,60,428,28,32,95,92,1,0,22,126976
1870000,93,56,15,70,431,81,64,95,90,1,0,15,149504
1890000,94,55,16,50,420,0,0,95,92,1,0,14,116736
1910000,95,55,16,50,429,0,0,95,92,1,0,17,133120
1930000,96,56,14,60,458,0,0,95,92,1,0,20,116736
1950000,97,55,14,70,437,110,2,95,91,1,0,21,130048
1970000,98,57,14,60,449,0,0,95,92,1,0,21,117760
1990000,99,57,13,60,428,0,0,95,92,1,0,19,121856
2010000,100,54,13,60,409,0,0,95,92,1,0,18,114688
2030000,101,56,13,60,439,0,0,95,92,1,0,16,124928
2050000,102,57,13,50,421,0,0,95,92,1,0,21,109568
2071000,103,55,14,50,425,0,0,95,91,1,0,20,86016
2091000,104,55,15,50,432,0,0,95,91,1,0,18,93184
2111000,105,58,18,50,427,0,0,95,90,1,0,16,102400
2131000,106,56,15,50,431,0,0,95,92,1,0,18,105472
2151000,107,55,13,40,431,0,0,95,91,1,0,16,113664
2171000,108,58,14,50,458,0,0,95,92,1,0,18,123904
2191000,109,62,13,50,447,0,0,95,93,1,0,29,115712
2211000,110,60,13,50,425,0,0,95,92,1,0,23,95232
2231000,111,59,16,40,437,0,0,95,81,1,0,23,90112
2251000,112,56,14,50,404,0,0,95,92,6,0,14,93184
2272000,113,55,14,50,399,0,0,95,91,6,0,15,97280
2292000,114,55,13,60,393,0,0,95,91,1,0,17,107520
2312000,115,53,13,60,395,0,0,95,91,1,0,13,117760
2332000,116,57,15,40,437,0,0,95,86,1,0,17,124928
2352000,117,57,14,40,439,0,0,95,92,1,0,22,115712
2372000,118,56,15,70,437,69,2,95,91,1,0,21,144384
2392000,119,56,14,60,428,63,114,95,92,1,0,21,162816
2412000,120,56,15,40,438,26,140,95,92,1,0,19,161792
2432000,121,55,14,40,412,0,0,95,92,1,0,17,121856
2452000,122,55,16,50,442,0,0,95,92,1,0,17,130048
2473000,123,57,16,60,432,31,98,95,92,1,0,17,143360
2493000,124,57,17,50,439,76,50,95,84,1,0,12,165888
2513000,125,55,17,40,414,0,0,95,91,1,0,11,143360
2533000,126,55,18,70,426,33,62,95,89,1,0,15,154624
2553000,127,58,16,20,406,0,0,95,80,6,0,11,119808
2573000,128,56,16,0,477,103,12,85,57,6,0,11,119808
2593000,129,0,19,0,482,104,32,50,64,1,0,0,132096
2613000,130,72,20,40,451,103,28,95,75,0,0,4,131072
2633000,131,74,16,60,463,103,22,95,86,0,0,41,119808
2653000,132,68,16,150,435,100,30,95,88,6,0,36,120832
2674000,133,67,17,60,488,0,0,95,91,6,0,31,117760
2694000,134,69,18,60,511,0,0,95,90,6,0,28,114688
2714000,135,74,20,80,407,74,6,95,90,6,0,25,112640
2734000,136,65,17,70,354,0,0,95,88,6,0,18,68608
2754000,137,66,15,80,425,0,0,95,89,6,0,25,90112
2774000,138,65,13,70,430,0,0,95,91,1,0,28,73728
2794000,139,69,12,60,462,0,0,95,92,6,0,34,73728
2814000,140,70,14,60,444,0,0,95,93,6,0,41,79872
2834000,141,67,13,60,429,0,0,95,92,6,0,31,84992
2854000,142,62,12,60,430,0,0,95,93,1,0,25,84992
2875000,143,66,12,60,439,0,0,95,91,1,0,38,94208
2895000,144,67,13,60,426,0,0,95,92,6,0,37,78848
2915000,145,63,13,70,427,0,0,95,93,1,0,27,82944
2935000,146,67,15,60,449,0,0,95,93,1,0,21,112640
2955000,147,69,14,70,459,0,0,95,86,6,0,34,81920
2975000,148,69,13,60,465,0,0,95,88,6,0,19,107520
2995000,149,71,11,60,450,0,0,95,92,6,0,21,112640
3015000,150,63,11,50,422,0,0,95,93,6,0,17,67584
3035000,151,62,12,60,424,0,0,95,92,1,0,26,70656
3055000,152,64,14,60,437,0,0,95,91,1,0,31,108544
3076000,153,62,10,50,411,0,0,95,87,1,0,7,102400
3096000,154,61,10,60,417,0,0,95,93,6,0,6,97280
3116000,155,64,13,60,448,0,0,95,92,6,0,24,69632
3136000,156,67,15,60,445,0,0,95,85,6,0,25,70656
3156000,157,67,13,60,371,0,0,85,91,6,0,25,78848
3176000,158,65,13,60,427,0,0,95,89,6,0,34,69632
3196000,159,66,13,60,445,0,0,95,89,1,0,43,86016
3216000,160,66,14,70,437,0,0,95,87,1,0,40,93184
3236000,161,66,11,60,429,0,0,95,91,1,0,26,103424
3256000,162,57,11,60,391,0,0,95,86,4,0,10,109568
3277000,163,66,13,60,408,100,10,95,92,6,0,16,113664
3297000,164,71,12,60,393,0,0,95,93,6,0,22,94208
3317000,165,58,14,70,431,0,0,95,78,6,0,14,112640
3337000,166,61,13,70,362,0,0,95,92,6,0,11,115712
3357000,167,64,13,70,457,0,0,95,89,6,0,29,99328
3377000,168,67,14,50,451,113,20,95,89,1,0,30,130048
3397000,169,74,11,90,445,111,18,95,80,6,0,30,130048
3417000,170,71,12,80,436,113,30,95,87,6,0,30,160768
3437000,171,71,13,60,460,110,40,95,78,6,0,30,133120
3457000,172,70,11,100,511,0,0,95,78,6,0,37,126976
3478000,173,54,11,70,403,0,0,95,87,6,0,17,93184
3498000,174,56,14,60,421,0,0,95,90,6,0,12,120832
3518000,175,53,14,40,402,0,0,95,90,1,0,12,142336
3538000,176,56,13,60,395,0,0,95,91,1,0,13,147456
3558000,177,54,12,60,381,0,0,95,91,1,0,13,123904
3578000,178,55,12,50,393,0,0,95,92,1,0,12,126976
3598000,179,53,12,70,395,0,0,95,87,1,0,14,87040
3618000,180,52,14,60,391,0,0,95,91,1,0,15,72704
3638000,181,54,12,60,390,0,0,95,92,1,0,15,62464
3658000,182,54,15,60,400,0,0,95,92,1,0,16,56320
3679000,183,54,13,50,398,0,0,95,92,1,0,15,86016
3699000,184,55,14,60,405,0,0,95,92,1,0,14,103424
3719000,185,55,16,40,404,0,0,95,92,1,0,15,129024
3739000,186,58,15,50,417,0,0,95,92,1,0,17,149504
3759000,187,56,14,40,389,0,0,95,91,1,0,18,143360
3779000,188,56,13,50,394,0,0,95,92,1,0,17,139264
3799000,189,57,12,40,401,25,0,95,90,1,0,19,135168
3819000,190,59,13,30,422,0,0,95,90,6,0,13,121856
3839000,191,59,13,20,439,0,0,95,71,6,0,13,125952
3859000,192,70,15,100,445,91,44,95,90,1,0,9,136192
3880000,193,78,15,30,505,83,46,95,83,6,0,39,119808
3900000,194,71,15,80,456,90,46,95,82,6,0,37,113664
3920000,195,71,15,10,454,94,38,95,88,1,0,37,125952
3940000,196,68,12,0,408,98,34,85,58,6,0,37,138240
3960000,197,0,10,0,457,83,68,50,54,6,0,0,114688
3980000,198,66,12,60,455,123,58,82,82,0,0,33,179200
4000000,199,67,12,80,412,185,2,95,95,0,0,26,111616
4020000,200,64,12,60,396,0,0,95,87,0,0,21,137216
4040000,201,62,12,70,435,33,78,95,83,1,0,16,153600
4060000,202,65,16,60,442,102,42,95,92,6,0,9,108544
4081000,203,66,16,70,417,50,110,95,90,6,0,21,143360
4101000,204,71,16,60,445,92,58,95,89,6,0,24,114688
4121000,205,68,19,40,419,19,6,95,91,6,0,18,98304
4141000,206,68,16,50,426,94,34,95,94,6,0,18,122880
4161000,207,66,15,60,417,148,4,95,89,1,0,31,130048
4181000,208,73,15,70,433,90,38,95,93,1,0,42,142336
4201000,209,75,14,70,436,84,46,95,93,1,0,59,112640
4221000,210,72,14,80,419,84,24,95,86,1,0,59,117760
4241000,211,65,15,60,451,66,12,95,90,1,0,33,101376
4261000,212,69,16,60,426,89,18,95,93,1,0,32,104448
4282000,213,67,17,50,449,101,46,95,88,1,0,31,140288
4302000,214,81,16,50,444,97,42,95,96,6,0,35,120832
4322000,215,69,15,80,408,48,96,95,90,6,0,49,110592
4342000,216,70,14,60,403,161,6,95,92,1,0,4,163840
4362000,217,68,15,80,409,97,46,95,91,6,0,14,119808
4382000,218,66,17,60,413,98,72,95,92,6,0,25,102400
4402000,219,63,16,50,392,0,0,95,89,1,0,25,103424
4422000,220,63,17,50,412,0,0,95,91,6,0,13,107520
4442000,221,66,19,50,397,0,0,95,87,6,0,15,92160
4462000,222,64,16,60,390,0,0,95,92,6,0,15,107520
4483000,223,64,13,60,403,0,0,95,88,1,0,28,95232
4503000,224,66,12,40,411,0,0,95,93,1,0,36,97280
4523000,225,64,13,50,406,0,0,95,93,1,0,39,108544
4543000,226,68,14,50,419,0,0,95,93,1,0,50,97280
4563000,227,69,13,60,416,0,0,95,89,1,0,41,102400
4583000,228,65,12,60,410,0,0,95,92,1,0,37,106496
4603000,229,64,12,50,398,0,0,95,92,1,0,35,106496
4623000,230,64,11,50,405,0,0,95,93,1,0,40,80896
4643000,231,63,12,60,409,0,0,95,93,1,0,36,103424
4663000,232,65,12,50,405,0,0,95,93,1,0,38,95232
4684000,233,63,12,60,406,0,0,95,93,1,0,42,88064
4704000,234,77,13,50,444,0,0,95,88,1,0,39,131072
4724000,235,70,12,60,409,105,26,95,95,6,0,27,143360
4744000,236,69,15,60,413,38,144,95,92,6,0,21,123904
4764000,237,68,16,60,417,0,0,95,92,6,0,26,106496
4784000,238,68,15,70,407,0,0,95,91,6,0,31,121856
4804000,239,67,17,70,423,0,0,95,93,6,0,24,101376
4824000,240,70,15,60,421,0,0,95,93,1,0,34,100352
4844000,241,70,15,60,408,0,0,95,92,6,0,30,104448
4864000,242,68,15,70,407,0,0,95,89,6,0,28,117760
4885000,243,66,13,60,390,0,0,95,92,1,0,32,101376
4905000,244,66,13,70,400,0,0,95,92,1,0,31,92160
4925000,245,64,13,70,403,0,0,95,89,1,0,34,106496
4945000,246,68,13,70,407,0,0,95,93,1,0,29,115712
4965000,247,63,12,60,400,0,0,95,93,1,0,27,113664
4985000,248,65,13,90,412,0,0,95,92,1,0,31,121856
5005000,249,71,17,80,416,0,0,95,91,6,0,31,108544
5025000,250,72,16,70,412,0,0,95,93,6,0,17,124928
5045000,251,72,14,70,420,0,0,95,93,6,0,32,146432
5065000,252,73,15,70,412,0,0,95,93,1,0,31,142336
5086000,253,74,15,70,417,62,10,95,93,1,0,38,145408
5106000,254,71,15,80,409,102,20,95,92,1,0,31,148480
5126000,255,79,16,90,438,0,0,95,91,6,0,20,144384
5146000,256,79,15,90,408,0,0,95,94,6,0,34,145408
5166000,257,68,14,80,386,0,0,95,93,6,0,39,94208
5186000,258,65,17,70,383,0,0,95,92,1,0,29,128000
5206000,259,71,17,80,410,179,24,95,89,1,0,28,122880
5226000,260,71,15,70,382,96,28,95,91,1,0,27,108544
