# ts,sessionnum,Breath Rate,Heart Rate,ST Change,Cadence,Body Power,Body Shock,Altitude,UGE,HRV,PEP,LVET,QOS,Device QTc,Device BR,Device HR,Device ST,Device Cadence,Device Shock,FF QOS,Device Afib,Device Calories,Device Stress,Device Power,ACCY values
0,0,4,64,25,0,0,0,6789,0,24,44,0,95,435,12,64,10,107,34,89,1,0,25,130048,-936
20000,1,3,63,51,0,0,0,6233,0,44,45,0,95,444,12,63,90,104,12,91,6,0,26,125952,-933
40000,2,8,57,35,0,0,0,14558,0,26,44,0,95,431,23,59,70,110,4,88,6,0,24,98304,-889
61000,3,3,60,38,0,0,0,14387,0,38,43,0,95,444,16,59,60,0,0,92,1,0,20,96256,-893
81000,4,9,54,41,0,0,0,15046,0,34,44,0,95,422,15,56,70,0,0,92,1,0,20,107520,-874
101000,5,4,56,37,0,0,0,14563,0,38,45,0,95,355,12,54,70,0,0,92,1,0,16,88064,-866
121000,6,12,59,32,0,0,0,10446,0,39,42,0,95,422,13,59,60,92,52,97,1,0,15,120832,-915
141000,7,3,54,37,0,0,0,12745,0,57,43,0,95,415,12,55,50,0,0,91,6,0,15,112640,-883
161000,8,10,55,21,0,0,0,13431,0,57,45,0,95,386,12,53,70,96,8,91,6,0,11,101376,-890
181000,9,3,59,44,0,0,0,9367,0,30,44,0,95,438,15,62,70,96,28,90,1,0,11,124928,-929
201000,10,3,64,37,0,0,0,8681,0,47,43,0,95,454,15,59,60,104,42,88,6,0,14,115712,-929
221000,11,4,69,39,0,0,0,6488,0,58,45,0,95,458,16,68,80,108,14,87,6,0,15,129024,-939
241000,12,10,70,62,0,0,0,10203,0,40,47,0,95,458,18,69,70,103,44,87,6,0,21,108544,-915
262000,13,4,63,38,0,0,0,9369,0,17,45,0,95,430,15,68,60,85,30,92,6,0,29,129024,-919
282000,14,4,61,40,0,0,0,13940,0,32,43,0,95,438,14,62,80,197,22,87,6,0,22,86016,-732
302000,15,4,64,53,0,0,0,14123,0,48,43,0,95,454,16,53,50,0,0,90,1,0,10,98304,-457
322000,16,3,64,31,0,0,0,12258,0,61,45,0,95,438,14,67,60,0,0,91,1,0,11,120832,-931
342000,17,4,60,39,0,0,0,10295,0,44,45,0,95,424,14,61,70,76,8,85,1,0,15,119808,-914
362000,18,7,63,41,0,0,0,8396,0,57,47,0,95,419,17,60,80,105,42,87,6,0,13,130048,-937
382000,19,3,62,46,0,0,0,9626,0,47,46,0,95,435,16,63,60,80,8,88,6,0,12,121856,-930
402000,20,3,62,57,0,0,0,10165,0,43,43,0,95,415,17,63,80,101,10,80,6,0,14,116736,-942
422000,21,6,64,28,0,0,0,10032,0,46,44,0,95,435,16,63,30,75,16,89,6,0,21,116736,-930
442000,22,3,61,34,0,0,0,13647,0,65,43,0,95,425,16,62,40,0,0,92,6,0,10,106496,-926
463000,23,3,59,38,0,0,0,10864,0,30,46,0,95,420,14,61,60,26,10,91,6,0,9,110592,-918
483000,24,0,0,0,0,0,0,11791,0,30,0,0,95,405,17,61,80,98,94,86,6,0,23,118784,-915
503000,25,3,60,15,0,0,0,8269,0,30,46,0,95,425,13,65,30,97,22,80,6,0,23,106496,-940
523000,26,4,58,23,0,0,0,11619,0,50,44,0,95,417,13,59,60,96,36,89,6,0,13,115712,-921
543000,27,4,59,53,0,0,0,9290,0,62,44,0,95,416,12,62,80,99,24,87,6,0,6,122880,-920
563000,28,10,60,2,0,0,0,9283,0,62,45,0,95,426,15,59,80,79,40,77,6,0,6,116736,-942
583000,29,6,68,-34,0,0,0,6145,0,66,46,0,95,509,15,61,70,112,22,71,6,0,8,138240,-937
603000,30,3,68,-10,0,0,0,9283,0,66,45,0,95,438,15,69,0,98,16,70,1,0,8,120832,-935
623000,31,10,66,35,0,0,0,12557,0,32,46,0,95,453,15,69,50,0,0,93,1,0,25,100352,-872
643000,32,3,72,20,0,0,0,12475,0,26,43,0,95,438,17,68,60,0,0,91,1,0,31,109568,-875
664000,33,9,61,52,0,0,0,14562,0,42,44,0,95,411,16,68,70,59,252,90,6,0,17,103424,-875
684000,34,7,60,22,0,0,0,13417,0,46,43,0,95,416,14,60,60,0,0,90,1,0,15,106496,-878
704000,35,3,56,31,0,0,0,12042,0,39,45,0,95,412,12,57,60,89,104,91,1,0,17,106496,-890
724000,36,4,62,4,0,0,0,11242,0,47,42,0,95,417,15,62,80,111,36,79,1,0,14,111616,-892
744000,37,4,53,13,0,0,0,11139,0,60,44,0,95,410,14,53,30,0,0,89,1,0,14,128000,-882
764000,38,3,65,25,0,0,0,6312,0,58,44,0,95,413,14,63,80,108,22,86,1,0,6,131072,-928
784000,39,7,66,24,0,0,0,7487,0,49,44,0,95,441,15,66,80,107,32,87,6,0,16,118784,-941
804000,40,11,62,52,0,0,0,14722,0,43,46,0,95,432,15,63,60,21,78,92,1,0,28,103424,-888
824000,41,3,68,50,0,0,0,12704,0,31,43,0,95,421,15,65,80,0,0,91,1,0,23,122880,-897
844000,42,3,61,23,0,0,0,12394,0,34,42,0,95,408,15,69,80,73,32,91,6,0,26,114688,-905
865000,43,3,61,38,0,0,0,12304,0,42,46,0,95,422,15,62,50,0,0,87,1,0,18,114688,-908
885000,44,4,59,38,0,0,0,12414,0,39,45,0,95,401,13,56,70,93,10,89,1,0,17,109568,-888
905000,45,4,56,28,0,0,0,14567,0,58,44,0,95,409,12,61,50,0,0,92,1,0,11,97280,-891
925000,46,4,54,27,0,0,0,15118,0,60,42,0,95,357,13,54,60,0,0,92,1,0,9,110592,-904
945000,47,3,63,18,0,0,0,8687,0,42,44,0,95,436,17,62,50,72,62,85,1,0,15,137216,-895
965000,48,9,67,54,0,0,0,8318,0,46,45,0,95,422,17,66,40,107,24,89,6,0,17,126976,-921
985000,49,3,67,7,0,0,0,10191,0,40,44,0,95,455,16,66,80,88,4,88,6,0,17,114688,-842
1005000,50,3,66,14,0,0,0,6788,0,40,46,0,95,488,14,67,50,103,20,82,6,0,19,129024,-925
1025000,51,3,65,36,0,0,0,6699,0,35,42,0,95,444,14,62,70,106,18,80,6,0,21,130048,-941
1045000,52,3,77,45,0,0,0,7326,0,39,44,0,95,463,16,70,90,97,22,83,6,0,20,114688,-959
1066000,53,8,89,44,0,0,0,6805,0,35,47,0,95,489,21,81,80,103,12,78,6,0,18,131072,-931
1086000,54,12,84,55,0,0,0,7329,0,43,45,0,95,459,17,85,100,102,10,85,6,0,32,123904,-927
1106000,55,0,0,0,0,0,0,8498,0,55,0,0,95,400,15,71,20,100,26,89,6,0,14,114688,-928
1126000,56,8,57,50,0,0,0,17710,0,63,45,0,95,385,13,57,80,0,0,87,6,0,9,71680,-905
1146000,57,17,61,48,0,0,0,17004,0,26,42,0,95,412,14,61,70,0,0,93,1,0,18,63488,-896
1166000,58,7,58,43,0,0,0,14831,0,25,45,0,95,404,13,60,70,0,0,92,1,0,24,97280,-933
1186000,59,3,60,69,0,0,0,11245,0,37,45,0,95,409,14,58,60,98,40,95,1,0,18,103424,-850
1206000,60,3,61,65,0,0,0,7700,0,39,46,0,95,421,13,62,70,103,40,88,1,0,19,117760,-928
1226000,61,3,63,49,0,0,0,12147,0,27,44,0,95,442,13,63,80,0,0,92,1,0,26,115712,-965
1246000,62,3,66,41,0,0,0,15283,0,20,45,0,95,438,14,66,70,0,0,90,1,0,27,98304,-970
1267000,63,3,68,39,0,0,0,13794,0,24,42,0,95,443,11,68,60,0,0,92,6,0,29,101376,-922
1287000,64,3,63,46,0,0,0,7707,0,32,43,0,95,418,10,65,50,108,14,93,6,0,24,133120,-938
1307000,65,3,63,43,0,0,0,7991,0,27,44,0,95,431,13,62,50,104,14,88,6,0,28,129024,-933
1327000,66,7,62,64,0,0,0,12309,0,29,47,0,95,417,13,62,80,0,0,90,1,0,24,110592,-930
1347000,67,3,60,46,0,0,0,10674,0,39,44,0,95,422,12,63,80,0,0,90,1,0,17,114688,-915
1367000,68,4,61,54,0,0,0,14485,0,42,45,0,95,419,14,60,80,99,26,94,1,0,16,98304,-766
1387000,69,3,61,52,0,0,0,12898,0,40,45,0,95,421,15,61,110,35,2,85,1,0,17,98304,-836
1407000,70,4,59,0,0,0,0,15966,0,40,43,0,95,412,12,70,30,134,48,72,1,0,17,97280,-690
1427000,71,4,62,32,0,0,0,14175,0,51,43,0,95,433,13,66,70,0,0,85,1,0,13,110592,-804
1447000,72,9,60,37,0,0,0,14320,0,50,42,0,95,405,12,63,70,0,0,84,1,0,13,99328,-897
1468000,73,4,68,20,0,0,0,10149,0,51,45,0,95,452,16,63,50,77,2,90,6,0,14,132096,-853
1488000,74,3,77,67,0,0,0,8624,0,35,43,0,95,456,16,78,80,105,36,91,6,0,25,123904,-942
1508000,75,3,81,80,0,0,0,6265,0,17,46,0,95,456,17,82,60,138,42,90,6,0,45,147456,-950
1528000,76,3,82,62,0,0,0,7169,0,17,49,0,95,461,18,83,60,107,22,87,6,0,45,143360,-948
1548000,77,3,75,37,0,0,0,9771,0,17,46,0,95,453,17,80,70,83,6,72,6,0,46,129024,-927
1568000,78,6,69,51,0,0,0,15437,0,17,47,0,95,427,17,75,50,0,0,89,6,0,46,100352,-796
1588000,79,7,56,25,0,0,0,10856,0,35,46,0,95,375,15,57,90,0,0,75,6,0,21,111616,-760
1608000,80,11,56,14,0,0,0,11512,0,44,44,0,95,390,14,56,40,30,180,90,6,0,14,117760,-713
1628000,81,4,56,29,0,0,0,10343,0,41,44,0,95,397,13,56,70,0,0,92,1,0,15,126976,-757
1648000,82,7,54,28,0,0,0,8065,0,39,43,0,95,386,13,56,60,12,238,91,1,0,16,155648,-702
1669000,83,3,55,-12,0,0,0,6787,0,44,46,0,95,405,15,54,40,31,24,91,1,0,15,167936,-696
1689000,84,3,55,14,0,0,0,9992,0,40,43,0,95,413,14,53,70,0,0,92,1,0,15,119808,-746
1709000,85,7,55,21,0,0,0,14155,0,40,44,0,95,408,13,56,70,0,0,91,1,0,17,100352,-707
1729000,86,11,55,11,0,0,0,18496,0,35,47,0,95,420,13,54,60,0,0,92,1,0,17,76800,-703
1749000,87,4,56,19,0,0,0,10782,0,31,45,0,95,417,15,56,60,0,0,93,1,0,18,120832,-667
1769000,88,3,59,23,0,0,0,15109,0,37,47,0,95,426,16,58,50,0,0,92,1,0,18,107520,-759
1789000,89,3,54,26,0,0,0,16662,0,33,43,0,95,424,13,56,50,0,0,93,1,0,19,122880,-725
1809000,90,4,57,24,0,0,0,16244,0,32,45,0,95,429,12,57,60,0,0,92,1,0,20,105472,-678
1829000,91,3,56,22,0,0,0,7782,0,36,44,0,95,426,12,56,50,0,0,92,1,0,16,145408,-696
1849000,92,3,57,8,0,0,0,9536,0,32,40,0,95,428,13,58,60,28,32,92,1,0,22,126976,-713
1870000,93,8,55,20,0,0,0,8366,0,40,46,0,95,431,15,56,70,81,64,90,1,0,15,149504,-692
1890000,94,3,54,26,0,0,0,10214,0,43,44,0,95,420,16,55,50,0,0,92,1,0,14,116736,-682
1910000,95,0,55,17,0,0,0,7932,0,38,46,0,95,429,16,55,50,0,0,92,1,0,17,133120,-704
1930000,96,4,56,28,0,0,0,10031,0,30,44,0,95,458,14,56,60,0,0,92,1,0,20,116736,-721
1950000,97,9,55,20,0,0,0,8113,0,31,45,0,95,437,14,55,70,110,2,91,1,0,21,130048,-702
1970000,98,11,56,27,0,0,0,10314,0,29,45,0,95,449,14,57,60,0,0,92,1,0,21,117760,-712
1990000,99,7,55,19,0,0,0,9288,0,38,47,0,95,428,13,57,60,0,0,92,1,0,19,121856,-745
2010000,100,10,54,11,0,0,0,11465,0,39,44,0,95,409,13,54,60,0,0,92,1,0,18,114688,-739
2030000,101,3,55,13,0,0,0,10145,0,38,43,0,95,439,13,56,60,0,0,92,1,0,16,124928,-695
2050000,102,7,57,16,0,0,0,12424,0,31,46,0,95,421,13,57,50,0,0,92,1,0,21,109568,-738
2071000,103,14,55,9,0,0,0,13381,0,30,45,0,95,425,14,55,50,0,0,91,1,0,20,86016,-712
2091000,104,16,56,14,0,0,0,13924,0,36,45,0,95,432,15,55,50,0,0,91,1,0,18,93184,-683
2111000,105,17,59,13,0,0,0,12166,0,34,44,0,95,427,18,58,50,0,0,90,1,0,16,102400,-699
2131000,106,12,56,15,0,0,0,12529,0,36,45,0,95,431,15,56,50,0,0,92,1,0,18,105472,-699
2151000,107,6,56,18,0,0,0,11023,0,42,43,0,95,431,13,55,40,0,0,91,1,0,16,113664,-687
2171000,108,3,59,11,0,0,0,11995,0,36,46,0,95,458,14,58,50,0,0,92,1,0,18,123904,-725
2191000,109,3,60,16,0,0,0,11631,0,22,44,0,95,447,13,62,50,0,0,93,1,0,29,115712,-708
2211000,110,4,58,10,0,0,0,13618,0,27,44,0,95,425,13,60,50,0,0,92,1,0,23,95232,-688
2231000,111,3,57,13,0,0,0,13115,0,31,44,0,95,437,16,59,40,0,0,81,1,0,23,90112,-689
2251000,112,4,56,12,0,0,0,13391,0,45,43,0,95,404,14,56,50,0,0,92,6,0,14,93184,-706
2272000,113,8,54,18,0,0,0,11717,0,45,45,0,95,399,14,55,50,0,0,91,6,0,15,97280,-679
2292000,114,4,53,17,0,0,0,12054,0,45,45,0,95,393,13,55,60,0,0,91,1,0,17,107520,-701
2312000,115,3,52,16,0,0,0,10035,0,46,47,0,95,395,13,53,60,0,0,91,1,0,13,117760,-677
2332000,116,7,57,25,0,0,0,12010,0,37,47,0,95,437,15,57,40,0,0,86,1,0,17,124928,-699
2352000,117,11,57,11,0,0,0,10713,0,29,44,0,95,439,14,57,40,0,0,92,1,0,22,115712,-679
2372000,118,15,56,29,0,0,0,8422,0,30,43,0,95,437,15,56,70,69,2,91,1,0,21,144384,-694
2392000,119,8,56,18,0,0,0,6942,0,33,44,0,95,428,14,56,60,63,114,92,1,0,21,162816,-738
2412000,120,6,55,11,0,0,0,7655,0,33,43,0,95,438,15,56,40,26,140,92,1,0,19,161792,-688
2432000,121,13,55,17,0,0,0,9362,0,35,44,0,95,412,14,55,40,0,0,92,1,0,17,121856,-708
2452000,122,3,56,21,0,0,0,8825,0,36,44,0,95,442,16,55,50,0,0,92,1,0,17,130048,-654
2473000,123,10,56,20,0,0,0,8766,0,37,44,0,95,432,16,57,60,31,98,92,1,0,17,143360,-736
2493000,124,3,57,4,0,0,0,7758,0,48,43,0,95,439,17,57,50,76,50,84,1,0,12,165888,-723
2513000,125,11,54,8,0,0,0,9373,0,52,45,0,95,414,17,55,40,0,0,91,1,0,11,143360,-712
2533000,126,4,58,18,0,0,0,8773,0,45,41,0,95,426,18,55,70,33,62,89,1,0,15,154624,-734
2553000,127,0,54,-11,0,0,0,10690,0,53,40,0,95,406,16,58,20,0,0,80,6,0,11,119808,-754
2573000,128,0,0,0,0,0,0,10802,0,53,0,0,85,477,16,56,0,103,12,57,6,0,11,119808,-858
2593000,129,4,72,52,0,0,0,6567,0,0,46,0,50,482,19,0,0,104,32,64,1,0,0,132096,-930
2613000,130,3,76,-58,0,0,0,8172,0,82,45,0,95,451,20,72,40,103,28,75,0,0,4,131072,-918
2633000,131,3,72,19,0,0,0,8163,0,16,45,0,95,463,16,74,60,103,22,86,0,0,41,119808,-916
2653000,132,7,67,52,0,0,0,9489,0,17,46,0,95,435,16,68,150,100,30,88,6,0,36,120832,-910
2674000,133,7,66,45,0,0,0,13363,0,23,42,0,95,488,17,67,60,0,0,91,6,0,31,117760,-882
2694000,134,3,70,38,0,0,0,16636,0,26,43,0,95,511,18,69,60,0,0,90,6,0,28,114688,-872
2714000,135,0,73,59,0,0,0,14285,0,32,44,0,95,407,20,74,80,74,6,90,6,0,25,112640,-871
2734000,136,3,64,43,0,0,0,18070,0,42,44,0,95,354,17,65,70,0,0,88,6,0,18,68608,-872
2754000,137,4,65,41,0,0,0,16650,0,37,44,0,95,425,15,66,80,0,0,89,6,0,25,90112,-866
2774000,138,3,66,34,0,0,0,18308,0,24,44,0,95,430,13,65,70,0,0,91,1,0,28,73728,-856
2794000,139,3,68,32,0,0,0,14681,0,23,45,0,95,462,12,69,60,0,0,92,6,0,34,73728,-851
2814000,140,8,71,28,0,0,0,17053,0,14,44,0,95,444,14,70,60,0,0,93,6,0,41,79872,-842
2834000,141,4,63,29,0,0,0,15261,0,22,44,0,95,429,13,67,60,0,0,92,6,0,31,84992,-852
2854000,142,10,62,25,0,0,0,18249,0,28,43,0,95,430,12,62,60,0,0,93,1,0,25,84992,-842
2875000,143,14,67,37,0,0,0,17982,0,14,43,0,95,439,12,66,60,0,0,91,1,0,38,94208,-842
2895000,144,7,68,26,0,0,0,15721,0,18,45,0,95,426,13,67,60,0,0,92,6,0,37,78848,-843
2915000,145,3,61,36,0,0,0,14328,0,35,44,0,95,427,13,63,70,0,0,93,1,0,27,82944,-836
2935000,146,13,67,34,0,0,0,16994,0,37,43,0,95,449,15,67,60,0,0,93,1,0,21,112640,-839
2955000,147,10,69,41,0,0,0,15589,0,24,47,0,95,459,14,69,70,0,0,86,6,0,34,81920,-824
2975000,148,4,70,33,0,0,0,17017,0,41,44,0,95,465,13,69,60,0,0,88,6,0,19,107520,-824
2995000,149,3,68,46,0,0,0,17021,0,34,43,0,95,450,11,71,60,0,0,92,6,0,21,112640,-830
3015000,150,9,62,23,0,0,0,17669,0,41,43,0,95,422,11,63,50,0,0,93,6,0,17,67584,-830
3035000,151,3,62,29,0,0,0,14558,0,21,45,0,95,424,12,62,60,0,0,92,1,0,26,70656,-823
3055000,152,10,66,44,0,0,0,17631,0,19,43,0,95,437,14,64,60,0,0,91,1,0,31,108544,-831
3076000,153,3,64,34,0,0,0,14844,0,70,45,0,95,411,10,62,50,0,0,87,1,0,7,102400,-827
3096000,154,4,60,29,0,0,0,17795,0,72,43,0,95,417,10,61,60,0,0,93,6,0,6,97280,-834
3116000,155,3,66,44,0,0,0,17892,0,28,46,0,95,448,13,64,60,0,0,92,6,0,24,69632,-827
3136000,156,0,66,61,0,0,0,18036,0,30,43,0,95,445,15,67,60,0,0,85,6,0,25,70656,-816
3156000,157,3,64,45,0,0,0,14529,0,30,43,0,85,371,13,67,60,0,0,91,6,0,25,78848,-824
3176000,158,3,66,31,0,0,0,17999,0,20,43,0,95,427,13,65,60,0,0,89,6,0,34,69632,-831
3196000,159,8,66,33,0,0,0,14673,0,12,44,0,95,445,13,66,60,0,0,89,1,0,43,86016,-824
3216000,160,3,66,53,0,0,0,16870,0,20,45,0,95,437,14,66,70,0,0,87,1,0,40,93184,-840
3236000,161,4,64,36,0,0,0,15245,0,51,44,0,95,429,11,66,60,0,0,91,1,0,26,103424,-873
3256000,162,4,61,39,0,0,0,17407,0,62,44,0,95,391,11,57,60,0,0,86,4,0,10,109568,-857
3277000,163,3,66,43,0,0,0,12520,0,47,43,0,95,408,13,66,60,100,10,92,6,0,16,113664,-877
3297000,164,3,61,38,0,0,0,16521,0,36,45,0,95,393,12,71,60,0,0,93,6,0,22,94208,-902
3317000,165,3,58,32,0,0,0,13033,0,50,42,0,95,431,14,58,70,0,0,78,6,0,14,112640,-921
3337000,166,6,61,40,0,0,0,16915,0,38,44,0,95,362,13,61,70,0,0,92,6,0,11,115712,-896
3357000,167,4,64,34,0,0,0,15611,0,20,44,0,95,457,13,64,70,0,0,89,6,0,29,99328,-885
3377000,168,3,71,16,0,0,0,7168,0,24,47,0,95,451,14,67,50,113,20,89,1,0,30,130048,-927
3397000,169,8,71,49,0,0,0,6026,0,26,44,0,95,445,11,74,90,111,18,80,6,0,30,130048,-931
3417000,170,4,70,48,0,0,0,4630,0,27,48,0,95,436,12,71,80,113,30,87,6,0,30,160768,-941
3437000,171,3,70,30,0,0,0,8172,0,20,44,0,95,460,13,71,60,110,40,78,6,0,30,133120,-908
3457000,172,4,69,-17,0,0,0,11195,0,20,47,0,95,511,11,70,100,0,0,78,6,0,37,126976,-778
3478000,173,10,55,39,0,0,0,15444,0,37,45,0,95,403,11,54,70,0,0,87,6,0,17,93184,-783
3498000,174,13,56,19,0,0,0,12024,0,51,45,0,95,421,14,56,60,0,0,90,6,0,12,120832,-696
3518000,175,7,54,1,0,0,0,8020,0,51,47,0,95,402,14,53,40,0,0,90,1,0,12,142336,-724
3538000,176,4,56,28,0,0,0,9431,0,48,44,0,95,395,13,56,60,0,0,91,1,0,13,147456,-754
3558000,177,4,55,26,0,0,0,9637,0,45,42,0,95,381,12,54,60,0,0,91,1,0,13,123904,-724
3578000,178,4,57,19,0,0,0,11231,0,50,42,0,95,393,12,55,50,0,0,92,1,0,12,126976,-788
3598000,179,4,52,20,0,0,0,18946,0,45,42,0,95,395,12,53,70,0,0,87,1,0,14,87040,-740
3618000,180,9,53,15,0,0,0,18837,0,46,44,0,95,391,14,52,60,0,0,91,1,0,15,72704,-730
3638000,181,4,54,19,0,0,0,15658,0,41,45,0,95,390,12,54,60,0,0,92,1,0,15,62464,-726
3658000,182,4,54,5,0,0,0,19085,0,36,42,0,95,400,15,54,60,0,0,92,1,0,16,56320,-732
3679000,183,3,55,13,0,0,0,15293,0,41,44,0,95,398,13,54,50,0,0,92,1,0,15,86016,-731
3699000,184,8,54,14,0,0,0,19155,0,45,44,0,95,405,14,55,60,0,0,92,1,0,14,103424,-727
3719000,185,7,57,16,0,0,0,12329,0,40,44,0,95,404,16,55,40,0,0,92,1,0,15,129024,-683
3739000,186,3,57,15,0,0,0,9194,0,38,44,0,95,417,15,58,50,0,0,92,1,0,17,149504,-716
3759000,187,9,56,18,0,0,0,8014,0,38,46,0,95,389,14,56,40,0,0,91,1,0,18,143360,-727
3779000,188,3,56,4,0,0,0,10077,0,37,46,0,95,394,13,56,50,0,0,92,1,0,17,139264,-730
3799000,189,3,58,11,0,0,0,8402,0,34,43,0,95,401,12,57,40,25,0,90,1,0,19,135168,-740
3819000,190,9,59,-15,0,0,0,13680,0,48,43,0,95,422,13,59,30,0,0,90,6,0,13,121856,-788
3839000,191,3,59,4,0,0,0,13138,0,48,42,0,95,439,13,59,20,0,0,71,6,0,13,125952,-816
3859000,192,3,72,6,0,0,0,11417,0,58,43,0,95,445,15,70,100,91,44,90,1,0,9,136192,-920
3880000,193,4,71,23,0,0,0,9458,0,17,47,0,95,505,15,78,30,83,46,83,6,0,39,119808,-940
3900000,194,3,69,36,0,0,0,11459,0,20,46,0,95,456,15,71,80,90,46,82,6,0,37,113664,-929
3920000,195,6,69,-51,0,0,0,8776,0,18,44,0,95,454,15,71,10,94,38,88,1,0,37,125952,-940
3940000,196,3,66,12,0,0,0,11490,0,21,46,0,85,408,12,68,0,98,34,58,6,0,37,138240,-923
3960000,197,3,69,-11,0,0,0,10931,0,0,46,0,50,457,10,0,0,83,68,54,6,0,0,114688,-943
3980000,198,10,67,-10,0,0,0,8155,0,21,44,0,82,455,12,66,60,123,58,82,0,0,33,179200,-618
4000000,199,3,67,55,0,0,0,11796,0,28,43,0,95,412,12,67,80,185,2,95,0,0,26,111616,-642
4020000,200,0,62,27,0,0,0,11527,0,47,48,0,95,396,12,64,60,0,0,87,0,0,21,137216,-406
4040000,201,3,58,15,0,0,0,8528,0,47,45,0,95,435,12,62,70,33,78,83,1,0,16,153600,-485
4060000,202,7,69,1,0,0,0,12437,0,56,46,0,95,442,16,65,60,102,42,92,6,0,9,108544,-787
4081000,203,10,65,36,0,0,0,8640,0,40,44,0,95,417,16,66,70,50,110,90,6,0,21,143360,-471
4101000,204,4,71,33,0,0,0,12350,0,32,45,0,95,445,16,71,60,92,58,89,6,0,24,114688,-875
4121000,205,3,68,36,0,0,0,13066,0,45,44,0,95,419,19,68,40,19,6,91,6,0,18,98304,-939
4141000,206,9,68,30,0,0,0,10218,0,23,46,0,95,426,16,68,50,94,34,94,6,0,18,122880,-892
4161000,207,3,68,18,0,0,0,10871,0,24,45,0,95,417,15,66,60,148,4,89,1,0,31,130048,-690
4181000,208,9,73,50,0,0,0,8664,0,13,45,0,95,433,15,73,70,90,38,93,1,0,42,142336,-961
4201000,209,7,74,41,0,0,0,10492,0,9,44,0,95,436,14,75,70,84,46,93,1,0,59,112640,-936
4221000,210,0,0,0,0,0,0,10676,0,21,0,0,95,419,14,72,80,84,24,86,1,0,59,117760,-937
4241000,211,3,68,27,0,0,0,12285,0,28,44,0,95,451,15,65,60,66,12,90,1,0,33,101376,-917
4261000,212,3,68,27,0,0,0,13413,0,24,46,0,95,426,16,69,60,89,18,93,1,0,32,104448,-923
4282000,213,8,79,38,0,0,0,9423,0,24,46,0,95,449,17,67,50,101,46,88,1,0,31,140288,-828
4302000,214,3,75,55,0,0,0,10021,0,22,46,0,95,444,16,81,50,97,42,96,6,0,35,120832,-944
4322000,215,3,69,48,0,0,0,12141,0,73,45,0,95,408,15,69,80,48,96,90,6,0,49,110592,-592
4342000,216,3,63,31,0,0,0,8507,0,77,46,0,95,403,14,70,60,161,6,92,1,0,4,163840,-677
4362000,217,3,68,50,0,0,0,9753,0,54,46,0,95,409,15,68,80,97,46,91,6,0,14,119808,-945
4382000,218,4,65,34,0,0,0,12850,0,27,46,0,95,413,17,66,60,98,72,92,6,0,25,102400,-921
4402000,219,0,0,0,0,0,0,14568,0,39,0,0,95,392,16,63,50,0,0,89,1,0,25,103424,-937
4422000,220,10,67,38,0,0,0,17865,0,52,43,0,95,412,17,63,50,0,0,91,6,0,13,107520,-927
4442000,221,3,64,22,0,0,0,17400,0,45,43,0,95,397,19,66,50,0,0,87,6,0,15,92160,-952
4462000,222,3,63,39,0,0,0,18562,0,38,44,0,95,390,16,64,60,0,0,92,6,0,15,107520,-939
4483000,223,9,64,33,0,0,0,16032,0,36,42,0,95,403,13,64,60,0,0,88,1,0,28,95232,-935
4503000,224,3,66,23,0,0,0,17154,0,16,47,0,95,411,12,66,40,0,0,93,1,0,36,97280,-913
4523000,225,6,64,32,0,0,0,14489,0,15,46,0,95,406,13,64,50,0,0,93,1,0,39,108544,-902
4543000,226,3,68,26,0,0,0,17378,0,11,45,0,95,419,14,68,50,0,0,93,1,0,50,97280,-902
4563000,227,3,68,25,0,0,0,17368,0,14,46,0,95,416,13,69,60,0,0,89,1,0,41,102400,-897
4583000,228,3,65,26,0,0,0,17843,0,15,44,0,95,410,12,65,60,0,0,92,1,0,37,106496,-898
4603000,229,3,64,35,0,0,0,14753,0,16,45,0,95,398,12,64,50,0,0,92,1,0,35,106496,-898
4623000,230,8,64,32,0,0,0,17693,0,14,46,0,95,405,11,64,50,0,0,93,1,0,40,80896,-892
4643000,231,3,63,29,0,0,0,14046,0,18,46,0,95,409,12,63,60,0,0,93,1,0,36,103424,-892
4663000,232,3,64,27,0,0,0,16824,0,16,44,0,95,405,12,65,50,0,0,93,1,0,38,95232,-890
4684000,233,9,62,33,0,0,0,15997,0,12,44,0,95,406,12,63,60,0,0,93,1,0,42,88064,-891
4704000,234,4,77,41,0,0,0,14753,0,18,44,0,95,444,13,77,50,0,0,88,1,0,39,131072,-915
4724000,235,4,64,33,0,0,0,8533,0,30,45,0,95,409,12,70,60,105,26,95,6,0,27,143360,-940
4744000,236,10,64,43,0,0,0,12490,0,34,47,0,95,413,15,69,60,38,144,92,6,0,21,123904,-921
4764000,237,3,68,50,0,0,0,12460,0,27,45,0,95,417,16,68,60,0,0,92,6,0,26,106496,-917
4784000,238,3,67,47,0,0,0,15452,0,24,45,0,95,407,15,68,70,0,0,91,6,0,31,121856,-896
4804000,239,3,70,43,0,0,0,13349,0,32,45,0,95,423,17,67,70,0,0,93,6,0,24,101376,-894
4824000,240,3,69,45,0,0,0,13395,0,20,45,0,95,421,15,70,60,0,0,93,1,0,34,100352,-888
4844000,241,3,68,50,0,0,0,13577,0,23,47,0,95,408,15,70,60,0,0,92,6,0,30,104448,-890
4864000,242,3,69,40,0,0,0,11990,0,27,44,0,95,407,15,68,70,0,0,89,6,0,28,117760,-875
4885000,243,7,64,39,0,0,0,13516,0,21,47,0,95,390,13,66,60,0,0,92,1,0,32,101376,-867
4905000,244,3,66,41,0,0,0,15929,0,22,46,0,95,400,13,66,70,0,0,92,1,0,31,92160,-866
4925000,245,3,66,34,0,0,0,16205,0,19,44,0,95,403,13,64,70,0,0,89,1,0,34,106496,-860
4945000,246,3,67,46,0,0,0,14096,0,24,44,0,95,407,13,68,70,0,0,93,1,0,29,115712,-855
4965000,247,7,62,36,0,0,0,14892,0,23,46,0,95,400,12,63,60,0,0,93,1,0,27,113664,-863
4985000,248,0,71,45,0,0,0,12598,0,22,46,0,95,412,13,65,90,0,0,92,1,0,31,121856,-868
5005000,249,0,0,0,0,0,0,12169,0,22,0,0,95,416,17,71,80,0,0,91,6,0,31,108544,-867
5025000,250,4,72,51,0,0,0,12891,0,45,46,0,95,412,16,72,70,0,0,93,6,0,17,124928,-870
5045000,251,23,75,51,0,0,0,9672,0,22,45,0,95,420,14,72,70,0,0,93,6,0,32,146432,-873
5065000,252,8,72,49,0,0,0,10512,0,23,46,0,95,412,15,73,70,0,0,93,1,0,31,142336,-875
5086000,253,3,73,49,0,0,0,8599,0,20,48,0,95,417,15,74,70,62,10,93,1,0,38,145408,-888
5106000,254,3,71,47,0,0,0,10416,0,24,47,0,95,409,15,71,80,102,20,92,1,0,31,148480,-935
5126000,255,9,83,65,0,0,0,8522,0,41,47,0,95,438,16,79,90,0,0,91,6,0,20,144384,-955
5146000,256,3,77,66,0,0,0,9830,0,25,47,0,95,408,15,79,90,0,0,94,6,0,34,145408,-954
5166000,257,10,68,57,0,0,0,14096,0,20,44,0,95,386,14,68,80,0,0,93,6,0,39,94208,-963
5186000,258,10,65,39,0,0,0,12082,0,23,44,0,95,383,17,65,70,0,0,92,1,0,29,128000,-949
5206000,259,6,71,53,0,0,0,11215,0,26,46,0,95,410,17,71,80,179,24,89,1,0,28,122880,-749
5226000,260,3,62,60,0,0,0,13400,0,23,46,0,95,382,15,71,70,96,28,91,1,0,27,108544,-925
