# session 129
-1
140
389
246
-352
-704
-588
-478
-521
-507
-438
-406
-370
-315
-277
-253
-213
-152
-106
-101
-105
-89
-68
-48
-24
4
45
95
130
152
173
182
179
178
169
146
142
166
166
116
80
108
138
116
86
74
43
13
29
46
14
-15
0
22
31
48
77
113
171
233
261
266
276
284
281
277
264
225
176
131
75
23
2
-17
-50
-64
-78
-119
-125
-94
-110
-147
-109
-18
57
113
145
159
194
235
241
238
254
265
263
263
307
449
637
784
854
630
110
67
537
-78
-1867
-2277
-692
472
356
180
237
281
306
-237
-1208
-1400
-934
-931
-1174
-1045
-858
-741
-539
-428
-235
45
-420
-1488
-1889
-1653
-1613
-1592
-1504
-1675
-1451
-373
508
590
555
656
603
534
621
713
752
772
733
644
597
644
692
635
596
607
306
-430
-1028
-905
-195
439
583
442
333
280
263
313
364
369
378
407
454
514
538
513
492
478
432
367
332
320
295
260
234
225
230
233
224
217
207
157
108
138
235
381
501
358
-38
-254
-126
28
51
67
100
92
60
33
22
31
43
65
106
138
147
148
131
83
26
-26
-80
-134
-165
-176
-188
-182
-121
-36
10
31
69
87
57
44
68
33
-72
-128
-127
-179
-274
-323
-332
-346
-364
-387
-393
-348
-285
-237
-157
-61
-25
-20
7
1
-65
-118
-146
-207
-281
-307
-306
-310
-297
-270
-263
-253
-191
-104
-59
-62
-78
-81
-66
-49
-50
-56
-43
-26
-21
-12
-12
-45
-51
-34
-68
-66
65
220
418
676
581
20
-349
-224
-84
-156
-194
-149
-152
-183
-195
-212
-224
-209
-188
-164
-116
-69
-64
-79
-80
-76
-76
-57
-19
11
26
45
76
104
127
162
191
184
166
166
148
101
85
109
126
135
156
177
201
225
215
178
161
143
96
55
38
18
-1
5
15
4
-16
-8
61
157
184
138
106
101
64
17
26
81
136
180
214
236
249
263
286
313
320
284
230
187
131
55
0
-14
-13
-52
-124
-103
47
222
459
674
468
-80
-321
-154
-36
-65
-95
-147
-201
-214
-244
-269
-235
-205
-200
-183
-186
-213
-219
-215
-220
-205
-165
-134
-123
-106
-59
-4
23
40
65
76
76
91
97
70
43
25
-4
-30
-48
-80
-111
-120
-139
-167
-165
-154
-153
-138
-122
-130
-134
-129
-136
-136
-127
-140
-161
-159
-155
-159
-164
-194
-245
-268
-259
-242
-233
-236
-140
44
52
48
309
61
-1081
-1576
-622
256
185
34
150
150
103
146
148
140
183
178
180
319
502
709
994
1004
474
-64
-115
14
-10
-55
-32
-30
-39
-8
36
62
74
79
83
92
124
181
230
264
309
351
358
354
374
397
405
408
396
355
297
243
200
160
103
39
-6
-36
-84
-171
-265
-313
-314
-293
-240
-159
-86
-57
-109
-229
-325
-368
-418
-482
-500
-460
-398
-317
-195
-51
87
242
413
544
640
689
594
480
586
680
387
-20
-97
4
2
-22
12
25
2
-18
-35
-52
-69
-97
-130
-169
-227
-279
-309
-344
-378
-393
-417
-460
-490
-509
-541
-577
-597
-598
-587
-575
-559
-527
-475
-411
-354
-309
-243
-143
-53
-4
40
83
102
122
147
119
53
42
82
98
111
182
279
330
327
309
304
310
328
349
335
278
237
245
270
282
284
272
242
206
168
128
96
72
37
-7
-16
27
72
82
71
64
71
99
146
206
271
320
336
329
302
260
222
202
181
144
116
137
199
230
189
117
53
-16
-105
-214
-314
-360
-356
-353
-356
-348
-321
-247
-142
-64
7
99
204
374
498
263
-216
-428
-324
-268
-325
-355
-363
-376
-356
-303
-245
-202
-192
-203
-199
-185
-172
-147
-106
-59
8
72
79
57
77
118
130
127
125
102
63
33
3
-33
-52
-61
-81
-91
-80
-80
-104
-118
-124
-152
-198
-233
-258
-283
-300
-301
-287
-259
-226
-180
-92
16
108
197
305
429
550
641
739
885
943
862
893
1010
786
288
55
112
100
7
-39
-78
-105
-76
-50
-58
-56
-41
-42
-51
-59
-77
-104
-137
-191
-287
-399
-463
-453
-414
-379
-337
-275
-221
-204
-189
-131
-53
13
70
107
110
121
168
224
263
268
234
193
173
150
109
70
28
-37
-111
-163
-195
-230
-263
-279
-267
-216
-147
-94
-35
40
65
26
-7
-24
-66
-111
-121
-110
-85
-31
17
19
-2
-10
-16
-31
-46
-61
-78
-75
-45
-23
-22
-5
35
64
88
123
143
150
159
149
120
103
73
3
-45
-40
-30
-23
8
34
28
19
17
-4
-32
-48
-76
-127
-171
-192
-221
-270
-289
-270
-281
-277
-136
84
300
520
521
111
-301
-298
-127
-94
-107
-78
-58
-38
-10
-10
-13
19
64
83
87
89
82
63
53
60
73
95
130
159
168
170
168
161
156
142
105
65
52
65
102
163
233
282
305
317
323
326
329
309
252
181
126
102
95
73
42
52
67
12
-53
-48
-38
-55
-28
18
5
-41
-93
-167
-237
-280
-311
-326
-327
-322
-272
-169
-75
-33
-43
-83
-108
-90
-61
-62
-86
-100
-106
-116
-128
-148
-177
-190
-210
-253
-209
-41
149
357
487
263
-161
-270
-68
53
43
63
105
124
125
100
69
56
40
0
-52
-88
-101
-110
-122
-116
-106
-130
-161
-154
-136
-146
-162
-156
-136
-131
-155
-184
-174
-138
-115
-102
-81
-71
-81
-99
-115
-115
-98
-105
-135
-123
-58
2
31
50
75
98
112
120
124
130
149
170
158
129
136
157
140
111
106
112
120
132
141
153
191
234
248
253
258
237
197
161
112
39
-15
-32
-35
-26
1
10
-3
-21
-42
-12
108
261
449
644
574
177
-104
-44
68
75
96
132
117
98
107
87
6
-93
-164
-211
-252
-276
-265
-237
-224
-215
-162
-87
-69
-90
-65
-5
22
5
-28
-49
-45
-45
-68
-81
-70
-69
-87
-112
-133
-130
-106
-85
-53
7
48
30
-3
4
42
81
117
152
188
218
209
139
45
-26
-69
-95
-104
-106
-118
-149
-191
-225
-240
-246
-256
-257
-225
-186
-187
-218
-252
-291
-326
-329
-299
-257
-223
-206
-194
-162
-123
-112
-98
-45
-8
8
92
236
375
502
476
164
-148
-148
-8
25
20
57
74
64
71
93
113
134
151
164
187
215
216
185
146
123
120
118
112
130
161
150
112
110
148
197
243
271
288
303
297
261
225
201
188
181
165
136
104
76
65
81
107
115
103
89
71
27
-31
-68
-100
-159
-209
-217
-221
-233
-226
-204
-190
-172
-149
-126
-98
-103
-156
-175
-132
-121
-154
-130
-48
1
2
-13
-45
-95
-132
-142
-152
-183
-211
-218
-206
-198
-201
-163
-83
-61
-42
122
346
566
837
838
307
-226
-269
-146
-174
-202
-175
-199
-236
-239
-260
-304
-322
-312
-299
-287
-277
-268
-247
-201
-138
-72
-5
79
152
151
69
-29
-102
-143
-129
-64
10
86
169
231
252
247
210
147
92
46
-11
-45
-27
12
29
25
15
18
34
45
50
64
79
86
92
96
97
107
119
118
112
114
131
158
178
181
179
172
158
149
144
131
118
136
197
255
264
244
226
187
120
61
16
-27
-56
-75
-84
-62
-36
-34
-3
41
14
-4
93
229
414
642
546
14
-397
-389
-310
-332
-306
-235
-181
-114
-71
-92
-108
-91
-104
-156
-201
-222
-224
-203
-164
-142
-169
-215
-233
-228
-233
-225
-179
-126
-96
-67
-17
53
120
162
176
192
218
233
236
243
242
216
180
147
108
67
32
-14
-66
-95
-110
-135
-169
-199
-219
-234
-253
-267
-262
-244
-218
-198
-196
-194
-171
-148
-146
-157
-170
-187
-200
-188
-166
-166
-166
-133
-92
-61
-20
25
58
95
125
115
81
55
36
31
54
84
102
129
165
187
202
210
206
218
234
212
218
317
462
659
843
705
231
-94
-72
-10
-58
-93
-100
-132
-148
-116
-76
-64
-62
-54
-66
-106
-119
-83
-52
-52
-33
35
118
165
168
169
195
217
217
213
216
224
227
205
154
100
55
9
-40
-81
-123
-175
-206
-185
-139
-101
-78
-80
-88
-44
19
0
-82
-129
-150
-186
-212
-216
-219
-211
-192
-178
-160
-134
-121
-111
-82
-44
-18
-10
-6
8
35
82
144
175
160
156
181
168
106
47
-2
-55
-92
-100
-85
-50
-16
-20
-54
-86
-103
-106
-100
-82
-57
-40
-31
-35
-59
-86
-102
-114
-138
-172
-186
-139
-13
157
287
280
47
-316
-324
74
-67
-879
-986
-161
252
50
33
144
80
42
85
73
57
81
100
131
181
216
240
252
237
220
233
239
204
169
166
159
130
125
155
177
174
165
152
135
121
80
-10
-78
-74
-60
-86
-111
-117
-127
-125
-98
-80
-83
-75
-48
-21
-12
-23
-19
15
37
28
22
34
43
33
32
62
83
64
48
44
21
3
3
-22
-60
-69
-57
-53
-60
-55
-24
9
31
65
92
60
-10
-51
-41
-10
13
22
30
44
45
22
3
8
5
-1
6
-21
-51
28
163
294
478
501
105
-361
-447
-350
-377
-431
-406
-379
-363
-332
-324
-325
-282
-231
-210
-172
-107
-71
-54
-21
8
16
10
-1
-9
-24
-63
-102
-111
-99
-70
-29
-1
19
65
99
65
3
-16
-12
-22
-30
-15
13
37
37
1
-34
-38
-48
-86
-81
9
114
214
396
639
826
958
1016
926
893
1095
1101
581
42
-78
-65
-154
-196
-152
-112
-82
-67
-78
-76
-60
-52
-26
18
29
-17
-80
-130
-168
-187
-190
-212
-261
-271
-216
-159
-148
-151
-139
-112
-63
-18
-18
-43
-52
-66
-107
-149
-165
-176
-193
-186
-152
-138
-148
-129
-79
-62
-94
-138
-187
-253
-305
-310
-298
-294
-261
-186
-108
-47
1
22
2
-31
-33
6
55
90
115
139
158
164
156
144
133
128
130
131
149
209
243
191
115
59
-3
-41
-22
3
-7
-55
-118
-121
-58
-24
-51
-58
-29
-28
-53
-36
2
-5
-31
-32
-45
-86
-127
-171
-233
-285
-320
-370
-415
-363
-213
-94
-54
-19
35
72
95
120
136
140
137
117
80
52
49
54
69
116
184
250
306
330
325
349
406
429
404
369
336
301
265
218
155
89
37
20
21
8
7
26
-8
-60
-5
126
285
472
448
43
-341
-321
-150
-136
-169
-135
-112
-133
-155
-159
-140
-118
-116
-109
-72
-29
-15
-22
-17
-2
7
32
71
68
29
29
77
109
110
117
136
112
21
-63
-77
-68
-93
-122
-111
-94
-108
-121
-120
-143
-180
-181
-159
-171
-191
-168
-140
-145
-132
-85
-65
-71
-45
6
21
-2
-17
-30
-77
-110
-87
-85
-131
-144
-120
-129
-153
-153
-147
-136
-120
-127
-145
-133
-105
-97
-85
-30
37
68
83
93
62
23
23
15
-31
-55
-47
-56
-56
-24
-11
-17
21
50
24
60
220
425
646
708
362
-115
-210
-35
14
-28
6
51
49
50
60
53
35
43
85
122
114
81
71
65
21
-25
-18
-1
-9
19
88
116
114
137
148
135
138
134
111
129
166
148
121
150
180
157
130
135
132
101
74
58
39
16
-8
-31
-40
-30
-15
-20
-39
-44
-43
-57
-76
-83
-94
-110
-113
-108
-114
-127
-134
-135
-148
-173
-192
-213
-252
-282
-280
-267
-268
-281
-273
-214
-136
-85
-59
-47
-66
-97
-105
-93
-85
-67
-16
40
65
80
99
125
146
113
73
143
284
472
752
819
367
-167
-265
-141
-141
-190
-170
-123
-102
-130
-159
-131
-95
-113
-144
-148
-148
-164
-175
-169
-167
-190
-208
-199
-188
-188
-178
-147
-99
-57
-35
-13
25
47
39
41
65
83
95
116
142
180
218
217
196
205
204
138
63
44
49
32
3
-23
-35
-14
25
28
-6
-20
8
48
88
132
159
149
125
114
123
159
213
255
270
247
179
109
84
62
13
-13
8
31
37
41
43
51
71
90
103
122
162
199
197
175
178
186
177
162
120
63
86
211
393
585
582
246
-134
-263
-279
-395
-556
-651
-655
-588
-504
-462
-474
-472
-401
-317
-280
-241
-170
-118
-89
-45
-1
24
52
82
100
120
150
176
205
228
224
220
245
261
238
193
132
56
-10
-65
-130
-187
-218
-255
-301
-320
-320
-314
-274
-218
-192
-175
-149
-154
-192
-201
-177
-193
-249
-249
-184
-159
-191
-197
-175
-167
-148
-105
-69
-49
-52
-76
-68
-14
21
33
71
126
151
153
161
161
143
132
146
159
147
137
147
149
143
148
157
181
214
187
133
157
249
404
617
594
172
-220
-249
-185
-233
-242
-167
-107
-55
14
60
72
87
124
173
206
229
264
300
309
292
268
249
227
180
109
47
1
-34
-34
3
32
60
115
173
210
235
235
195
124
34
-63
-149
-235
-327
-400
-437
-442
-419
-395
-396
-393
-332
-174
62
294
489
661
689
569
578
650
338
-216
-429
-318
-260
-251
-196
-169
-167
-146
-140
-132
-88
-43
4
83
139
132
106
87
45
-19
-82
-140
-195
-244
-280
-290
-293
-311
-308
-263
-218
-192
-171
-157
-139
-113
-119
-138
-117
-96
-115
-122
-106
-111
-131
-148
-168
-162
-120
-93
-98
-87
-60
-61
-68
-42
-10
2
13
33
52
82
120
149
173
198
224
248
260
261
270
274
250
216
194
169
139
110
87
85
99
102
94
83
53
20
19
37
39
29
28
38
51
68
80
54
0
-17
-1
-8
