# session 77
8
16
28
85
157
192
216
240
244
234
209
179
207
288
322
282
233
173
64
-40
-67
-52
-51
-47
-10
42
68
68
64
52
25
12
17
4
-38
-77
-107
-157
-229
-274
-269
-246
-221
-192
-172
-147
-103
-86
-126
-171
-181
-190
-196
-145
-73
-67
-86
-59
-29
-34
-49
-40
23
152
355
577
556
172
-197
-224
-89
-30
-21
-6
8
21
13
-4
26
65
62
75
117
120
127
172
159
105
130
167
116
98
178
212
158
143
186
200
194
200
187
176
206
212
143
66
25
-9
-34
-37
-45
-67
-82
-83
-90
-122
-148
-116
-69
-83
-113
-93
-78
-109
-116
-66
-30
-45
-79
-87
-72
-88
-126
-113
-72
-88
-124
-89
-10
22
-4
-32
-38
-51
-67
-55
-39
-54
-57
-37
-41
-51
-56
-86
-57
81
247
503
801
682
83
-328
-256
-121
-139
-152
-144
-163
-150
-113
-127
-162
-156
-137
-137
-123
-96
-96
-93
-43
-11
-45
-54
2
38
23
13
24
47
82
102
103
114
132
133
124
108
84
53
11
-29
-53
-69
-81
-84
-95
-111
-110
-104
-113
-122
-110
-96
-102
-103
-74
-53
-61
-69
-67
-62
-57
-74
-103
-92
-65
-79
-80
-25
12
4
27
82
88
56
47
42
24
33
58
47
19
29
53
41
29
47
45
39
101
201
329
502
515
203
-132
-170
-54
-12
-15
10
29
16
2
12
31
41
40
23
22
59
77
60
81
122
113
95
120
164
205
204
156
132
154
165
168
182
177
150
123
106
113
112
57
-2
-3
3
-41
-100
-125
-123
-127
-137
-128
-120
-140
-150
-132
-127
-140
-138
-137
-155
-163
-148
-147
-173
-184
-168
-171
-217
-253
-226
-187
-206
-221
-148
-64
-53
-56
-42
-44
-43
-22
-25
-36
-13
0
-28
-50
-58
-75
-58
-22
-61
-96
8
162
315
517
533
188
-149
-161
-50
-29
-76
-133
-151
-86
0
-23
-164
-235
-130
-43
-117
-185
-123
-47
-58
-82
-40
24
48
72
119
130
95
103
176
219
190
177
228
263
258
272
266
206
188
200
128
70
148
205
118
25
20
17
-2
40
98
41
-50
-24
-27
-170
-175
44
115
-62
-147
-49
-40
-181
-243
-158
-68
-35
-62
-148
-186
-111
-8
63
55
-74
-165
-109
-79
-105
-42
-13
-110
-119
-36
-62
-122
-85
-71
-106
-39
129
345
625
728
379
-103
-216
-55
26
-54
-188
-202
-11
146
14
-197
-154
15
12
-76
-39
26
-17
-64
-5
71
54
13
67
121
40
-13
129
255
175
81
124
166
138
127
123
79
45
31
-20
-87
-107
-72
-46
-107
-192
-170
-76
-36
-69
-140
-172
-86
6
-32
-86
-52
-40
-73
-36
19
-14
-48
-21
-33
-100
-107
-65
-84
-111
-44
8
-31
-21
38
-21
-115
-54
49
-1
-113
-110
-55
-66
-53
23
29
-14
-23
-64
-84
24
163
327
521
412
-43
-288
-181
-124
-156
-84
-38
-111
-138
-80
-58
-82
-79
-56
-41
-18
-10
-67
-118
-54
44
44
-13
-38
-25
-6
13
62
136
175
144
88
110
227
291
227
157
139
90
7
-21
-4
-10
-15
26
68
68
60
68
78
81
79
91
108
85
57
117
230
340
435
371
83
-124
-40
103
107
61
44
38
37
35
30
24
7
-4
12
-6
-70
-59
39
80
42
28
48
50
50
55
43
32
28
3
-22
-9
6
-1
-10
-20
-41
-57
-68
-86
-158
-277
-312
-294
-406
-469
-310
-432
-1077
-1570
-1537
-1360
-1257
-1098
-748
-183
307
436
378
351
304
261
291
298
245
229
257
272
290
334
364
365
367
351
298
286
357
411
395
363
329
274
227
186
133
104
111
92
28
-27
-53
-75
-96
-103
-105
-109
-107
-101
-101
-97
-88
-82
-56
-4
22
9
-1
-14
-42
-37
-11
-31
-68
-54
-16
-5
-17
-26
-8
6
-28
-21
101
271
523
832
781
252
-149
-95
29
0
-15
23
38
48
73
92
107
121
126
125
129
135
126
99
74
49
10
-15
-1
18
5
-24
-34
-26
-34
-51
-43
-25
-19
-13
-7
-18
-29
-31
-52
-98
-143
-175
-189
-184
-176
-181
-199
-203
-178
-146
-134
-142
-172
-190
-151
-119
-181
-251
-208
-131
-162
-241
-218
-138
-137
-163
-131
-130
-177
-161
-119
-117
-69
14
20
4
37
34
-7
14
55
18
-38
-15
33
22
-11
-13
-5
10
23
-16
-35
64
222
431
685
675
256
-121
-135
-48
-71
-86
-43
-20
-34
-47
-34
0
31
39
29
20
25
46
65
58
35
37
67
101
125
140
140
123
121
158
200
205
197
193
176
161
153
125
85
46
-4
-40
-41
-53
-88
-100
-98
-107
-108
-100
-110
-128
-132
-128
-121
-118
-124
-123
-106
-91
-87
-84
-72
-57
-49
-55
-56
-36
-21
-28
-24
-6
-9
-2
63
122
114
89
85
72
54
51
40
12
0
10
0
-30
-30
-8
-6
-7
-5
-15
24
133
283
511
661
423
-26
-192
-95
-68
-111
-96
-69
-75
-79
-71
-61
-53
-50
-43
-31
-32
-48
-51
-41
-45
-65
-77
-66
-57
-65
-67
-49
-43
-51
-42
-23
-21
-20
-4
4
-2
-1
2
-11
-31
-35
-30
-34
-45
-48
-39
-21
-10
-19
-37
-39
-29
-36
-49
-43
-35
-45
-48
-38
-38
-41
-37
-40
-45
-38
-35
-41
-39
-40
-60
-71
-55
-46
-42
-1
52
52
25
21
10
-29
-39
-15
-17
-40
-25
2
-15
-45
-40
-20
1
17
-15
-48
12
138
333
604
648
258
-157
-209
-106
-99
-117
-102
-103
-111
-102
-93
-82
-76
-83
-72
-34
-13
-21
-21
-11
-17
-12
44
86
49
19
83
136
89
54
127
204
205
178
162
154
164
168
147
126
107
70
42
31
13
-3
-2
-4
-20
-40
-47
-44
-45
-49
-57
-71
-66
-55
-79
-117
-131
-124
-76
28
171
345
518
653
750
723
573
620
867
704
42
-358
-266
-207
-312
-327
-304
-346
-345
-314
-346
-354
-292
-272
-304
-292
-251
-250
-269
-255
-237
-263
-296
-288
-284
-289
-260
-254
-283
-238
-149
-140
-155
-95
-14
22
25
30
63
87
68
52
64
61
43
34
23
14
21
20
4
-8
-18
-21
-12
-17
-38
-44
-42
-46
-38
-23
-17
-11
6
21
43
72
76
67
84
107
105
83
41
-10
-34
-58
-136
-229
-248
-209
-192
-203
-194
-149
-87
-33
-11
4
54
100
87
73
117
151
139
153
184
155
119
160
197
170
208
347
400
320
295
354
345
279
261
270
259
255
258
234
192
180
197
167
119
187
349
552
831
919
475
-128
-274
-103
-77
-183
-213
-197
-219
-250
-264
-278
-268
-220
-184
-176
-186
-233
-278
-270
-259
-267
-230
-178
-161
-135
-101
-110
-112
-58
-9
-23
-52
-41
-13
-12
-23
-18
-18
-51
-104
-136
-144
-159
-177
-183
-202
-227
-211
-190
-213
-223
-188
-170
-185
-190
-180
-167
-146
-121
-111
-110
-104
-94
-82
-69
-55
-44
-44
-49
-42
-28
-24
-18
26
104
168
187
171
146
128
120
112
96
74
63
72
86
72
30
20
61
53
-7
35
197
398
695
913
620
11
-233
-91
-31
-91
-75
-36
-48
-55
-40
-38
-45
-45
-46
-55
-50
-25
-2
12
25
23
6
2
23
49
51
40
66
126
144
135
168
203
190
182
181
134
88
81
59
19
4
-3
-12
-4
10
20
32
22
-24
-72
-100
-124
-161
-200
-213
-198
-186
-183
-181
-186
-192
-183
-157
-121
-95
-85
-68
-49
-51
-46
-18
-4
12
52
61
28
20
25
-17
-57
-38
-34
-81
-98
-58
-32
-45
-56
-55
-42
-21
-32
-61
-16
108
272
469
490
145
-242
-279
-134
-90
-94
-61
-27
5
44
64
63
53
35
10
-11
-16
-14
-17
-7
13
13
5
12
19
22
51
87
104
121
157
186
195
192
185
172
146
107
63
21
-15
-41
-53
-55
-57
-58
-51
-48
-58
-48
-14
3
-2
-1
6
-1
-19
-37
-48
-55
-62
-69
-65
-50
-54
-69
-59
-40
-53
-69
-50
-24
-33
-43
-1
62
81
56
29
12
-6
-19
-24
-27
-31
-28
-20
-14
-9
-8
-16
-20
-26
-55
-65
-9
96
260
441
387
29
-255
-227
-109
-85
-89
-84
-103
-131
-153
-172
-187
-197
-200
-191
-172
-149
-122
-95
-73
-55
-41
-25
1
31
52
63
94
153
182
136
71
58
84
120
137
96
32
44
131
189
182
162
158
152
138
116
71
12
-31
-54
-77
-95
-90
-77
-91
-129
-140
-110
-89
-104
-122
-121
-117
-126
-133
-80
33
90
19
-77
-99
-90
-123
-182
-182
-101
-9
55
123
185
207
259
364
370
259
265
421
484
413
345
266
158
89
21
-48
-29
58
230
499
482
-29
-471
-423
-235
-205
-225
-219
-194
-183
-260
-334
-276
-236
-317
-333
-267
-365
-628
-820
-861
-775
-574
-322
5
407
650
814
1163
1048
-12
-694
2
832
749
424
373
360
349
385
377
336
288
288
231
-230
-766
-563
37
101
-166
-194
-154
-209
-200
-159
-165
-147
-105
-90
-84
-68
-56
-42
-15
14
26
24
24
25
18
5
-12
-31
-55
-101
-156
-166
-140
-154
-219
-277
-299
-297
-277
-240
-191
-136
-76
-15
15
3
-9
-14
-28
-28
-9
15
71
176
344
574
638
326
-81
-187
-69
6
0
-19
-23
-30
-52
-33
54
116
94
52
51
73
81
74
67
53
23
13
34
37
14
18
51
77
96
105
102
102
87
25
-36
-54
-86
-152
-169
-131
-141
-215
-255
-222
-176
-171
-185
-166
-131
-133
-133
-87
-71
-99
-39
104
232
411
654
806
883
953
912
861
965
886
386
-70
-171
-194
-255
-236
-227
-303
-349
-344
-334
-310
-305
-314
-251
-171
-213
-315
-351
-355
-398
-441
-447
-450
-472
-475
-431
-379
-356
-335
-290
-245
-211
-154
-78
-32
-18
2
35
59
70
79
91
109
115
107
120
150
162
161
166
169
177
192
216
298
468
668
846
1036
1261
1381
1216
921
808
772
491
71
-162
-203
-242
-313
-337
-324
-354
-404
-413
-422
-438
-402
-377
-437
-474
-432
-419
-451
-450
-442
-471
-497
-492
-488
-490
-474
-432
-366
-287
-211
-125
-22
50
76
97
122
126
116
121
148
166
140
95
89
120
150
175
189
161
104
74
81
90
108
156
200
211
214
201
147
95
84
78
59
57
62
40
22
18
-13
-24
49
119
116
64
-143
-483
-609
-433
-294
-314
-335
-317
-262
-158
-91
-76
-14
58
57
41
57
74
110
145
103
45
59
77
56
57
74
81
114
172
221
275
350
414
442
442
440
440
417
353
274
198
112
12
-74
-138
-183
-206
-212
-211
-198
-167
-142
-137
-143
-153
-156
-133
-111
-111
-71
41
139
212
371
569
656
759
1055
1256
967
359
-103
-279
-332
-373
-400
-395
-349
-277
-216
-194
-210
-247
-277
-296
-325
-365
-403
-447
-488
-503
-508
-518
-513
-486
-445
-398
-358
-324
-261
-162
-70
-18
23
96
159
147
91
57
43
26
15
12
7
-3
-26
-46
-24
20
22
-3
3
24
27
35
56
64
78
110
133
144
148
134
133
154
151
138
156
178
187
196
184
157
164
193
188
149
108
86
100
130
134
110
102
117
123
114
107
103
108
119
100
62
80
134
125
83
86
88
77
98
99
71
119
174
120
97
175
130
-30
-26
73
7
-101
-59
-41
-170
-250
-206
-178
-188
-206
-240
-175
-109
-417
-938
-979
-448
-33
-143
-261
59
0
-1018
-1844
-1837
-1859
-1662
-428
763
932
931
1103
820
334
245
361
379
337
262
170
133
149
119
1
-82
-67
-89
-188
-247
-254
-216
-102
-3
57
175
265
260
341
488
490
447
516
586
638
739
766
706
702
665
518
459
500
427
303
310
312
151
21
80
112
-2
-41
74
160
149
119
132
189
235
234
224
240
264
246
185
158
165
92
-21
10
90
-40
-239
-294
-473
-902
-1179
-1155
-1120
-1151
-1130
-1089
-1087
-1074
-1020
-981
-969
-913
-858
-865
-686
-150
339
415
323
332
355
410
570
504
-1
-475
-561
-534
-625
-687
-461
-58
-268
-1212
-1432
-319
614
512
254
336
407
376
387
407
351
264
273
313
231
175
265
265
159
242
427
454
464
591
698
729
683
570
544
585
469
286
268
320
292
233
188
146
104
73
91
125
72
-14
-9
12
-37
-45
37
91
74
42
34
73
120
91
32
55
105
82
35
18
0
-14
3
10
2
33
56
12
-32
-37
-47
-44
-5
18
10
-4
-27
-69
-121
-141
-92
-68
-140
-155
-37
65
144
211
17
-434
-690
-612
-500
-483
-472
-429
-331
-202
-139
-131
-70
33
84
82
87
108
106
86
99
132
118
76
64
37
-6
2
4
-48
-54
-19
-36
-41
6
-4
-75
-106
-110
-117
-90
-45
-55
-91
-78
-42
-51
-78
-70
-57
-68
-83
-78
-53
-24
-12
-18
-28
-52
-85
-101
-96
-93
-87
-74
-67
-46
7
62
83
80
78
84
92
121
169
187
161
135
122
110
101
92
77
58
38
24
24
36
40
17
-15
-31
-74
-142
-97
75
248
474
680
456
-135
-441
-334
-253
-282
-241
-197
-233
-248
-210
-182
-174
-163
-143
-111
-72
-29
25
81
110
107
112
157
202
189
152
151
178
190
192
209
245
280
297
298
274
208
129
97
95
73
