# session 29
-4
2
-3
-3
9
17
9
-7
-15
-9
-5
-23
-55
-75
-86
-115
-143
-148
-147
-160
-169
-179
-208
-228
-215
-196
-186
-166
-132
-107
-105
-115
-111
-89
-72
-66
-62
-59
-65
-75
-84
-98
-114
-113
-89
-80
-102
-125
-140
-150
-115
-36
11
8
17
43
43
27
21
10
-11
-19
10
89
189
246
239
201
161
136
122
79
29
46
131
275
470
482
133
-244
-281
-140
-95
-100
-70
-50
-54
-35
14
60
77
81
101
119
94
33
-27
-60
-54
-29
-35
-76
-97
-87
-81
-74
-44
-15
-3
16
40
44
32
22
0
-22
-19
-4
3
-3
-20
-28
-15
-11
-24
-7
53
108
131
144
160
172
166
140
112
78
38
10
-6
-26
-39
-39
-30
-3
26
30
32
52
61
51
44
42
36
19
3
3
-8
-43
-54
-32
-29
-37
-24
-14
-31
-64
-99
-121
-114
-93
-81
-85
-93
-78
-55
-75
-123
-136
-113
-85
-36
22
26
-16
-33
-21
-7
19
45
22
-58
-142
-177
-198
-262
-266
-115
107
340
475
261
-168
-314
-161
-84
-113
-111
-124
-167
-181
-192
-198
-132
-17
64
104
124
120
119
143
158
150
151
174
196
188
152
127
131
142
138
105
54
18
10
-1
-18
-18
4
38
64
51
14
0
-4
-21
-15
5
-23
-64
-56
-48
-60
-19
97
270
480
644
720
740
673
594
675
687
294
-201
-349
-311
-352
-385
-347
-330
-355
-373
-364
-350
-355
-350
-320
-308
-309
-268
-208
-173
-148
-123
-106
-77
-22
31
45
14
-36
-69
-71
-65
-74
-83
-73
-57
-48
-34
-19
-27
-47
-55
-54
-59
-58
-38
-9
16
43
57
39
6
-27
-74
-113
-93
-45
-30
-20
25
61
69
81
94
104
115
84
15
-54
-162
-281
-222
-13
53
-60
-111
-12
131
235
279
272
244
218
200
184
167
156
149
141
140
149
145
120
102
100
96
74
46
29
17
-5
-31
-43
-46
-50
-53
-61
-73
-70
-53
-67
-108
-106
-62
-48
-52
-8
53
55
21
22
60
76
42
-5
-18
-3
-4
-42
-86
-104
-112
-135
-155
-168
-194
-203
-142
-60
-31
-26
14
57
66
58
43
22
19
28
8
-7
23
46
58
128
194
148
67
62
77
53
26
-14
-92
-150
-161
-172
-184
-174
-158
-128
-69
-29
-8
68
213
419
629
594
226
-85
-68
33
8
-24
4
15
0
-12
-56
-133
-182
-187
-192
-191
-161
-145
-169
-171
-117
-70
-80
-111
-120
-134
-208
-290
-269
-158
-95
-133
-185
-184
-157
-118
-30
103
206
250
276
300
286
234
194
185
181
166
143
108
62
15
-10
-9
-4
-5
7
48
120
183
236
362
538
629
685
764
625
195
-153
-214
-177
-165
-148
-145
-167
-178
-188
-205
-188
-149
-148
-186
-232
-284
-310
-286
-257
-259
-263
-262
-285
-305
-271
-222
-231
-278
-305
-292
-236
-157
-79
10
123
228
297
313
275
218
159
89
32
15
16
31
70
107
137
181
219
234
254
269
251
218
187
151
120
86
44
16
6
-6
-18
-23
-28
-34
-33
-13
23
38
21
4
-13
-50
-82
-85
-80
-90
-114
-133
-139
-140
-136
-126
-127
-135
-125
-111
-123
-127
-96
-68
-51
-6
45
63
50
17
-8
4
8
-60
-150
-159
-83
-10
-14
-67
-73
-24
3
11
47
68
46
37
51
51
52
79
128
178
204
186
142
104
97
127
156
138
87
42
-3
-51
-75
-77
-82
-85
-75
-50
5
56
55
22
8
20
40
37
-10
-63
-68
-53
-70
-96
-95
-108
-136
-119
-97
-103
-27
139
322
573
701
351
-178
-294
-134
-108
-153
-130
-124
-154
-170
-184
-212
-244
-256
-225
-170
-123
-80
-41
-16
-1
29
81
143
205
255
280
292
304
295
261
239
234
222
206
191
165
136
94
33
-3
15
26
3
-15
-26
-43
-48
-50
-81
-134
-190
-243
-269
-269
-288
-313
-279
-195
-115
-55
-37
-89
-145
-131
-84
-68
-71
-69
-113
-243
-322
-195
-8
5
-91
-130
-122
-103
-46
38
123
197
234
226
186
130
92
72
39
16
30
45
61
98
118
110
112
107
93
111
102
62
157
378
571
776
872
506
-87
-294
-183
-185
-262
-242
-204
-191
-163
-143
-128
-93
-65
-42
-8
-10
-38
-30
-21
-78
-144
-158
-144
-122
-89
-57
-34
-27
-48
-75
-79
-73
-69
-46
-19
-16
-27
-37
-53
-75
-87
-91
-101
-106
-99
-93
-87
-64
-24
9
33
73
140
193
209
223
259
281
259
220
191
162
126
105
104
88
44
2
-23
-51
-76
-82
-88
-94
-64
-25
-31
-55
-46
-28
-41
-75
-120
-171
-203
-189
-154
-147
-170
-206
-244
-280
-318
-320
-237
-139
-123
-138
-118
-112
-96
13
198
494
873
939
500
61
25
153
161
92
58
60
28
-56
-99
-63
-36
-48
-47
-22
-1
18
49
80
84
68
52
25
-7
-16
-15
-22
-11
23
56
97
131
116
80
71
62
38
43
70
71
60
68
67
23
-39
-83
-113
-139
-153
-157
-168
-187
-175
-120
-88
-126
-174
-174
-156
-161
-184
-191
-165
-129
-116
-127
-137
-128
-106
-64
-11
7
-2
15
31
27
41
51
51
130
247
268
241
255
260
247
273
287
224
140
84
44
11
-14
-31
-45
-70
-89
-80
-73
-73
-14
132
343
514
408
5
-314
-329
-264
-296
-327
-290
-259
-287
-302
-221
-103
-45
-35
-24
-16
-27
-30
-3
35
60
75
71
32
3
2
-16
-33
2
54
79
93
98
89
102
136
138
122
150
202
217
205
197
180
165
168
162
117
64
34
9
-29
-63
-80
-93
-119
-147
-160
-150
-128
-115
-100
-69
-47
-58
-76
-61
-9
49
81
83
71
55
45
29
-29
-89
-72
-36
-95
-166
-129
-67
-71
-75
-57
-76
-109
-118
-157
-231
-266
-270
-292
-298
-264
-246
-267
-263
-193
-113
-76
-16
133
329
534
658
501
130
-69
17
118
95
50
52
89
138
163
161
158
159
152
117
36
-42
-47
-18
-25
-36
-8
26
49
79
112
128
134
149
176
204
218
209
199
208
213
187
149
119
72
4
-61
-116
-157
-164
-150
-152
-165
-170
-190
-235
-238
-150
-47
-22
-68
-121
-150
-164
-190
-225
-237
-211
-174
-142
-104
-54
-5
38
68
77
106
170
172
86
49
75
16
-96
-131
-155
-199
-147
-37
-7
-9
52
124
146
142
145
173
218
229
173
83
13
-17
-46
-104
-139
-101
-68
-74
-19
95
232
429
471
91
-380
-457
-292
-223
-201
-136
-97
-87
-68
-72
-118
-172
-194
-162
-109
-96
-100
-73
-54
-71
-61
7
56
37
16
57
97
74
68
113
143
185
287
347
330
344
380
355
318
315
281
196
114
68
51
34
-12
-63
-88
-98
-117
-140
-151
-147
-161
-192
-187
-140
-97
-56
-36
-74
-92
-13
57
44
37
83
130
136
85
34
59
88
39
-6
-5
-36
-95
-105
-63
-15
15
38
61
52
-3
-57
-94
-122
-125
-130
-174
-195
-148
-119
-150
-168
-162
-161
-130
-84
-69
-11
131
323
620
842
560
-37
-301
-233
-243
-297
-275
-317
-407
-378
-283
-270
-303
-289
-261
-275
-278
-231
-205
-223
-203
-147
-126
-113
-72
-45
-38
-11
22
50
100
155
185
214
253
283
309
334
350
382
436
476
501
530
519
447
373
325
264
187
134
114
114
127
130
115
123
161
161
96
34
4
-26
-54
-57
-57
-74
-96
-115
-143
-170
-191
-210
-213
-189
-157
-144
-145
-115
-52
-34
-82
-113
-97
-84
-81
-50
-13
-30
-49
24
101
44
-65
-116
-185
-256
-174
-31
-51
-176
-225
-226
-250
-257
-223
-173
-119
-54
30
97
110
127
214
362
548
619
370
-33
-197
-130
-83
-59
22
69
25
-40
-62
-39
-13
-23
-54
-78
-102
-124
-112
-79
-59
-44
-14
3
-2
9
25
11
0
11
-8
-42
-35
-11
-2
20
30
-12
-59
-58
-48
-86
-151
-180
-177
-189
-220
-244
-245
-205
-134
-78
-55
-34
6
49
79
92
99
130
198
251
256
255
274
275
248
209
170
157
182
209
215
218
225
224
212
186
150
140
175
184
97
-33
-103
-100
-117
-206
-291
-284
-222
-207
-256
-292
-258
-194
-173
-185
-163
-93
-17
42
79
65
-9
-84
-89
-49
-57
-139
-217
-190
-62
46
16
-99
-130
-29
161
463
725
581
93
-206
-129
1
3
-17
-1
8
3
4
17
39
64
74
74
93
127
132
101
72
51
28
15
15
6
-12
-25
-46
-78
-87
-66
-51
-60
-51
8
63
56
44
98
168
178
139
86
45
32
17
-26
-59
-69
-93
-132
-153
-157
-159
-158
-153
-148
-135
-116
-105
-100
-89
-70
-53
-64
-110
-142
-135
-134
-159
-163
-129
-92
-57
-7
56
118
166
198
227
255
289
329
339
308
282
262
206
179
250
317
278
203
149
70
-15
-66
-130
-214
-258
-293
-359
-390
-368
-351
-353
-370
-395
-399
-438
-538
-529
-372
-186
202
793
896
267
-296
-356
-311
-332
-267
-176
-148
-122
-79
-37
26
103
149
154
146
147
147
128
88
41
2
-29
-56
-57
-10
48
61
51
84
158
227
273
297
295
280
266
257
243
214
176
130
70
12
-32
-74
-125
-170
-186
-170
-145
-143
-165
-187
-170
-91
10
102
263
507
698
790
816
751
750
943
924
388
-152
-272
-268
-335
-328
-288
-324
-349
-325
-320
-316
-281
-252
-242
-223
-204
-204
-217
-232
-251
-278
-282
-234
-181
-194
-256
-283
-261
-245
-231
-170
-85
-10
78
168
200
192
190
172
129
97
76
55
47
43
23
3
4
27
78
137
164
150
114
82
66
43
3
-36
-70
-101
-121
-137
-164
-181
-170
-136
-79
-22
6
26
55
56
25
-4
-36
-78
-83
-49
-30
-43
-50
-29
-19
-42
-71
-98
-98
-12
67
19
-39
-18
-35
-72
-6
86
92
75
104
159
202
209
186
158
131
120
150
197
202
153
84
13
-57
-109
-126
-115
-88
-61
-38
5
67
95
69
32
8
-23
-73
-113
-124
-115
-90
-69
-87
-123
-123
-103
-105
-117
-118
-109
-91
-75
-67
-52
-30
-21
-28
-31
-24
-18
-12
-2
2
4
18
23
-4
-50
-83
-79
-80
-136
-159
-53
121
339
569
549
217
4
130
281
268
248
281
267
206
170
154
123
90
63
45
45
61
75
82
97
113
97
52
13
-30
-98
-151
-156
-137
-131
-145
-163
-159
-136
-132
-147
-157
-161
-165
-167
-171
-166
-129
-68
-24
-7
11
60
123
133
63
-18
-51
-64
-91
-122
-144
-154
-148
-139
-132
-106
-60
-25
-10
9
42
77
95
72
15
-36
-51
-44
-43
-47
-36
-18
-2
31
84
122
127
100
35
-22
2
50
26
-28
-47
-54
-49
-12
28
57
92
115
117
111
75
15
-35
-78
-107
-107
-119
-139
-91
33
210
354
231
-172
-443
-378
-256
-267
-284
-246
-228
-238
-211
-140
-64
-21
-17
-27
-16
10
16
-2
-12
-14
-24
-17
24
67
94
130
197
286
372
448
516
547
524
499
494
449
355
268
202
146
118
112
96
81
116
180
194
142
76
18
-36
-71
-87
-128
-200
-251
-259
-266
-299
-335
-346
-333
-313
-299
-282
-244
-193
-146
-105
-68
-53
-59
-54
-19
52
150
198
117
-20
-87
-120
-196
-234
-159
-72
-47
-18
38
40
-22
-68
-83
-103
-123
-134
-140
-124
-65
17
80
117
160
189
200
270
415
616
861
887
427
-156
-345
-264
-246
-268
-253
-254
-265
-255
-232
-193
-164
-162
-153
-135
-147
-164
-139
-99
-76
-48
1
45
55
31
0
-4
32
73
78
57
52
74
91
82
66
66
74
74
62
34
-19
-91
-157
-188
-169
-126
-99
-88
-79
-81
-97
-106
-104
-96
-73
-43
-8
54
134
198
269
361
398
340
261
206
155
109
95
106
113
102
82
57
23
0
0
-9
-19
28
97
89
25
-1
-6
-47
-96
-127
-155
-161
-138
-124
-131
-141
-140
-120
-97
-78
-40
-21
-29
40
208
447
757
829
358
-230
-386
-257
-125
13
74
3
-56
-97
-200
-240
-155
-89
-87
-74
-66
-67
-17
67
123
157
177
173
171
190
204
198
186
162
114
58
23
19
25
19
2
-10
-7
-1
-1
-1
3
4
-9
-31
-58
-87
-109
-112
-104
-100
-89
-77
-88
-111
-123
-140
-160
-163
-163
-178
-192
-206
-230
-247
-258
-275
-275
-250
-228
-209
-175
-144
-119
-82
-51
-66
-115
-161
-179
-150
-88
-40
-30
-33
-12
43
122
194
232
246
250
225
175
135
100
54
9
-25
-10
94
262
430
556
687
930
1136
925
346
-79
-160
-170
-240
-289
-318
-370
-418
-421
-386
-349
-334
-336
-340
-322
-290
-281
-289
-256
-188
-148
-136
-98
-35
1
-16
-70
-130
-164
-159
-145
-141
-125
-99
-75
-41
2
44
75
85
90
108
119
123
142
132
72
38
71
103
113
139
165
161
171
246
349
410
400
338
253
170
103
61
48
55
76
95
81
33
26
94
167
195
210
212
172
129
123
120
116
156
221
240
218
199
168
104
23
-54
-103
-111
-110
-122
-126
-107
-86
-83
-93
-83
-51
-51
-53
24
147
289
451
413
21
-368
-408
-290
-254
-240
-204
-187
-162
-116
-76
-29
25
44
50
75
78
26
-48
-114
-165
-190
-192
-187
-176
-149
-118
-113
-130
-132
-133
-165
