# session 197
42
23
-2
-29
-60
-104
-143
-162
-185
-221
-244
-243
-247
-279
-293
-246
-202
-208
-211
-202
-206
-187
-156
-158
-141
-84
-65
-92
-102
-90
-86
-109
-141
-131
-101
-113
-149
-169
-164
-107
-56
-106
-181
-156
-102
-141
-236
-266
-226
-227
-282
-294
-278
-283
-258
-222
-250
-259
-203
-215
-283
-257
-188
-211
-278
-298
-285
-281
-285
-268
-238
-236
-215
-121
-47
-56
-45
25
70
92
131
159
160
156
131
90
81
109
128
122
113
115
119
112
112
120
118
139
185
176
162
259
423
634
870
788
282
-84
5
155
138
121
133
111
119
156
149
126
133
139
131
127
126
120
119
130
150
166
162
154
160
169
175
181
189
194
203
219
233
235
229
226
219
210
215
203
146
82
44
15
-11
-32
-71
-118
-140
-150
-173
-186
-175
-168
-175
-183
-193
-198
-207
-243
-287
-300
-293
-301
-317
-331
-342
-352
-371
-397
-388
-343
-318
-312
-282
-241
-212
-172
-125
-96
-78
-61
-50
-18
50
112
131
114
86
76
85
79
44
24
34
42
26
1
-8
-9
-29
-39
-23
-46
-73
9
139
277
518
636
315
-125
-218
-116
-114
-147
-123
-94
-85
-86
-88
-74
-54
-45
-28
-1
11
19
50
80
85
89
118
155
170
160
150
154
150
118
60
-6
-41
-24
9
21
38
84
138
180
202
197
172
144
109
63
17
-19
-45
-58
-70
-83
-75
-42
-18
-10
6
30
39
24
0
-8
9
11
-23
-49
-43
-46
-68
-85
-96
-97
-79
-76
-97
-102
-85
-77
-73
-69
-87
-112
-98
-71
-71
-53
4
31
10
-3
-3
-5
-2
-6
-25
-26
-12
-15
-25
-19
-11
-21
-37
-37
-41
-51
18
152
292
599
994
875
183
-274
-197
-85
-139
-157
-123
-120
-132
-131
-119
-104
-99
-102
-110
-110
-86
-64
-72
-85
-86
-80
-59
-37
-35
-33
-23
-24
-3
58
72
20
14
72
94
65
44
50
69
68
26
-13
-12
-19
-64
-99
-95
-91
-112
-121
-105
-104
-118
-124
-139
-161
-158
-147
-139
-97
-38
-14
1
28
53
71
62
23
33
98
99
13
-43
-32
-40
-79
-83
-53
-33
-10
24
61
119
183
195
174
171
169
141
112
108
117
109
91
83
67
36
21
3
-32
-37
-39
-63
-2
165
397
737
908
506
-103
-270
-141
-133
-170
-140
-142
-165
-141
-120
-123
-114
-97
-85
-73
-66
-63
-48
-30
-24
-22
-21
-23
-15
3
17
31
43
49
60
63
48
44
61
62
51
43
24
3
8
11
-1
-2
0
4
43
93
103
106
129
128
107
100
75
27
13
28
14
-26
-49
-61
-84
-104
-108
-113
-137
-175
-200
-195
-204
-244
-251
-228
-257
-294
-243
-170
-155
-149
-132
-132
-122
-90
-78
-70
-32
1
3
-13
-53
-101
-115
-120
-152
-175
-149
-104
-82
-82
-75
-60
-60
-53
-18
-9
-17
53
214
439
667
630
220
-128
-98
27
-4
-66
-65
-58
-60
-57
-68
-89
-83
-61
-61
-59
-24
12
31
51
68
80
110
150
166
184
252
333
365
388
455
500
449
362
299
235
164
115
72
19
-22
-61
-108
-128
-111
-95
-84
-58
-34
-29
-16
21
51
46
40
62
71
41
22
27
17
-9
-23
-38
-63
-69
-56
-52
-52
-42
-43
-56
-49
-42
-83
-155
-208
-249
-316
-394
-419
-365
-272
-185
-96
1
60
46
-27
-108
-119
-57
-30
-59
-39
14
9
1
62
133
165
189
219
210
168
195
316
471
694
837
540
-36
-297
-201
-134
-162
-165
-155
-137
-114
-138
-196
-238
-265
-277
-266
-239
-197
-166
-182
-212
-204
-180
-180
-183
-155
-116
-83
-38
12
45
72
99
109
103
95
87
89
108
115
98
66
21
-27
-55
-66
-54
-28
-45
-98
-92
-24
-13
-63
-58
-8
-9
-19
8
7
-10
21
34
-19
-59
-65
-81
-86
-68
-60
-48
-13
10
18
40
62
89
145
186
196
231
283
307
339
375
344
261
205
162
88
9
-48
-94
-131
-150
-153
-142
-123
-115
-95
-63
-82
-88
44
239
461
742
753
274
-175
-159
7
13
-31
-37
-34
-14
5
13
36
48
48
94
143
123
93
96
64
20
44
76
41
-3
-12
-22
-50
-92
-135
-155
-145
-105
-50
-36
-50
-2
86
112
107
127
110
35
-5
22
53
49
-5
-88
-130
-122
-137
-192
-235
-231
-247
-318
-329
-340
-505
-475
-215
-650
-1775
-2400
-2503
-2508
-1710
-358
105
-172
-126
83
75
114
234
258
258
286
305
356
436
472
467
499
590
668
672
652
652
627
584
579
571
522
503
525
504
474
502
501
434
417
427
411
464
431
70
-240
-62
249
290
285
413
506
528
578
617
611
604
573
479
381
313
229
127
54
12
-11
-30
-67
-104
-96
-50
-8
22
53
115
211
268
246
210
197
172
127
74
-8
-135
-286
-407
-469
-508
-541
-536
-520
-553
-597
-554
-423
-366
-475
-563
-569
-668
-680
-535
-669
-732
-354
-639
-1068
410
1593
-704
-3357
-2918
-1879
-2243
-2397
-1991
-2078
-2235
-1900
-1848
-2225
-1605
272
1520
1385
1143
1315
1348
1239
1241
1254
1252
1325
1414
1419
1369
1330
1274
1164
1067
984
847
717
670
643
611
616
624
613
629
672
700
688
673
720
811
955
1172
1153
633
57
-75
-5
-80
-178
-185
-207
-259
-283
-321
-400
-445
-435
-457
-521
-512
-418
-344
-304
-245
-189
-167
-143
-98
-64
-54
-40
4
36
21
15
46
63
74
77
30
39
133
61
-172
-194
-17
16
-69
-75
-54
-57
-41
-30
-20
-11
-52
-62
-43
-113
-85
7
-189
-173
174
-251
-545
463
-306
-3584
-3813
-364
903
-327
-311
299
-15
-181
24
-57
-121
-14
-17
-38
12
46
100
176
204
200
173
141
160
147
81
118
133
23
124
216
-88
46
504
-576
-2304
-1725
200
650
263
584
1002
829
367
16
2
173
193
120
127
136
116
132
162
168
161
163
185
209
197
163
139
121
100
89
89
84
83
88
89
92
118
153
171
180
197
220
216
173
152
201
244
218
189
208
227
222
227
243
250
265
281
286
326
357
189
-139
-241
11
251
274
286
334
314
327
362
282
289
373
212
242
526
-256
-1985
-2824
-2802
-2687
-1561
258
826
370
334
503
343
211
259
273
238
214
198
175
144
167
236
249
214
221
231
203
208
254
250
207
214
219
165
165
263
389
574
685
449
73
-86
-94
32
123
-504
-1698
-2288
-2098
-1943
-1989
-1999
-2025
-2029
-1994
-2019
-1928
-1814
-2017
-1824
-454
1006
1334
1147
1228
1332
1301
1297
1281
1236
1223
1174
1065
974
890
770
659
613
612
594
542
500
503
513
483
444
413
351
271
220
174
124
114
124
105
76
55
37
37
63
93
113
113
77
17
-50
-128
-212
-282
-322
-321
-301
-299
-284
-214
-144
-132
-120
-66
-31
-38
0
86
117
80
48
33
11
-13
-43
-78
-95
-96
-101
-115
-123
-117
-132
-172
-169
-150
-166
-109
54
213
423
617
414
-84
-275
-136
-91
-132
-79
-44
-92
-106
-69
-56
-81
-100
-83
-55
-56
-76
-73
-38
-17
-29
-17
37
62
55
75
118
157
195
213
214
218
204
187
219
250
210
175
198
200
156
140
146
117
85
91
107
119
141
152
142
124
116
121
110
73
66
119
157
135
116
123
120
147
207
184
112
156
250
240
203
215
191
139
152
208
233
219
188
194
255
273
201
131
89
31
19
26
-45
-49
27
-100
-174
70
-305
-1759
-2858
-2754
-2470
-2582
-2586
-2409
-2329
-2261
-2183
-2194
-2117
-1968
-2036
-2031
-1779
-1973
-2156
-759
1408
2109
1682
1638
1778
1610
1495
1522
1467
1379
1330
1277
1216
1167
1125
1090
1079
1075
1016
938
941
977
944
907
914
877
789
739
725
686
621
568
533
481
407
364
349
289
206
205
246
204
118
97
102
82
89
99
53
8
8
-7
-48
-76
-81
-67
-53
-69
-107
-139
-159
-164
-154
-149
-161
-169
-161
-159
-167
-168
-165
-151
-112
-79
-84
-102
-117
-138
-159
-167
-180
-209
-238
-249
-257
-283
-296
-287
-296
-307
-289
-297
-309
-221
-65
142
422
447
-26
-495
-500
-353
-368
-399
-376
-375
-367
-340
-348
-359
-335
-306
-297
-296
-288
-257
-214
-193
-180
-156
-147
-135
-83
-39
-14
42
60
65
190
229
157
343
405
109
475
846
-750
-2414
-1145
900
843
234
563
676
311
458
636
-358
-1640
-1355
-23
528
324
309
390
309
277
308
296
300
310
301
333
351
273
195
210
259
271
257
249
237
197
170
196
218
215
274
384
418
360
296
243
208
230
292
335
339
278
144
25
-74
-213
-243
-129
-136
-135
59
70
305
1269
939
-1864
-3587
-1866
134
91
-326
-185
-225
-358
-254
-179
-186
-160
-160
-147
-88
-114
-230
-301
-322
-345
-343
-292
-218
-143
-72
-9
39
54
41
34
45
57
52
37
25
6
-29
-56
-68
-91
-111
-95
-67
-66
-65
-37
5
58
122
179
243
338
433
483
494
503
512
493
451
418
396
375
362
339
289
248
227
187
128
86
70
69
54
21
24
29
-40
-91
-96
-163
-126
38
-254
-951
-1002
-303
90
-47
-119
-71
-122
-178
-177
-182
-170
-143
-120
-74
-39
-25
54
196
370
631
769
475
32
-75
31
31
-6
31
49
27
22
23
18
19
4
-12
-4
-14
-51
-59
-44
-57
-77
-71
-71
-93
-108
-117
-135
-147
-148
-151
-152
-143
-135
-145
-168
-181
-173
-158
-146
-129
-116
-108
-85
-39
7
41
68
84
100
126
137
120
111
117
107
85
70
64
64
63
61
69
82
77
72
82
85
79
78
72
56
43
20
-15
-41
-67
-93
-78
-29
0
1
-4
-2
18
34
-6
-77
-119
-140
-173
-210
-232
-245
-251
-230
-193
-188
-174
-72
76
286
609
730
367
-68
-121
2
33
52
82
57
36
47
34
18
23
9
-24
-30
-18
-25
-46
-62
-69
-64
-49
-39
-48
-61
-56
-41
-31
-20
-8
-11
-15
4
22
6
-17
-8
12
11
-6
-25
-48
-66
-72
-82
-104
-117
-95
-54
-18
3
19
33
33
16
-4
-15
-21
-28
-35
-28
-10
0
2
17
42
55
58
66
76
75
70
70
69
57
30
17
47
78
55
0
-39
-64
-76
-65
-54
-70
-89
-72
-40
-41
-60
-52
-30
-7
17
9
13
119
284
495
755
737
247
-204
-200
-64
-73
-100
-98
-125
-133
-111
-95
-77
-64
-49
0
44
47
49
65
76
93
119
127
109
91
101
129
152
173
190
191
207
247
250
207
188
192
162
133
157
181
140
62
6
2
32
40
1
-39
-45
-43
-51
-60
-63
-56
-49
-54
-67
-74
-80
-122
-183
-207
-253
-342
-268
-191
-925
-2403
-2874
-1544
-121
357
644
121
-1888
-2786
-903
1012
993
546
611
562
397
388
350
277
280
267
233
247
263
258
254
249
252
236
191
212
332
518
787
888
493
-63
-214
-102
-109
-169
-162
-183
-220
-207
-207
-244
-240
-196
-173
-127
-43
-21
-38
21
45
13
118
147
-8
213
475
-226
-950
-314
544
408
163
336
338
172
154
146
99
110
119
115
156
190
175
162
170
164
140
130
135
127
104
92
81
45
2
-32
-65
-99
-126
-157
-198
-248
-292
-299
-258
-197
-137
-79
-29
7
36
65
92
108
109
120
160
191
184
183
202
191
157
157
179
161
98
27
-39
-106
-149
-165
-180
-189
-201
-224
-189
-49
182
504
712
484
17
-168
-46
62
91
124
161
179
160
120
108
87
36
24
21
2
50
58
18
185
243
0
254
512
-585
-1336
-171
99
-1497
-1512
105
325
-229
-78
-221
-439
-88
-709
-1897
-1097
662
915
591
601
-36
-673
-166
517
533
349
363
578
295
-909
-1447
-328
561
246
337
843
-63
-1915
-2751
-2507
-2192
-2257
-2545
-1973
-82
1387
1328
954
1002
969
831
816
777
734
769
748
669
631
602
561
548
530
481
452
457
451
416
375
326
285
275
247
184
194
301
444
644
741
449
12
-80
79
168
159
117
139
144
-55
-23
327
-125
-1202
-1067
53
353
21
60
158
42
34
82
45
40
57
34
35
67
82
101
131
132
87
19
-31
-37
-27
-41
-75
-116
-164
-205
-225
-235
-241
-226
-212
-216
-213
-205
-215
-215
-190
-189
-215
-207
-170
-155
-157
-137
-97
-70
-70
-73
-52
-22
-16
-30
-50
-62
-54
-51
-76
-104
-115
-106
-62
-30
-63
-92
-72
-67
-94
-98
-90
-106
-109
-80
-74
-93
-78
-58
-67
-51
-27
-36
40
240
481
764
863
429
-175
-292
-90
-48
-94
-62
-48
-65
-49
-33
-30
-19
-13
-11
-5
-8
-2
15
18
18
32
48
63
87
111
119
122
149
194
216
213
220
223
193
156
149
150
123
68
15
-14
-25
-37
-69
-111
-125
-94
-68
-95
-130
-117
-92
-110
-137
-130
-118
-138
-163
-150
-114
-94
-86
-71
-72
-105
-119
-94
-90
-115
-113
-110
-136
-123
-59
-5
43
74
35
-14
-4
-2
-36
-53
-57
-57
-51
-66
-67
-31
-39
-61
3
60
73
235
592
998
1265
1062
372
-169
-200
-115
-167
-181
-135
-144
-152
-104
-68
-79
-109
-138
-136
-104
-98
-124
-121
-93
-87
-80
-52
-37
-38
-35
-31
-23
-8
-2
-2
10
29
41
43
41
60
97
102
65
47
53
28
-7
1
