# session 196
15
-6
-13
-11
-2
22
77
175
286
358
381
389
391
369
322
262
195
150
152
170
182
227
289
303
279
262
244
209
164
136
134
136
124
104
71
43
55
83
69
9
-55
-102
-147
-179
-159
-94
-53
-46
-23
8
11
-7
-40
-99
-163
-201
-209
-202
-187
-151
-115
-121
-126
-92
-90
-107
-22
143
343
551
502
73
-276
-231
-107
-128
-139
-102
-109
-122
-100
-84
-96
-122
-136
-123
-112
-118
-114
-100
-91
-75
-53
-44
-28
10
47
83
132
179
210
230
241
247
262
280
284
276
275
282
277
246
203
160
118
81
57
31
-2
-27
-40
-58
-79
-91
-104
-128
-141
-138
-140
-144
-135
-129
-128
-119
-118
-134
-133
-106
-100
-126
-138
-124
-121
-136
-146
-152
-164
-172
-168
-146
-121
-111
-105
-105
-130
-131
-60
18
41
64
123
156
129
93
66
33
8
2
-18
-50
-41
10
42
36
44
91
123
108
102
114
106
145
279
448
649
758
462
-96
-339
-202
-106
-139
-136
-111
-119
-118
-101
-100
-116
-130
-134
-135
-144
-152
-156
-162
-173
-201
-235
-229
-185
-155
-139
-103
-63
-42
-26
-16
-17
-14
6
30
48
57
46
21
22
43
17
-36
-33
-3
-30
-74
-59
-25
-32
-70
-91
-70
-49
-71
-87
-39
24
52
64
82
108
132
131
111
110
138
174
190
186
193
217
213
170
132
115
104
76
33
10
23
36
27
22
32
40
36
24
20
36
43
24
31
85
122
110
94
89
65
27
1
-8
-10
-10
-6
-3
-7
1
23
15
-10
7
17
-17
12
145
313
514
604
341
-77
-216
-112
-64
-83
-66
-42
-40
-25
5
17
9
27
72
92
91
111
126
116
127
163
178
184
207
226
232
253
279
289
304
298
224
137
112
73
-49
-163
-211
-269
-362
-451
-521
-519
-457
-411
-271
-104
-256
-389
-207
-832
-2344
-2558
-1328
-972
-1675
-2204
-2406
-1727
-143
576
175
168
493
395
283
401
414
347
361
401
444
490
513
530
545
534
500
490
524
525
463
460
521
484
365
306
282
248
255
279
278
312
371
368
321
295
284
258
207
155
159
209
215
163
120
104
87
63
35
11
-20
-60
-35
76
245
510
677
353
-232
-409
-217
-151
-195
-129
-50
-46
-39
-15
-8
1
19
31
35
30
26
34
43
46
44
27
0
-5
14
22
17
37
77
97
101
115
139
151
140
126
129
120
85
54
13
-41
-70
-120
-233
-280
-202
-147
-172
-178
-163
-178
-197
-204
-222
-239
-247
-262
-285
-301
-299
-286
-278
-274
-266
-264
-265
-257
-245
-241
-241
-240
-234
-218
-200
-180
-150
-127
-127
-126
-114
-110
-108
-94
-81
-83
-81
-44
18
48
26
3
12
18
0
-16
-19
-23
-29
-25
-9
-1
-2
2
5
16
37
31
29
127
291
483
753
854
481
-4
-66
113
148
113
139
152
140
157
169
156
155
166
162
158
169
173
165
168
174
161
147
147
141
133
141
135
104
96
110
103
88
92
88
62
38
28
16
-1
-14
-20
-26
-45
-63
-58
-40
-37
-39
-22
3
13
11
14
23
30
31
22
6
-14
-34
-51
-66
-82
-98
-109
-116
-126
-141
-151
-143
-130
-133
-144
-148
-152
-157
-161
-174
-177
-158
-154
-168
-161
-153
-177
-179
-128
-94
-107
-120
-111
-71
-5
12
-46
-83
-75
-91
-120
-127
-133
-132
-108
-102
-115
-100
-82
-89
-76
-49
-73
-95
-6
147
319
546
617
292
-122
-204
-99
-84
-102
-80
-71
-75
-68
-62
-51
-32
-31
-37
-29
-31
-46
-42
-32
-35
-23
1
-1
-9
19
57
73
94
124
131
123
138
171
190
181
159
145
155
169
154
132
133
133
117
104
98
99
105
97
81
77
61
49
88
125
95
56
66
86
92
103
113
112
112
102
76
64
77
80
65
58
60
60
60
56
52
57
65
57
44
43
42
33
34
48
51
40
38
39
34
52
96
116
104
92
83
68
49
13
-25
-35
-39
-58
-81
-113
-151
-179
-211
-224
-210
-256
-309
-211
-45
103
324
373
-18
-431
-461
-354
-313
-316
-354
-246
-119
-266
-150
221
-507
-2028
-2556
-2428
-2388
-1277
557
1056
608
752
908
621
911
1112
-438
-2320
-2440
-2148
-2468
-1463
828
1786
1297
1123
1290
1194
1115
1153
1084
988
958
921
882
859
799
711
669
669
637
564
514
500
480
445
389
323
296
297
266
228
202
148
115
141
129
80
83
84
44
34
27
31
81
-2
-82
172
-15
-1445
-2822
-2865
-2635
-2792
-2088
-484
411
344
295
406
362
292
293
259
208
187
164
141
126
102
82
70
51
53
89
85
52
117
272
466
771
944
570
-14
-159
-20
-36
-104
-64
-43
-62
-38
-5
5
4
-17
-39
-34
-28
-36
-33
-24
-18
-13
-14
-26
-31
-22
6
51
92
117
145
173
184
190
194
177
144
119
96
59
16
-12
-23
-36
-56
-64
-62
-75
-90
-97
-111
-127
-123
-111
-106
-104
-108
-98
-60
-28
-13
16
56
77
85
104
130
146
141
122
112
104
70
28
20
33
23
-10
-33
-34
-25
-21
-17
-14
-42
-81
-68
-26
-18
-39
-77
-131
-154
-134
-116
-89
-36
-5
3
11
-11
-51
-63
-72
-95
-118
-170
-206
-137
-10
174
464
567
229
-147
-142
3
15
19
51
10
-11
57
75
8
-30
-37
-72
-102
-82
-38
-14
-35
-95
-159
-205
-248
-281
-282
-271
-288
-297
-237
-142
-100
-120
-128
-101
-101
-124
-114
-108
-119
-76
-17
-21
-11
57
103
138
202
256
314
378
360
305
288
230
206
264
146
61
340
43
-1356
-2044
-911
307
370
187
312
350
304
348
356
311
306
303
284
280
263
209
150
104
67
53
79
116
134
180
281
363
382
383
382
358
335
335
323
276
221
200
196
167
114
58
6
-29
-63
-107
-105
-35
84
264
339
58
-372
-520
-424
-374
-390
-396
-416
-462
-522
-582
-602
-575
-559
-567
-543
-485
-459
-448
-379
-290
-260
-227
-124
-29
-4
11
66
125
160
186
207
216
225
238
222
172
143
145
118
67
40
5
-59
-81
-59
-72
-108
-106
-82
-68
-55
-50
-61
-62
-42
-13
-3
-23
-42
-24
22
66
121
237
402
509
523
563
704
844
825
594
301
136
43
-118
-253
-235
-164
-136
-116
-92
-77
-36
22
32
-3
-27
-43
-74
-91
-102
-154
-209
-201
-203
-269
-304
-282
-276
-275
-258
-261
-226
-115
-45
-33
28
90
61
42
118
161
82
2
20
64
55
14
-11
-6
20
36
26
23
54
83
71
49
58
69
58
47
53
63
69
66
58
49
45
43
36
18
5
5
4
-8
-18
-22
-22
-15
-13
-26
-37
-28
-16
-26
-42
-35
-18
-7
2
12
26
53
77
80
76
87
106
122
132
140
147
148
142
134
125
110
74
32
12
12
0
-28
-50
-59
-57
-58
-71
-94
-102
-93
-100
-125
-132
-123
-130
-146
-123
-52
-3
-31
-87
-97
-84
-103
-134
-142
-146
-165
-172
-155
-144
-157
-167
-147
-123
-142
-147
-49
115
311
518
495
127
-186
-153
-32
-42
-68
-46
-37
-36
-32
-35
-27
-11
-20
-34
-23
-31
-77
-109
-116
-138
-161
-151
-134
-141
-145
-124
-101
-84
-62
-37
-15
11
40
58
69
90
115
123
116
112
102
64
21
-3
-25
-41
-10
56
81
56
47
62
52
27
16
14
18
19
15
23
13
-50
-83
-31
2
-25
-1
76
109
111
129
148
186
238
255
247
238
210
197
228
250
250
259
258
216
154
120
135
138
95
85
132
151
143
175
235
277
277
246
251
295
309
326
418
607
872
974
673
277
204
287
291
324
378
356
365
379
300
246
105
-216
-251
-144
-844
-2029
-2528
-2417
-2011
-1000
27
205
44
176
271
164
168
227
151
234
533
246
-915
-1899
-1979
-1573
-864
317
1121
421
-1120
-1928
-1913
-1884
-1896
-1732
-1330
-537
278
465
296
409
601
498
498
803
410
-1287
-2663
-1852
165
1117
896
779
923
879
769
751
722
683
660
601
539
529
539
516
474
476
522
537
504
460
421
396
386
350
275
215
189
167
146
130
117
108
89
62
54
21
-33
24
187
372
665
893
598
1
-197
-22
49
26
64
50
-31
-41
-4
-19
-62
-67
-54
-63
-84
-95
-95
-96
-112
-127
-110
-95
-107
-91
-41
-21
-24
-2
23
38
58
73
88
109
94
54
76
136
126
88
121
162
134
107
122
112
74
61
46
9
0
23
18
-14
-2
49
48
-7
-20
33
83
92
81
63
10
-87
-177
-209
-212
-249
-316
-367
-411
-489
-568
-581
-542
-518
-553
-639
-697
-675
-649
-674
-681
-662
-670
-642
-515
-388
-318
-242
-189
-190
-141
-58
-60
-23
199
480
743
946
783
255
-55
73
208
167
184
292
346
369
411
429
432
440
414
368
342
312
262
209
167
149
129
98
110
136
109
95
117
100
84
96
58
22
58
56
-11
-39
-48
-60
-30
-39
-111
-83
28
23
-58
-36
57
47
-119
-303
-359
-344
-374
-401
-373
-351
-352
-330
-297
-262
-188
-92
-41
-29
4
45
48
33
42
62
71
78
83
77
82
109
122
108
101
122
154
171
156
117
82
82
112
123
95
73
83
104
123
121
93
108
157
125
73
161
337
509
649
554
179
-88
-57
10
-7
-13
-26
-69
-72
-44
-58
-95
-95
-72
-67
-68
-58
-57
-64
-58
-48
-52
-75
-101
-79
-17
2
-30
-46
-36
-30
-26
-18
-11
-10
-12
-10
-10
-17
-22
-39
-83
-115
-112
-113
-122
-114
-107
-117
-125
-126
-124
-110
-84
-63
-65
-72
-57
-57
-94
-118
-107
-95
-98
-99
-78
-42
-30
-36
-18
5
15
48
87
81
65
76
84
80
96
120
116
80
47
32
13
-4
7
26
27
29
53
82
96
100
97
65
6
-65
-140
-166
-109
2
149
231
51
-256
-320
-159
-73
-92
-88
-71
-82
-99
-113
-132
-148
-146
-126
-100
-52
4
23
26
69
125
147
154
166
178
191
202
205
202
185
142
88
50
39
38
35
42
45
11
-35
-58
-68
-75
-69
-59
-56
-56
-56
-61
-78
-91
-79
-59
-58
-67
-69
-80
-92
-79
-54
-41
-40
-37
-22
-8
-18
-28
2
41
64
105
145
136
103
84
66
61
99
147
140
79
25
-9
-48
-72
-45
-8
-7
-21
-29
-53
-84
-83
-69
-71
-42
7
-10
-10
142
348
569
865
908
430
-62
-87
35
-37
-144
-162
-194
-262
-289
-260
-246
-279
-305
-268
-180
-82
10
86
113
70
8
-30
-61
-82
-75
-55
-37
-21
-21
-9
47
106
129
147
166
161
154
151
121
93
97
93
66
44
5
-51
-66
-58
-73
-78
-67
-82
-100
-92
-86
-91
-110
-153
-192
-200
-198
-188
-159
-127
-100
-86
-97
-104
-74
-46
-58
-60
-21
25
41
31
19
29
56
67
49
17
-12
-34
-53
-72
-85
-92
-102
-114
-121
-120
-104
-82
-85
-103
-104
-110
-104
-16
132
333
560
525
101
-256
-229
-99
-81
-69
-31
-12
13
45
88
161
216
232
266
315
316
278
238
183
105
43
33
47
30
-12
-19
17
47
63
93
133
160
173
164
127
95
84
51
-1
-26
-37
-52
-38
-7
-12
-45
-60
-49
-40
-64
-109
-135
-128
-124
-142
-160
-160
-173
-192
-177
-156
-174
-205
-211
-197
-177
-147
-88
-23
-3
-9
6
28
45
55
48
43
50
44
59
142
223
229
203
184
152
106
73
54
28
-4
-30
-76
-145
-175
-160
-187
-234
-220
-208
-229
-168
-39
93
287
390
136
-231
-294
-160
-118
-142
-126
-84
-64
-82
-90
-68
-59
-66
-58
-46
-31
-1
17
4
-8
-3
1
5
33
79
113
108
75
71
118
141
109
117
184
198
154
154
179
150
100
79
66
45
37
38
34
39
62
74
64
63
75
70
54
48
40
37
72
125
141
138
171
217
214
178
163
161
140
115
103
87
51
20
26
44
38
35
64
74
42
36
71
82
37
-48
-122
-132
-103
-97
-118
-139
-155
-161
-172
-187
-166
-137
-146
-137
-120
-183
-200
-37
147
320
571
561
67
-362
-328
-189
-204
-220
-201
-214
-204
-168
-171
-182
-172
-178
-169
-117
-92
-110
-100
-83
-110
-127
-98
-78
-88
-84
-54
-37
-34
0
58
71
37
35
64
33
-60
-115
-110
-122
-169
-200
-207
-209
-202
-179
-165
-186
-211
-187
-152
-164
-175
-142
-121
-125
-107
-86
-79
-47
-14
-25
-38
-22
-12
3
55
99
85
44
21
-2
-45
-71
-55
-41
-47
-21
33
75
133
231
300
288
244
237
272
307
296
232
143
67
28
-11
-75
-97
-55
-17
-1
8
4
73
256
454
680
850
607
51
-200
-58
45
27
38
39
7
15
42
57
94
151
209
294
386
434
448
431
381
359
341
277
291
251
-273
-951
-820
26
554
535
498
567
579
558
541
526
516
489
476
472
422
459
517
353
366
677
126
-1448
-2338
-2074
-1854
-1962
-1934
-1809
-1751
-1807
-1801
-1577
-1692
-2009
-1004
1087
2021
1618
1466
1609
1437
1312
1317
1136
1070
1119
463
-987
-2094
-1872
-538
674
909
637
550
532
407
352
355
272
154
99
95
83
49
24
2
-43
-72
-88
-165
-246
-232
