# session 18
38
-37
236
156
-487
-878
-782
-696
-724
-681
-578
-500
-517
-594
-608
-655
-831
-872
-636
-415
-384
-380
-305
-220
-102
155
495
662
521
266
176
251
263
119
-17
-45
-55
-97
-136
-188
-239
-233
-232
-284
-260
-154
-140
-178
-141
-136
-210
-188
-66
-31
-113
-161
-113
-93
-108
67
364
421
389
632
683
71
-413
-81
231
-137
-424
-216
-161
-367
-321
-90
-24
-79
-86
-8
90
121
144
271
431
511
531
551
581
556
418
236
112
41
-35
-166
-325
-361
-255
-221
-317
-361
-297
-219
-179
-135
35
236
285
449
748
612
435
874
866
70
166
923
540
-251
-83
203
-28
-153
-136
-310
-456
-424
-430
-547
-619
-560
-491
-563
-708
-746
-684
-654
-643
-519
-281
-74
31
111
236
320
288
236
232
169
45
48
155
153
134
269
281
9
-144
-29
-17
-140
-95
65
115
51
-13
21
145
215
213
237
221
116
101
195
189
104
57
0
34
220
255
215
500
643
70
-488
-333
-26
-60
-192
-254
-274
-255
-228
-202
-245
-361
-379
-424
-598
-377
283
532
254
161
391
581
577
417
265
226
163
21
-68
-105
-165
-208
-214
-227
-243
-256
-255
-204
-190
-276
-252
-27
120
119
235
418
416
351
413
497
535
626
755
798
836
1049
1157
659
-139
-440
-287
-295
-477
-525
-490
-473
-420
-373
-399
-439
-447
-449
-450
-434
-411
-411
-430
-414
-337
-235
-152
-120
-126
-104
-62
-137
-313
-374
-307
-301
-346
-357
-389
-414
-342
-223
-114
-57
-109
-199
-321
-521
-396
321
947
858
418
162
170
306
361
276
226
230
152
109
234
363
460
613
502
-42
-409
-245
-51
-122
-172
-102
-55
-19
23
-3
-20
105
283
358
333
285
283
335
340
351
536
633
353
125
301
419
146
-168
-226
-159
-142
-151
-115
-94
-160
-216
-141
-24
-21
-64
29
195
211
81
7
38
40
-61
-191
-265
-275
-283
-322
-276
-84
2
-112
-131
-103
-345
-559
-417
-249
-187
-119
-240
-285
39
-54
-717
-723
-31
248
184
306
373
350
462
473
302
276
370
339
274
274
234
150
70
-40
-113
-92
-118
-229
-246
-139
-72
-58
-14
16
72
259
376
236
88
69
10
-57
-84
-148
-43
123
-221
-711
-477
59
133
132
417
468
48
-322
-298
-115
-32
-33
-47
-35
16
50
40
16
-38
-69
-1
10
-154
-223
-59
18
-45
71
246
160
2
-29
-99
-180
-126
-111
-186
-126
-64
-166
-101
44
-307
-845
-890
-483
207
560
-338
-1329
-595
665
593
44
113
227
51
12
203
369
430
505
533
281
-94
-219
-149
-72
15
13
-87
-65
85
210
269
220
130
142
165
131
164
193
164
233
234
22
78
516
616
220
-49
-24
9
-11
-57
-136
-156
-104
-65
-17
56
86
100
162
174
47
-63
-15
62
37
-2
-8
-90
-240
-281
-207
-227
-330
-287
-206
-351
-452
-225
1
105
317
261
-309
-566
-104
245
46
-189
-133
52
178
184
127
79
36
22
42
32
20
50
56
60
143
217
227
278
329
248
139
144
164
88
-4
-33
-87
-198
-258
-238
-211
-177
-139
-113
-76
-98
-194
-127
141
265
146
17
-55
-127
-174
-174
-136
-101
-105
-48
103
194
216
220
36
-293
-368
-153
-24
-97
-186
-203
-203
-214
-213
-227
-284
-303
-226
-92
41
86
37
-11
-117
-222
15
308
7
-387
-48
514
596
448
257
-56
-185
15
185
170
136
122
78
51
75
98
83
89
131
92
-16
-15
95
151
91
-36
-65
88
157
59
130
321
371
506
632
207
-393
-404
-135
-125
-212
-243
-209
64
381
319
70
-4
-75
-250
-231
-27
37
-17
23
125
224
341
407
404
406
357
199
43
-70
-183
-244
-277
-403
-537
-549
-559
-617
-558
-424
-425
-480
-389
-196
-62
-67
-120
-59
5
-82
-103
-87
-382
-581
-133
387
401
346
585
815
663
163
-189
-114
8
-75
-101
-12
-11
-33
30
18
-84
-61
48
54
16
45
68
59
116
224
257
228
258
325
315
236
115
-23
-71
-46
-90
-151
-99
2
35
-35
-163
-222
-194
-188
-184
-99
-11
-14
-80
-136
-115
-28
40
63
90
149
159
53
14
167
227
153
305
400
-75
-571
-445
-164
-169
-182
-160
-336
-514
-458
-333
-251
-150
-108
-82
89
115
-192
-155
475
747
336
146
476
712
639
476
297
161
119
71
-7
-28
-21
-42
-60
-70
-55
44
146
119
68
185
418
632
836
986
983
990
1093
923
325
-225
-401
-415
-458
-464
-462
-623
-911
-1004
-764
-467
-415
-567
-694
-721
-732
-763
-779
-748
-649
-487
-290
-54
173
288
300
281
236
189
161
78
-55
-95
-27
-33
-158
-216
-160
-166
-254
-269
-220
-201
-175
-93
-15
53
122
58
-58
85
192
-209
-535
-194
207
237
289
380
317
339
416
270
168
351
493
508
553
355
-135
-369
-213
-53
-30
-74
-113
-79
-45
-65
-40
-3
-42
-50
71
246
350
328
292
368
446
424
407
344
142
107
423
635
392
8
-147
-106
-38
-28
-107
-226
-249
-144
-51
-42
7
157
269
222
85
31
48
-19
-106
-78
-82
-183
-215
-220
-243
-149
-46
29
246
204
-448
-914
-584
-181
-260
-347
-257
-403
-590
-273
158
78
-142
-19
190
250
265
240
170
161
215
266
314
338
307
242
151
43
-30
-65
-97
-125
-146
-158
-130
-78
-44
-40
-106
-223
-247
-155
-101
-129
-141
-107
-76
-106
-190
-174
33
240
223
32
-107
-86
-35
-10
124
204
-91
-463
-395
-68
80
57
55
110
139
81
12
1
-44
-132
-137
-102
-135
-172
-132
-29
95
195
269
281
133
-53
-45
39
-12
-98
-111
-89
-41
-42
-99
40
312
258
-52
-96
117
243
291
355
321
166
56
59
67
24
-3
-10
-33
-50
-54
-13
97
138
197
517
646
79
-502
-383
-99
-138
-140
7
0
-101
-113
-117
-153
-126
-47
-8
-51
-104
-24
130
139
53
108
259
352
400
359
171
-4
-68
-75
-21
20
-39
-52
18
-19
-97
-58
-29
-110
-168
-135
-68
-43
-121
-269
-357
-308
-219
-269
-419
-438
-327
-241
-104
138
286
295
297
149
-323
-764
-648
-163
46
-32
45
228
239
177
155
99
38
61
112
105
84
151
261
278
240
285
393
420
314
167
94
68
-14
-132
-190
-144
-1
122
69
-52
-26
50
42
46
-8
-210
-209
122
296
147
28
-37
-205
-280
-137
16
37
-41
-86
46
216
248
313
351
6
-412
-359
-129
-130
-186
-187
-233
-253
-217
-228
-273
-255
-140
-3
24
-36
-82
-131
-171
-109
34
181
323
378
264
147
206
312
242
-6
-226
-194
41
187
141
53
4
-30
-40
-18
13
32
28
8
-29
-68
-38
49
73
0
-69
-70
-25
78
241
294
256
485
744
323
-367
-402
-163
-221
-120
-5
-569
-1065
-544
173
215
35
-3
-80
-146
-97
-37
-5
18
43
111
224
338
409
412
377
293
115
-33
-51
-106
-239
-265
-252
-324
-303
-168
-188
-306
-243
-55
22
-40
-109
-123
-162
-186
-49
49
-79
-108
-100
-483
-615
119
654
374
349
758
581
1
-124
5
-31
-33
60
28
-82
-94
-26
6
-23
-32
11
14
-26
-6
57
141
296
407
375
401
569
596
352
115
63
40
-25
-74
-264
-534
-395
89
234
-33
-237
-273
-247
-105
90
131
13
-82
-81
-49
-2
68
74
4
-12
18
9
26
115
254
438
385
-142
-627
-582
-401
-416
-361
-249
-380
-567
-502
-349
-241
-87
-57
-166
-82
-148
-720
-791
116
670
403
380
721
759
609
527
351
144
99
99
9
-67
-58
-57
-83
-68
-59
-87
-63
-6
7
63
157
133
82
161
194
59
-46
-40
-29
-46
-83
-70
93
268
346
437
374
-39
-349
-198
-39
-198
-351
-322
-299
-306
-243
-175
-154
-97
13
54
13
38
146
179
160
233
297
223
164
195
131
-60
-179
-178
-216
-324
-310
-133
-48
-156
-271
-323
-383
-390
-270
-91
40
56
63
236
456
457
258
79
50
143
242
272
214
133
154
251
417
764
923
396
-296
-364
-116
-127
-209
-113
-32
-105
-186
-97
113
177
17
-117
-113
-102
-80
-9
42
167
349
337
285
328
-36
-654
-560
57
232
78
69
2
-207
-299
-286
-323
-376
-363
-286
-165
-27
78
115
95
36
-38
-63
-16
-5
-84
-140
-162
-246
-262
-123
-36
48
244
117
-434
-687
-484
-387
-394
-253
-162
-108
39
-63
-431
-578
-542
-509
-248
105
207
269
434
497
542
670
651
492
440
413
240
75
60
50
-71
-163
-86
0
-84
-156
-80
-65
-135
-74
33
32
64
189
265
222
105
53
98
56
24
138
-28
-368
48
918
985
464
248
116
-177
-240
-126
-155
-207
-173
-145
-69
50
65
50
112
90
-47
-77
-3
5
-20
31
126
158
110
128
247
246
67
-114
-283
-439
-404
-235
-151
-111
-91
-136
-49
56
-176
-320
85
417
272
238
518
663
573
444
357
314
272
242
271
255
202
320
465
475
735
1133
802
-43
-311
-111
-153
-209
-44
-49
-225
-289
-365
-509
-518
-479
-594
-777
-904
-993
-1075
-1157
-1089
-721
-314
-215
-294
-314
-331
-362
-311
-249
-279
-321
-291
-233
-191
-149
-74
22
77
63
42
72
107
99
84
51
-64
-141
-63
-55
-188
-92
175
164
106
285
266
80
160
52
-424
-457
-158
-278
-415
-133
117
274
474
374
113
205
466
518
467
426
342
282
307
378
456
489
459
442
480
490
393
259
204
184
105
53
138
206
80
-63
4
119
91
47
77
122
196
228
149
114
67
-189
-361
-173
42
30
-92
-170
-20
276
359
309
303
16
-460
-476
-133
-36
-121
-73
-3
-21
-43
-66
-111
-137
-164
-221
-242
-201
-182
-205
-178
-83
22
113
147
111
83
55
-14
-49
-77
-127
-101
-288
-937
-1260
-655
8
54
7
139
194
294
499
456
174
48
75
-7
-108
-36
39
-18
-40
3
12
84
219
280
363
424
163
-234
-294
-134
-118
-199
-206
-165
-137
-109
-68
-121
-223
-72
71
-417
-937
-477
285
318
146
351
501
401
320
256
145
56
-22
-84
-57
-6
-38
-103
-128
-153
-187
-155
-110
-148
-141
-17
7
-105
-129
-111
-211
-261
-150
-85
-124
-195
-313
-299
-60
122
256
422
128
-496
-457
107
195
-82
-77
112
203
212
173
141
159
144
88
83
82
26
30
114
135
129
232
347
331
263
239
213
179
185
174
85
-5
-49
-111
-163
-116
-24
-4
-28
-50
-161
-320
-224
153
388
295
119
12
-51
-61
-72
-112
-73
1
3
95
305
377
350
335
110
-232
-257
-75
-65
-147
-130
-98
-127
-184
-215
-174
-85
11
102
128
43
-83
-152
-129
-92
-18
257
456
148
-158
125
462
457
475
412
63
-61
192
317
219
159
148
125
116
134
177
205
190
165
107
-14
-82
-31
-26
-132
-183
-186
-291
-338
-208
-187
-237
-31
12
-616
-1258
-1194
-822
-670
-686
-764
-787
-544
-174
-13
-39
-55
-77
-150
-176
-87
32
60
32
101
269
375
402
449
443
318
229
203
86
-61
-84
-87
-172
-229
-183
-106
-86
-126
-109
-5
-12
-146
-129
33
66
61
174
172
67
134
18
-633
-1012
-399
435
667
720
912
737
190
-34
169
269
107
-21
26
93
64
24
62
88
34
36
126
105
2
87
298
380
375
419
457
450
440
415
323
172
66
44
-49
-148
-42
-121
-677
-880
-239
310
155
-140
-168
-73
18
27
-63
-124
-118
-86
-19
36
59
140
189
98
102
245
249
307
571
422
-228
-519
-371
-417
-528
-365
-208
-227
-233
-241
-353
-457
-434
-341
-257
-131
12
-45
-184
29
466
576
369
232
269
384
445
341
170
80
26
-29
-41
-68
-126
-116
-87
-124
-117
-63
-87
-77
44
63
-54
-102
-80
-75
-49
-21
-9
14
-38
-108
25
192
193
336
508
52
-691
-716
-173
110
31
-114
-280
-430
-436
-292
-114
15
83
111
104
79
81
126
184
247
304
330
341
321
189
-4
-93
-105
-205
-359
-418
-398
-396
-401
-376
-358
-344
-296
-287
-340
-254
-36
-92
-414
-454
-165
9
53
117
20
-171
-101
141
266
369
486
499
612
796
506
-124
-317
-106
-48
-114
-94
-83
-93
-54
-37
-11
97
106
-48
-82
62
134
178
373
533
540
604
658
537
480
392
-129
-493
9
573
380
12
-39
-47
-50
74
136
31
-72
-6
188
269
178
169
269
212
51
39
58
-90
-176
-44
-69
-330
-250
175
266
76
35
-132
-516
-604
-380
-279
-311
-230
-122
-249
-398
-283
-429
-1027
-1051
-307
84
-6
142
403
449
489
570
525
423
366
301
197
109
53
-20
-129
-215
-221
-197
-253
-336
-286
-179
-186
-211
-142
-70
6
161
265
201
102
105
129
43
-82
-70
19
-21
-54
147
294
118
-6
72
-77
-394
-391
-191
-170
-229
-218
-218
-203
-107
-27
-29
-45
-38
-36
-64
-107
-112
-64
-2
58
85
37
11
90
148
95
42
37
41
43
-49
-248
-239
141
473
382
96
-29
32
175
335
398
318
215
176
145
85
53
78
83
18
-2
46
-10
-96
-9
119
281
604
601
-20
-484
-350
-205
-303
-332
-277
-261
-227
-161
-90
-39
-78
-138
-90
-34
-73
-55
84
174
145
122
176
248
273
232
138
39
-28
