# session 16
37
-266
-364
-334
-349
-415
-473
-509
-499
-484
-538
-549
-421
-320
-340
-323
-209
-134
-147
-120
-8
-7
-189
-280
-244
-297
-231
-19
-260
-750
-594
-48
114
87
220
315
164
-196
-471
-381
-116
-4
-21
25
170
239
134
28
33
48
41
19
-76
-163
-138
-104
-112
-27
153
268
250
147
15
-97
-126
-87
-154
-327
-306
-269
-717
-1063
-455
319
234
-125
-9
292
404
338
203
146
184
207
220
244
191
49
-74
-122
-130
-100
-41
-67
-148
-46
195
354
642
1093
987
187
-348
-279
-217
-318
-288
-167
-83
-36
-81
-167
-150
-59
21
48
-70
-264
-234
47
283
350
342
336
382
462
487
469
437
336
222
197
148
-15
-133
-128
-136
-214
-283
-312
-325
-338
-369
-432
-449
-352
-284
-340
-338
-230
-194
-213
-203
-223
-105
301
558
340
123
237
330
392
720
854
339
-174
-138
-12
-105
-164
-137
-143
-145
-166
-235
-205
-46
57
9
-70
-30
98
135
45
-6
53
123
165
246
312
219
36
-44
-36
-53
-93
-118
-58
80
51
-215
-406
-369
-249
-124
-35
-47
-74
-18
48
65
103
168
167
132
158
155
56
30
72
-50
-186
-77
74
194
444
379
-322
-891
-818
-628
-584
-440
-253
-193
-230
-246
-109
-27
-245
-309
2
18
-271
-134
245
356
451
654
688
635
647
594
442
261
64
-56
-65
-93
-168
-200
-208
-243
-286
-288
-229
-164
-147
-137
-126
-110
8
194
298
293
215
112
72
45
-42
-65
-46
-129
-28
455
733
473
282
364
162
-243
-281
-97
-92
-144
-85
-2
54
108
185
281
295
178
66
49
60
33
-28
-65
-31
36
92
93
-24
-166
-195
-256
-454
-537
-399
-306
-363
-371
-270
-277
-434
-380
-7
184
-13
-116
86
253
257
260
276
253
226
184
100
40
7
-69
-124
-89
-73
-58
73
159
215
588
895
449
-192
-230
-112
-294
-411
-357
-351
-304
-176
-121
-121
-140
-223
-242
-76
142
270
286
210
157
237
363
394
346
277
197
131
76
15
8
65
68
8
-4
-15
-117
-225
-273
-307
-301
-232
-236
-358
-396
-299
-296
-407
-387
-272
-309
-450
-453
-257
-23
20
-27
265
740
788
574
468
108
-401
-292
192
279
151
187
190
98
69
38
-50
-77
-39
-63
-152
-177
-120
-74
-7
103
139
148
298
457
435
377
422
425
280
103
-1
-92
-181
-176
-220
-470
-538
-104
345
302
-18
-222
-228
-109
37
126
111
2
-95
-88
9
119
155
157
305
515
522
498
628
458
-183
-615
-491
-233
-159
-248
-394
-464
-473
-529
-567
-460
-250
-140
-186
-123
60
-6
-89
263
375
-215
-415
222
612
466
447
504
373
313
327
133
-119
-145
-76
-117
-177
-159
-138
-160
-195
-191
-153
-190
-259
-122
116
125
32
72
49
-121
-194
-145
-123
-83
26
34
-64
189
794
719
-280
-812
-355
-77
-352
-415
-166
-41
-39
-7
39
67
72
96
173
237
234
205
150
91
101
106
56
98
118
-143
-347
-92
206
108
-71
-67
-98
-228
-276
-249
-297
-413
-408
-226
-122
-178
-73
157
114
11
251
489
370
176
177
331
478
408
190
122
144
54
48
183
215
376
852
879
127
-411
-227
-10
-123
-264
-305
-324
-337
-344
-310
-247
-267
-336
-318
-312
-367
-198
89
-58
-368
-70
528
669
554
602
615
439
269
198
160
120
68
-26
-145
-200
-160
-122
-125
-87
-5
20
-16
-23
8
12
-13
-43
-90
-118
-92
-92
-161
-210
-245
-316
-296
-151
-42
66
214
153
-161
-561
-951
-958
-431
-102
-264
-228
49
68
101
382
454
273
203
191
140
179
230
202
238
311
246
167
259
381
353
246
179
154
137
133
143
108
20
-19
-32
-141
-247
-272
-279
-130
-3
-359
-687
-437
-308
-353
-34
-227
-1054
-868
192
578
442
420
344
325
440
460
551
645
322
-85
-68
79
75
82
38
-141
-203
-118
-155
-239
-196
-211
-355
-361
-207
-86
-8
60
160
375
505
411
373
236
-392
-954
-848
-330
332
469
-696
-1752
-890
505
511
2
90
234
116
92
136
144
233
286
154
49
69
32
-10
56
76
74
170
151
61
243
538
677
734
543
24
-324
-289
-169
-167
-501
-1064
-1014
-115
580
441
96
87
237
301
254
142
60
60
118
241
403
491
496
481
391
206
49
-22
-60
-90
-126
-194
-272
-321
-352
-414
-512
-537
-428
-319
-325
-369
-313
-152
-64
-110
-103
-207
-739
-1076
-485
276
266
-10
124
480
733
763
727
916
946
360
-216
-211
-88
-174
-232
-191
-146
-131
-131
-83
-69
-159
-146
-6
9
-16
118
229
164
118
210
281
257
291
360
227
69
182
135
-359
-587
-261
-69
-189
-206
-168
-206
-138
-3
3
-47
-56
-72
-55
25
11
-97
-51
83
0
-167
-143
-75
-92
-103
-179
-289
-228
-120
-59
99
59
-378
-563
-250
-95
-180
-101
-38
-8
304
392
-103
-295
116
184
-188
-173
221
443
499
557
524
442
474
541
497
394
295
161
36
-4
-18
-75
-129
-154
-191
-193
-116
-57
-72
-58
12
27
-22
-12
42
35
46
87
-13
-31
254
231
-385
-670
-273
2
-33
59
161
143
202
89
-391
-674
-465
-210
-114
-32
-4
-30
14
36
-27
-20
24
-69
-202
-212
-149
-68
6
-28
-117
-41
215
430
444
300
190
182
99
-41
-31
-141
-657
-1006
-692
-230
-107
-52
162
367
426
350
217
164
180
90
-59
-21
89
14
-3
220
299
200
266
196
-262
-464
-131
105
7
19
235
267
31
-94
2
-11
-115
-53
-74
-157
239
530
-231
-944
-357
429
411
374
670
685
391
167
50
-1
23
63
106
140
113
68
68
45
-46
-130
-182
-238
-289
-315
-323
-323
-365
-448
-428
-286
-219
-224
-122
-48
-167
-210
-91
-114
-87
146
-124
-754
-465
418
535
341
629
676
260
162
299
186
44
37
-27
-93
-39
-24
-131
-199
-173
-180
-240
-237
-153
-80
-33
66
185
190
150
275
466
442
267
171
123
53
36
55
28
-44
-133
-169
-100
-15
1
-38
-136
-202
-71
156
237
196
156
85
-4
-3
68
110
127
102
-55
-201
-93
67
25
112
446
367
-292
-770
-739
-603
-557
-527
-553
-626
-631
-536
-376
-215
-106
-56
-110
-234
-169
194
565
648
414
124
201
588
732
556
443
386
202
18
-59
-107
-153
-168
-158
-155
-140
-67
-33
-142
-208
-103
-26
-11
105
192
98
5
10
-17
-91
-142
-168
-152
-104
-102
-87
106
459
743
724
353
-72
-173
-8
102
86
59
34
-27
-100
-120
-40
98
207
267
297
287
240
185
135
106
111
131
149
151
97
-1
-67
-105
-183
-305
-395
-379
-286
-239
-233
-139
-59
-150
-214
-131
-136
-212
-166
-136
-155
-31
119
149
200
268
182
5
-77
-50
-56
-124
-106
36
207
313
157
-303
-623
-506
-275
-224
-227
-176
-167
-210
-132
117
275
171
41
68
51
-64
-16
88
-97
-197
309
884
775
307
150
286
382
322
130
-55
-52
35
-52
-171
-34
148
54
-91
10
152
110
36
41
-9
-117
-164
-229
-370
-429
-450
-600
-649
-419
-241
-212
-45
156
216
309
265
-91
-266
-126
-149
-251
-133
-12
34
172
271
214
125
82
77
89
85
79
76
52
75
171
200
133
115
123
50
-19
-26
-89
-209
-220
-62
157
285
224
30
-91
-48
-14
-56
2
53
-139
-247
42
274
89
-159
-188
-132
-74
27
131
193
228
210
185
294
437
433
477
581
304
-199
-286
-64
-5
-48
-56
-127
-230
-291
-337
-357
-351
-352
-337
-305
-304
-314
-240
-43
172
273
268
285
411
568
575
336
-27
-219
-74
181
237
136
45
-38
-114
-150
-176
-152
-66
-103
-221
-122
46
-58
-169
-26
7
-155
-89
138
155
74
63
4
-9
163
306
346
494
547
121
-495
-693
-406
-26
101
-55
-267
-362
-363
-297
-188
-157
-243
-317
-322
-286
-165
13
120
197
329
370
261
179
166
128
66
-45
-209
-273
-223
-273
-419
-449
-401
-453
-517
-458
-369
-256
-27
85
-84
-170
24
237
309
192
-34
-18
217
296
328
489
500
401
485
549
499
576
462
-110
-498
-365
-222
-243
-199
-151
-189
-211
-144
-23
37
19
81
192
176
104
143
231
211
154
250
354
217
166
525
772
455
29
-53
51
148
213
129
-84
-154
-45
0
-36
2
75
150
273
313
203
128
110
46
-11
-92
-189
-119
-55
-185
-178
-124
-542
-999
-804
-400
-311
-280
-192
-185
-180
-224
-327
-173
115
41
-204
-129
130
283
370
409
377
378
415
362
259
207
144
18
-98
-201
-307
-289
-167
-178
-291
-245
-126
-150
-154
16
135
62
-45
-88
-103
-72
-25
-34
-26
41
-2
-173
-206
-69
-36
-178
-315
-323
-192
-48
15
119
269
326
409
514
259
-228
-321
-72
5
-50
-10
-34
-200
-301
-301
-323
-360
-352
-299
-259
-289
-320
-273
-199
-99
72
222
329
444
428
294
367
607
624
389
135
-34
-18
186
333
296
211
155
113
108
100
38
44
171
200
58
21
144
115
-41
-10
82
33
57
184
189
161
175
180
390
639
346
-192
-256
-107
-166
-146
-11
-98
-251
-209
-206
-392
-505
-430
-353
-346
-305
-213
-131
-51
58
224
446
590
552
469
412
230
-36
-172
-172
-173
-232
-316
-351
-357
-405
-445
-435
-425
-392
-284
-62
253
505
655
794
794
736
965
1078
526
-98
-200
-138
-100
20
-9
-213
-309
-327
-417
-524
-602
-670
-750
-880
-1018
-1090
-1124
-1116
-974
-749
-565
-394
-197
-14
172
348
386
276
177
134
52
-32
35
173
185
184
322
369
204
114
197
254
266
306
312
275
267
283
304
357
448
559
640
630
566
538
520
460
381
275
131
19
-40
-35
73
119
59
192
317
-133
-739
-715
-370
-318
-456
-486
-296
69
248
0
-298
-221
40
126
87
97
99
36
-16
-9
56
128
106
24
9
6
-58
-86
-73
-100
-84
4
17
-36
-41
-46
-97
-116
-87
-67
-61
-22
61
149
126
-89
-314
-236
80
245
116
-81
-102
26
78
75
225
380
345
339
358
112
-135
-10
194
188
135
145
172
143
-3
-147
-202
-308
-423
-337
-187
-214
-266
-196
-213
-404
-503
-363
-141
68
246
189
-70
1
465
619
245
-129
-235
-178
-40
61
47
11
7
-22
-67
-77
-59
-35
-34
-107
-187
-128
-45
-144
-269
-201
-123
-212
-222
39
284
333
497
738
461
-192
-403
-239
-232
-181
-105
-457
-681
-147
297
15
-267
-208
-226
-263
-74
117
161
207
289
330
387
506
568
528
527
548
394
160
92
43
-169
-300
-233
-215
-290
-324
-363
-431
-472
-504
-462
-269
-87
-82
-101
16
35
-203
-261
67
219
-22
-170
-26
221
436
558
698
820
511
-128
-382
-164
-55
-202
-250
-103
-58
-206
-243
-121
-133
-238
-186
-118
-195
-196
-52
2
44
364
748
769
549
431
347
179
2
-207
-327
-70
310
279
-33
-195
-169
-82
-26
-72
-128
-88
3
121
228
178
53
74
150
159
253
386
379
413
514
268
-275
-529
-389
-287
-390
-518
-578
-567
-424
-261
-278
-354
-290
-151
-5
140
226
368
593
564
259
160
390
589
578
451
293
159
66
-32
-134
-157
-100
-94
-174
-204
-133
-88
-127
-148
-95
-47
-57
-26
99
151
44
-34
5
15
-9
71
151
68
-25
-24
-138
-287
-126
152
165
57
-46
-196
-189
-100
-339
-664
-596
-382
-357
-370
-315
-260
-191
-134
-143
-149
-116
-118
-151
-176
-206
-211
-174
-150
-90
37
98
81
125
191
164
49
-127
-291
-292
-129
-27
-85
-63
204
459
463
283
42
-47
196
471
443
322
316
271
151
86
70
59
60
56
37
1
-6
125
263
198
232
619
755
231
-259
-209
-60
-101
-118
-76
-79
-85
-89
-124
-110
-54
-69
-75
87
265
215
59
35
80
108
195
322
375
353
291
184
63
-21
-39
-5
19
20
54
84
21
-73
-109
-133
-172
-164
-99
-44
-82
-234
-388
-473
-574
-657
-568
-363
-227
-193
-192
-155
-41
197
604
866
490
-240
-494
-243
-39
40
126
121
41
6
-20
-47
-23
-29
-143
-234
-182
-103
-124
-122
-17
31
25
153
288
223
123
88
3
1
140
105
-96
-135
-112
-212
-269
-314
-439
-292
168
329
41
-171
-117
-14
60
123
132
98
80
94
132
185
213
200
259
433
540
605
778
678
48
-412
-268
-100
-214
-280
-254
-301
-340
-338
-413
-524
-517
-405
-299
-187
-88
-144
-213
53
499
649
485
263
51
-67
8
116
100
19
-66
-166
-235
-258
-297
-351
-335
-256
-219
-250
-259
-186
-86
-27
-4
13
34
80
150
179
152
123
90
77
208
413
515
653
857
670
68
-227
27
294
274
150
28
-82
-77
36
87
65
89
100
8
-37
76
199
249
331
439
459
426
414
366
227
39
-155
-384
-679
-922
-925
-752
-654
-685
-684
-583
-489
-438
-333
-165
24
271
533
794
1187
1560
1533
1120
539
-59
-366
-289
-204
-282
-351
-380
-417
-442
-512
-652
-759
-764
-695
-628
-638
-682
-638
-501
-356
-240
-109
77
289
463
579
618
538
410
402
434
300
206
309
152
-267
-154
422
570
308
169
53
-169
-258
-203
-156
-119
-114
-148
-116
-31
21
104
207
208
195
283
306
156
17
-14
-35
-55
-14
