# session 17
-40
-151
-239
-3
416
517
291
105
123
263
356
330
297
361
434
404
336
339
397
445
433
364
315
266
108
-59
-77
-80
-173
-205
-167
-189
-207
-132
-12
127
214
131
-1
24
118
100
38
51
115
179
219
189
96
-28
-165
-146
129
331
270
257
239
-129
-444
-239
32
-26
-80
54
122
9
-82
-22
-17
-205
-305
-169
-118
-229
-193
-50
-54
-62
88
181
100
51
157
216
52
-132
-190
-333
-439
-141
181
17
-206
-42
182
195
134
75
28
25
21
14
52
69
7
-80
-145
-151
-97
-107
-195
-209
-166
-120
-3
100
243
674
951
455
-260
-377
-165
-133
-188
-177
-183
-273
-339
-225
6
144
144
53
-109
-228
-176
-10
113
141
156
246
351
368
338
323
273
185
101
-8
-88
-59
-59
-170
-240
-254
-305
-305
-199
-136
-214
-314
-262
-101
-51
-110
-98
-29
21
91
124
119
273
525
584
461
287
116
161
363
219
-242
-420
-263
-181
-219
-213
-188
-207
-231
-203
-118
-62
-109
-180
-148
-70
-39
37
201
302
321
347
297
168
183
314
290
140
80
48
-110
-216
17
419
475
82
-307
-386
-326
-321
-307
-227
-169
-180
-222
-242
-201
-118
-30
71
161
188
118
-25
-91
-6
21
8
272
491
41
-626
-680
-392
-359
-412
-308
-220
-184
-81
-41
-153
-219
-246
-377
-306
103
303
159
212
490
618
659
732
681
521
409
297
117
-5
-8
-31
-139
-216
-231
-272
-318
-276
-184
-157
-188
-166
-73
1
37
116
243
280
183
134
189
170
90
21
-151
-158
379
900
750
360
147
-139
-377
-245
-60
-147
-270
-236
-157
-84
6
36
-15
-18
45
34
-38
-24
34
10
4
97
110
-2
-26
41
-6
-140
-229
-339
-514
-584
-469
-356
-358
-351
-383
-582
-598
-149
221
68
-117
107
444
566
548
507
422
298
216
198
178
146
109
37
34
156
225
337
717
859
295
-273
-189
69
20
-148
-234
-262
-283
-316
-276
-129
-38
-75
-118
-131
-124
-3
216
349
334
281
257
244
240
233
184
89
5
-40
-75
-91
-48
17
39
38
35
-6
-53
-59
-98
-181
-168
-50
-21
-140
-198
-106
-139
-403
-511
-297
-119
-136
-73
176
334
289
334
482
284
-197
-363
-239
-302
-453
-375
-201
-135
-154
-228
-321
-331
-268
-233
-238
-229
-200
-186
-171
-94
23
122
199
228
204
187
144
45
9
42
46
109
248
277
187
100
26
-10
-92
-327
-373
55
498
510
294
106
-36
-79
5
100
57
-98
-126
-2
39
47
209
407
581
710
439
-149
-366
-190
-175
-255
-187
-222
-408
-422
-311
-344
-417
-372
-345
-341
-164
37
42
139
358
221
-15
151
118
-358
-387
27
118
74
200
190
123
215
148
-125
-172
-26
-53
-151
-67
65
73
19
-3
20
6
-70
-68
15
7
-49
-10
79
206
433
667
775
659
244
-206
-233
63
93
-169
-95
380
557
247
-16
11
108
156
187
183
135
116
181
284
392
532
663
696
638
552
448
325
215
124
20
-70
-89
-79
-122
-213
-291
-324
-331
-316
-241
-177
-206
-168
16
90
40
120
205
46
-163
-257
-418
-630
-588
-325
-207
-240
-162
-71
-42
206
397
-108
-882
-1056
-855
-843
-852
-722
-701
-778
-712
-540
-419
-369
-349
-281
-132
-24
-9
14
42
48
140
285
311
291
308
195
28
126
343
311
125
5
-91
-155
-102
-20
-19
-55
-58
-40
-36
21
183
301
257
206
251
271
238
209
144
73
53
-27
-136
-17
214
229
212
320
120
-385
-507
-200
9
93
188
157
114
247
351
286
163
-1
-97
86
360
413
334
309
310
312
366
444
454
379
294
218
107
-17
-99
-142
-162
-140
-101
-98
-108
-90
-84
-69
60
218
247
239
247
134
-8
-41
-156
-306
-101
263
250
18
-75
-159
-214
-11
224
261
271
162
-261
-579
-421
-137
-65
-73
-55
-76
-87
-45
-70
-190
-257
-213
-127
-74
-127
-248
-293
-268
-233
-81
185
320
264
217
188
21
-115
27
106
-259
-627
-517
-265
-193
-132
-28
48
141
160
42
-42
-36
-26
-23
-83
-209
-233
-150
-158
-258
-270
-211
-232
-234
-29
192
246
380
519
200
-236
-107
219
139
-16
37
6
-49
61
-6
-217
-15
375
291
-34
-62
102
216
295
311
268
274
308
306
336
380
317
186
115
108
79
6
-33
-39
-137
-276
-258
-158
-174
-271
-377
-492
-525
-415
-286
-272
-342
-333
-207
-151
-191
-70
164
127
-140
-200
-94
-96
80
548
595
29
-310
-143
-48
-140
-126
-85
-147
-151
-74
-83
-132
-62
37
53
69
110
147
257
393
436
465
510
477
440
448
386
290
227
124
23
-75
-316
-461
-160
235
237
42
-30
-48
-69
-22
54
97
125
124
72
47
99
149
160
182
209
197
136
35
10
147
260
246
272
210
-201
-603
-546
-304
-246
-260
-235
-289
-359
-251
-76
-53
-50
54
18
-148
-109
5
-137
-279
-94
193
292
227
85
-64
-117
-85
-101
-195
-266
-296
-342
-363
-323
-305
-327
-309
-248
-185
-125
-65
-20
9
51
142
232
217
158
165
130
15
10
-56
-426
-507
158
739
594
334
282
-22
-426
-363
-50
33
-41
-97
-128
-57
83
140
153
186
138
48
61
107
77
65
141
222
265
315
337
265
156
70
-40
-179
-260
-280
-283
-223
-137
-151
-142
-9
-77
-411
-485
-157
123
180
218
322
391
329
213
149
78
3
18
40
16
26
-6
-67
23
140
177
337
387
-69
-536
-406
-88
-117
-251
-125
97
137
87
84
-25
-174
-97
-125
-504
-469
273
717
472
298
443
527
520
523
428
242
107
37
-7
2
41
40
32
56
43
-28
-74
-48
15
32
-50
-138
-150
-186
-280
-307
-292
-375
-496
-467
-277
-80
53
228
434
358
-192
-774
-707
-98
204
-50
-246
-93
89
120
96
64
-11
-133
-232
-230
-183
-184
-193
-150
-83
6
95
97
51
53
36
-50
-96
-89
-90
-75
-66
-121
-188
-180
-79
47
89
42
-64
-237
-280
-23
242
251
206
206
93
-39
-25
8
-13
33
115
107
85
175
276
291
352
461
465
558
786
540
-208
-528
-279
-205
-325
-248
-151
-187
-180
-156
-215
-312
-440
-553
-539
-419
-262
-68
175
443
639
653
495
298
250
376
447
360
274
224
116
6
-40
-76
-113
-110
-120
-181
-170
-57
-26
-94
-82
-43
-88
-97
-55
-76
-96
-60
-46
-47
-62
-71
24
101
97
246
294
-151
-447
-68
256
100
-3
61
-26
-153
-128
-72
-92
-139
-161
-144
-73
26
83
94
126
196
264
306
305
269
274
332
284
76
-61
-54
-120
-248
-248
-220
-309
-418
-493
-528
-393
-194
-214
-252
-84
-213
-744
-783
-186
157
126
271
506
464
305
362
525
516
458
450
182
-267
-366
-145
-58
-159
-236
-229
-204
-223
-258
-222
-120
-49
-50
-34
71
166
147
128
264
435
406
276
294
297
65
-42
265
509
279
-70
-140
-54
-31
-50
-55
-82
-134
-139
-75
-9
22
43
40
14
35
76
59
93
226
224
-6
-219
-256
-209
-188
-207
-192
-148
-190
-270
-260
-184
9
302
268
-219
-588
-496
-173
133
249
80
-148
-131
113
318
310
175
76
34
-2
-24
2
70
145
178
154
133
154
176
163
103
29
30
101
112
36
-24
-45
-104
-170
-132
-46
6
75
-36
-488
-713
-309
149
250
250
200
17
-108
-82
-29
-5
13
17
-23
-36
105
277
307
334
330
28
-317
-295
-140
-155
-207
-216
-233
-222
-200
-203
-148
-27
-2
-100
-189
-347
-489
-121
319
-207
-846
-351
118
-175
139
927
730
75
47
248
241
192
118
46
69
59
-41
-99
-79
-48
-24
3
23
34
72
126
87
-28
-39
42
66
84
172
187
95
110
265
327
334
515
575
82
-507
-491
-106
73
45
-7
-72
-120
-127
-119
-80
-81
-189
-230
-84
39
1
12
203
371
363
328
411
502
454
310
155
-34
-220
-309
-359
-424
-433
-430
-515
-594
-537
-413
-342
-302
-253
-319
-521
-470
56
584
646
403
157
10
3
87
183
288
297
162
111
207
272
342
358
30
-409
-461
-270
-183
-162
-146
-163
-149
-107
-129
-192
-158
-17
55
36
135
315
328
217
177
228
311
367
355
335
325
217
16
-142
-213
-220
-183
-175
-216
-214
-169
-147
-109
-50
-42
-27
56
107
97
122
154
103
13
-41
-81
-155
-220
-164
-49
-66
-101
62
183
78
31
28
-249
-576
-579
-361
-104
123
219
194
104
-27
-52
104
253
274
228
146
63
53
111
164
178
174
194
240
250
190
141
161
118
-49
-155
-149
-194
-240
-170
-122
-89
90
170
-26
-48
104
-268
-864
-662
63
377
322
246
83
-95
-112
-64
-49
-50
-85
-93
21
124
130
231
335
85
-305
-343
-159
-111
-156
-167
-179
-214
-274
-316
-243
-119
-106
-138
-61
100
215
130
-175
-355
-290
-413
-670
-422
243
708
846
741
437
152
-16
-84
27
190
155
17
-9
29
13
-37
-61
-48
5
71
78
30
22
33
-25
-68
-2
66
89
171
255
260
309
382
396
509
564
154
-342
-303
-67
-116
-185
-50
79
60
-77
-213
-174
-9
86
116
129
54
-56
-49
76
217
315
379
403
375
369
371
203
-61
-115
-42
-147
-326
-350
-355
-480
-582
-581
-569
-545
-449
-378
-387
-287
-130
-298
-512
-125
411
339
85
117
75
-31
93
183
182
405
571
391
265
206
-219
-635
-486
-185
-214
-304
-230
-201
-284
-296
-218
-182
-184
-173
-199
-217
-65
228
467
564
559
497
416
379
330
136
-19
181
482
393
22
-225
-255
-186
-119
-99
-109
-151
-209
-193
-119
-71
20
187
271
222
157
118
78
17
-38
-2
72
8
-126
-133
-51
-18
18
212
417
162
-515
-860
-570
-178
-49
-59
-93
-139
-102
108
357
340
62
-67
128
350
392
355
328
295
266
265
269
262
266
263
186
40
-79
-132
-150
-159
-181
-196
-163
-124
-101
-24
35
-51
-141
-84
-12
-8
28
53
-22
-101
-123
-165
-188
-87
72
94
-101
-290
-186
52
117
145
207
-28
-444
-474
-157
-14
-96
-80
25
10
-23
46
35
-35
21
14
-187
-276
-145
-28
20
106
209
242
199
103
-102
-304
-213
-9
-146
-338
-141
61
-13
-14
70
-11
-68
37
109
94
97
108
112
136
153
125
64
-17
-99
-148
-184
-242
-255
-199
-208
-247
-86
162
264
433
658
398
-200
-344
-85
-17
-88
-49
-44
-115
-82
44
116
115
83
-9
-173
-251
-111
85
154
204
312
340
278
295
419
488
392
241
209
243
180
64
19
8
-38
-89
-141
-207
-228
-193
-182
-200
-190
-236
-387
-432
-263
-130
-176
-191
-68
-43
-215
-262
38
428
567
470
430
553
473
45
-189
11
135
-21
-128
-109
-119
-158
-187
-202
-176
-162
-214
-240
-165
-83
-81
-119
-109
18
195
257
224
279
405
397
240
102
38
-26
-112
-165
-155
-148
-222
-297
-252
-194
-274
-362
-295
-170
-102
-43
7
-7
-43
-40
-9
40
87
98
132
210
217
185
241
301
382
589
536
-50
-554
-483
-238
-177
-143
-54
-34
-141
-325
-476
-531
-493
-326
-138
-182
-254
118
687
846
621
368
216
238
391
445
350
228
101
-15
-42
-29
-61
-90
-97
-146
-151
-40
9
-50
-35
-20
-96
-22
172
122
-62
-22
85
23
-53
-57
-54
-22
-34
-74
55
95
-177
-173
215
160
-326
-461
-294
-253
-248
-187
-177
-182
-169
-182
-155
-58
11
47
114
185
216
236
250
250
268
306
299
248
219
153
-29
-229
-334
-376
-375
-316
-253
-198
-142
-165
-177
-52
-59
-253
-199
-63
-240
-214
204
292
91
181
363
391
425
366
192
113
30
-53
115
306
326
462
449
-140
-631
-442
-188
-276
-311
-181
-117
-97
-51
-45
-21
98
179
143
84
26
29
184
254
193
417
587
21
-498
-107
280
-24
-275
-167
-126
-159
-148
-187
-193
-90
-24
-40
-46
-36
-24
12
31
4
-5
21
47
42
-39
-98
-15
68
106
270
264
-230
-659
-511
-184
-107
-153
-84
25
-75
-194
-99
-272
-672
-314
530
597
186
262
535
581
630
667
542
447
456
402
252
105
34
32
22
-18
-59
-114
-141
-72
-20
-114
-181
-28
145
96
-3
70
163
87
-43
-48
52
127
101
21
-22
-33
-44
-3
75
88
36
-59
-222
-298
-164
-30
26
138
53
-383
-623
-389
-183
-240
-246
-120
-77
-132
-133
-75
-99
-243
-369
-383
-349
-363
-416
-401
-266
-121
-76
-66
-5
30
-60
-204
-284
-381
-587
-628
-191
404
560
359
275
273
142
104
264
310
173
114
185
237
217
164
103
50
49
76
6
-92
-11
114
88
125
275
341
539
879
681
-32
-330
-88
40
-20
13
71
51
41
69
106
161
189
108
-30
-104
-133
-171
-115
81
242
267
275
322
318
238
145
76
59
90
64
-55
-112
-48
-26
-102
-121
-63
-103
-260
-345
-252
-87
-9
-28
-47
-59
-118
-184
-269
-373
-272
-111
-385
-596
-122
-16
-707
-582
343
223
-550
-466
-23
-23
-75
7
-10
-103
-194
-230
-167
-112
-112
-69
-22
-51
-46
62
122
98
179
376
476
447
401
298
161
181
299
247
69
-19
-51
-96
-26
151
180
26
-62
-25
-19
-53
-14
106
