# session 45
20
64
86
205
274
226
373
619
526
299
339
434
371
345
437
512
534
527
493
479
502
512
503
499
475
421
364
310
262
237
227
223
222
199
150
117
118
138
169
185
145
83
68
81
51
0
-1
15
7
18
0
-93
-83
59
84
16
-45
-317
-676
-626
-301
-211
-294
-264
-186
-198
-252
-259
-223
-209
-208
-175
-128
-82
-13
74
204
373
462
450
437
389
260
134
29
-62
-102
-161
-239
-215
-241
-458
-499
-192
-16
-133
-134
42
109
69
38
-12
-36
-6
-18
-37
34
87
22
-26
69
202
234
323
546
436
-149
-464
-198
14
-88
-155
-94
-34
-25
-91
-130
-57
-21
-90
-102
-46
-70
-96
59
248
231
151
193
179
21
-88
-142
-235
-245
-171
-213
-294
-261
-275
-366
-315
-233
-329
-383
-227
-105
-124
-110
-55
-89
-158
-124
-37
-33
-69
-56
-54
-28
135
287
374
576
612
143
-281
-150
92
74
37
82
89
78
71
44
56
111
132
112
122
185
245
273
306
342
357
386
404
342
250
169
64
-22
-58
-110
-150
-126
-121
-154
-153
-123
-97
-82
-86
-67
-10
-3
-68
-125
-158
-196
-243
-300
-328
-276
-231
-251
-158
59
125
107
210
86
-381
-541
-254
-134
-243
-191
-60
-70
-107
-66
-40
-67
-65
-16
19
66
160
202
183
272
446
500
435
387
362
315
238
138
66
57
56
28
10
4
-1
15
44
51
26
5
52
169
228
159
88
87
53
-10
39
171
211
134
153
383
646
845
1038
925
298
-275
-349
-271
-298
-292
-270
-291
-297
-334
-408
-409
-396
-475
-537
-506
-479
-499
-488
-403
-281
-196
-162
-110
-52
-94
-167
-122
-61
-125
-173
-88
-28
-92
-181
-209
-171
-106
-91
-91
-54
-66
-79
73
222
110
-118
-254
-385
-580
-635
-373
-14
107
52
36
43
50
119
165
117
103
177
250
318
400
453
527
629
617
547
540
426
183
94
135
81
53
155
177
90
89
149
146
125
127
99
69
66
15
-84
-121
-86
-75
-140
-215
-194
-107
-92
-121
-87
-65
-126
-156
-124
-116
-114
-125
-172
-96
106
242
423
640
389
-264
-551
-370
-222
-196
-171
-192
-220
-192
-166
-157
-125
-85
-69
-68
-54
6
104
207
302
378
417
417
380
293
173
86
74
63
-9
-58
-46
-74
-130
-103
-37
-49
-105
-69
64
131
84
48
24
-62
-129
-111
-81
-84
-110
-148
-163
-108
19
115
148
269
351
27
-465
-535
-303
-226
-266
-255
-258
-270
-234
-203
-188
-138
-78
-41
-8
17
30
81
193
287
316
333
338
263
177
150
82
-31
-58
-43
-78
-113
-144
-176
-147
-110
-108
-34
79
107
123
179
187
198
331
523
626
627
708
1006
1288
1164
615
27
-273
-318
-332
-410
-449
-396
-366
-411
-447
-497
-624
-689
-627
-626
-715
-746
-732
-683
-498
-249
-110
-46
74
223
236
111
57
23
-232
-447
-262
-5
-34
-117
-60
31
110
169
186
228
245
158
118
175
158
120
171
158
69
89
127
52
30
106
78
-7
88
260
262
286
555
627
141
-333
-276
-44
1
-28
-54
-101
-95
-82
-178
-237
-99
52
64
99
192
191
200
347
446
417
426
458
390
284
207
98
-31
-71
-29
-60
-163
-178
-138
-155
-106
24
14
-70
16
150
103
-29
-75
-56
-50
-88
-161
-209
-182
-159
-189
-137
-1
33
9
10
-174
-503
-576
-373
-215
-186
-206
-251
-276
-232
-157
-136
-179
-195
-140
-90
-58
26
123
165
237
357
388
361
391
348
143
-31
-69
-87
-144
-188
-174
-129
-121
-135
-85
13
58
33
27
99
169
144
87
100
128
93
66
93
96
71
77
86
109
186
318
603
919
743
72
-357
-289
-176
-209
-228
-204
-211
-240
-218
-127
-79
-126
-143
-72
-16
-1
23
62
126
220
266
225
158
98
14
-82
-141
-169
-190
-198
-190
-191
-213
-242
-228
-142
-81
-141
-202
-117
-3
-14
-47
-16
-37
-122
-141
-88
-22
14
-40
-68
80
223
237
285
250
-44
-247
-114
56
65
58
89
73
20
11
44
47
37
76
113
90
107
219
297
280
278
341
378
349
297
228
120
4
-92
-173
-208
-186
-170
-203
-251
-242
-159
-122
-159
-87
23
-113
-332
-304
-193
-215
-238
-207
-226
-258
-223
-171
-163
-115
65
234
241
146
-59
-381
-524
-337
-150
-175
-222
-184
-172
-216
-231
-164
-66
-20
-5
41
102
168
243
339
473
517
449
525
511
-55
-552
-254
166
71
-48
55
56
-15
12
40
37
93
137
74
84
289
375
201
145
261
210
105
176
221
203
283
299
228
355
548
573
636
668
332
-71
-79
85
100
60
57
33
4
5
6
5
24
30
26
71
142
193
264
322
286
194
44
-239
-518
-613
-628
-696
-758
-795
-871
-899
-775
-644
-689
-788
-713
-532
-429
-348
-208
-109
-44
110
274
366
506
688
825
1035
1190
863
202
-185
-226
-254
-315
-321
-317
-328
-321
-314
-343
-383
-392
-389
-428
-453
-387
-345
-379
-290
-49
127
240
384
427
314
215
182
149
130
117
99
131
175
141
109
156
160
80
45
57
19
-25
-24
-54
-98
-50
40
47
15
51
91
39
-12
21
25
-21
-7
-2
-29
78
239
314
477
583
195
-355
-403
-157
-111
-167
-129
-88
-101
-111
-91
-59
-49
-27
53
113
96
101
178
256
320
388
419
390
336
277
207
129
45
-36
-69
-37
-26
-90
-124
-61
-13
-44
-48
19
68
65
50
31
27
66
99
101
92
42
30
104
47
0
308
398
-204
-602
-372
-333
-510
-322
-86
-136
-162
-143
-211
-168
-44
-82
-140
-41
18
-61
-81
2
67
164
345
431
378
407
464
296
51
-1
-13
-140
-207
-156
-142
-179
-203
-200
-130
-80
-178
-197
-58
-213
-610
-557
-122
25
-74
-53
-38
-108
-26
97
-38
-120
198
437
327
352
385
-76
-469
-240
11
-99
-172
-81
-25
-26
-32
-19
16
29
47
100
133
157
212
253
306
403
429
334
216
134
68
-52
-226
-295
-238
-245
-316
-312
-282
-256
-156
-99
-194
-234
-109
-24
-53
-66
-73
-124
-132
-62
-45
-109
-74
36
-2
-24
191
342
364
574
605
54
-384
-213
7
-26
-37
-15
-47
-7
81
89
68
96
127
122
119
162
240
313
370
410
425
428
409
328
220
148
93
35
3
-19
-63
-84
-62
-69
-114
-120
-95
-109
-117
-57
-4
-21
-58
-87
-126
-151
-158
-191
-225
-189
-166
-231
-213
-61
-14
-100
-190
-390
-620
-539
-257
-158
-228
-259
-231
-196
-185
-196
-196
-168
-130
-107
-110
-90
-9
85
142
175
220
286
333
303
185
33
-73
-95
-82
-96
-100
-52
-17
-30
-29
9
40
45
39
46
79
106
86
48
30
14
4
31
45
24
31
33
12
76
194
350
660
775
254
-359
-333
-8
72
76
157
140
100
157
141
114
225
86
-368
-406
53
289
237
281
361
362
370
346
248
160
83
-15
-92
-124
-153
-197
-216
-205
-193
-168
-140
-176
-219
-142
-15
16
-23
-54
-73
-74
-48
-33
-33
6
34
-10
42
250
343
326
413
249
-385
-730
-345
63
2
-131
-56
10
-33
-50
-15
21
74
98
81
132
233
279
321
401
460
482
444
358
350
356
177
-35
-53
-35
-92
-85
-43
-73
-91
-83
-147
-211
-144
-61
-133
-239
-202
-157
-244
-322
-313
-341
-401
-354
-246
-255
-298
-184
-24
60
159
60
-430
-781
-621
-447
-544
-572
-466
-422
-399
-349
-338
-352
-370
-364
-289
-205
-182
-175
-122
-19
30
-18
-1
14
-246
-540
-457
-282
-362
-449
-387
-377
-444
-470
-460
-430
-386
-385
-410
-345
-186
-96
-110
-84
-32
-38
49
285
486
668
887
985
1092
1432
1723
1933
2429
2712
2073
1215
1049
1158
977
758
707
633
468
336
283
256
208
142
99
100
121
135
129
117
145
202
203
128
36
-65
-200
-323
-366
-387
-475
-530
-448
-396
-476
-499
-407
-389
-458
-463
-389
-328
-324
-359
-404
-425
-377
-293
-278
-294
-243
-229
-269
-164
-1
24
136
336
112
-437
-595
-358
-253
-309
-297
-266
-276
-233
-124
-92
-175
-214
-149
-113
-118
-57
9
-8
-4
70
117
147
176
91
-36
-57
-120
-226
-131
-125
-524
-748
-429
-160
-207
-220
-174
-197
-168
-84
-70
-87
-73
-73
-104
-117
-118
-116
-78
-56
-80
15
197
255
400
696
493
-227
-509
-208
-42
-82
-27
5
-29
10
17
0
132
172
28
151
266
-276
-693
-97
644
702
563
541
475
459
457
281
106
103
98
25
30
87
67
14
16
34
51
99
133
127
171
243
182
45
45
137
130
73
99
119
70
110
237
292
333
313
-13
-383
-353
-154
-150
-203
-168
-140
-156
-180
-167
-110
-81
-86
-79
-86
-72
21
103
135
191
218
192
223
261
149
-42
-122
-100
-133
-206
-179
-118
-166
-243
-225
-145
-68
-39
-66
-54
49
130
105
57
45
39
39
36
11
41
99
35
2
190
330
393
736
958
416
-291
-329
-69
-93
-213
-186
-143
-186
-245
-246
-189
-135
-149
-187
-134
-21
10
-13
57
172
190
141
120
92
2
-125
-233
-295
-317
-313
-298
-282
-271
-247
-190
-145
-162
-178
-127
-59
-43
-75
-115
-141
-136
-106
-109
-128
-34
82
-6
-99
46
155
177
415
513
34
-431
-332
-95
-85
-109
-95
-123
-120
-53
-17
-18
15
59
48
23
66
141
199
272
325
312
329
399
359
219
153
113
-9
-69
16
65
-3
-69
-97
-113
-68
15
49
79
128
108
92
122
15
-72
92
-56
-726
-857
-160
213
16
23
203
237
337
348
-82
-498
-396
-131
-124
-195
-109
-24
-88
-133
-79
-92
-161
-119
-19
17
-11
-33
108
354
393
342
529
695
567
418
341
163
16
15
0
-53
-53
-43
-25
51
104
64
30
79
94
-22
-159
-197
-201
-229
-200
-123
-133
-163
-70
-32
-120
-13
264
429
686
977
651
-85
-343
-197
-203
-250
-158
-145
-236
-216
-143
-159
-145
-93
-149
-136
-14
-227
-599
-422
54
138
24
68
81
-20
-89
-144
-211
-213
-185
-198
-207
-187
-192
-207
-184
-160
-167
-144
-55
38
74
46
-20
-61
-43
-28
-35
13
68
16
-14
105
218
281
380
273
-131
-326
-116
65
56
56
70
45
52
86
96
98
107
119
129
137
172
231
256
277
374
482
501
452
353
235
217
238
64
-183
-154
40
14
-161
-172
-91
-92
-65
9
-10
20
133
-62
-476
-476
-138
-52
-178
-193
-156
-156
-166
-177
-108
41
116
141
173
-9
-403
-558
-328
-125
-190
-287
-235
-185
-222
-199
-97
-60
-89
-104
-88
-15
79
139
243
412
509
532
511
359
227
203
-151
-757
-746
-163
51
-125
-126
-67
-128
-65
49
-48
-119
66
200
128
99
127
62
19
70
58
3
55
97
17
56
294
419
426
523
425
-50
-331
-129
33
-43
-47
-48
-119
10
7
-547
-850
-332
118
-4
-89
50
95
121
275
381
372
384
385
264
106
-4
-115
-205
-221
-201
-223
-300
-302
-169
-108
-177
-121
68
166
228
386
537
621
722
874
1125
1405
1297
633
-42
-351
-520
-605
-465
-322
-371
-442
-435
-436
-452
-467
-499
-516
-523
-572
-608
-549
-431
-306
-158
23
202
307
288
214
187
164
79
0
-25
-49
-76
-49
6
5
-41
-50
-8
23
11
-24
-64
-105
-134
-137
-123
-106
-91
-89
-111
-133
-137
-131
-111
-68
-38
-28
-14
-23
-42
43
209
341
471
457
18
-446
-245
163
-71
-394
-87
-26
-712
-936
-298
102
-21
-106
-27
168
233
-136
-370
69
526
510
469
561
505
366
299
214
96
40
30
7
-29
-58
-39
27
48
26
74
154
145
130
195
179
11
-50
88
121
-23
-21
112
84
50
209
334
421
594
428
-176
-461
-216
-73
-177
-184
-108
-120
-160
-169
-197
-218
-170
-141
-180
-121
46
101
92
236
408
384
275
266
270
135
-42
-122
-162
-186
-137
-106
-135
-120
-106
-154
-143
-72
-44
8
113
146
120
75
-15
-4
76
-144
-464
-277
122
118
25
216
418
553
659
390
-174
-412
-260
-161
-206
-221
-175
-120
-106
-155
-198
-157
-67
-2
10
-20
-42
-17
36
104
196
247
217
219
285
245
76
-11
1
-67
-189
-222
-200
-207
-227
-245
-273
-292
-271
-200
-115
-62
-49
-67
-112
-151
-156
-147
-146
-131
-118
-137
-100
15
67
153
467
588
86
-464
-419
-160
-174
-252
-162
-71
-116
-185
-149
-67
-49
-59
-25
36
100
169
232
302
368
380
343
302
262
209
140
53
-8
-35
-94
-163
-133
-64
-87
-115
-44
1
-45
-39
39
29
-58
-60
-25
-114
-190
-78
19
-28
-20
15
-33
42
169
65
8
105
-155
-603
-557
-257
-246
-331
-270
-212
-202
-164
-151
-160
-109
-34
-15
-27
-31
1
101
219
297
366
426
418
367
321
251
144
51
2
-10
11
26
6
-2
20
49
96
87
-32
-62
94
194
167
171
192
177
183
188
181
217
237
226
312
456
553
665
677
347
-88
-184
3
126
96
88
171
202
156
164
180
132
145
234
247
218
277
358
367
385
427
376
254
170
76
-91
-259
-372
-430
-431
-444
-508
-539
-494
-439
-445
-512
-536
-455
-368
-365
-441
-530
-521
-486
-592
-696
-637
-581
-583
-530
-482
-432
-254
