# session 26
-2
-16
-17
-17
-30
-29
-2
7
-24
-35
3
49
69
64
37
4
-14
-1
27
27
16
30
25
30
146
255
255
337
431
174
-221
-256
-82
-50
-69
-30
-20
-19
16
29
18
41
71
69
76
111
129
145
203
263
265
236
216
190
129
34
-62
-128
-162
-177
-181
-186
-191
-182
-168
-169
-168
-149
-138
-150
-142
-95
-69
-92
-109
-103
-128
-167
-142
-106
-130
-99
5
-11
-66
65
206
223
307
256
-181
-500
-341
-147
-175
-191
-141
-125
-120
-109
-99
-78
-74
-85
-59
6
59
82
93
141
239
322
345
316
245
170
111
27
-61
-83
-86
-124
-122
-84
-111
-145
-101
-65
-76
-70
-68
-80
-41
33
66
62
41
-18
-99
-104
1
73
31
-5
37
174
424
659
813
913
703
99
-297
-171
-26
-131
-183
-100
-81
-150
-185
-129
-58
-91
-162
-131
-88
-128
-118
-16
35
34
84
171
230
217
133
61
52
49
31
21
9
-5
-18
-26
13
76
98
121
151
138
200
364
431
451
563
502
175
-9
66
99
-9
-159
-282
-307
-269
-273
-289
-244
-189
-177
-185
-189
-184
-177
-174
-173
-165
-149
-144
-174
-228
-277
-317
-348
-353
-345
-349
-348
-320
-282
-251
-234
-229
-210
-172
-124
-80
-75
-100
-77
-15
12
25
71
96
66
49
84
103
75
70
131
199
219
213
200
176
164
177
179
183
219
210
171
256
368
376
496
660
391
-129
-248
-54
-1
-34
7
24
-9
-13
2
6
18
28
14
7
30
58
80
116
158
182
198
216
213
182
152
116
47
-19
-32
-33
-68
-98
-98
-102
-106
-89
-89
-131
-171
-182
-183
-192
-199
-175
-120
-81
-92
-128
-152
-167
-181
-178
-180
-208
-213
-208
-242
-201
-47
53
139
279
144
-331
-621
-553
-481
-509
-511
-501
-512
-521
-523
-529
-541
-477
-247
-9
39
26
98
130
136
323
571
594
482
420
327
179
85
15
-24
161
568
913
1033
988
882
781
693
604
537
481
379
270
249
281
269
208
134
81
79
81
52
53
117
203
274
303
356
545
825
1086
1162
760
3
-503
-593
-606
-618
-558
-537
-573
-585
-583
-571
-567
-608
-648
-672
-724
-747
-718
-720
-710
-580
-416
-351
-308
-185
-68
-67
-118
-110
-86
-105
-113
-108
-151
-159
-76
-37
-90
-113
-82
-54
-18
6
-15
-16
62
144
146
101
78
69
48
47
64
67
89
104
67
124
302
369
406
590
528
38
-261
-101
44
-12
-48
-37
-51
-53
-32
-29
-39
-44
-37
-20
10
53
107
159
189
214
251
259
223
176
95
-20
-88
-108
-157
-210
-211
-188
-168
-128
-74
-36
-17
-2
18
33
26
2
3
56
114
137
143
158
194
264
347
442
572
690
792
1040
1444
1596
1166
412
-157
-377
-418
-426
-434
-448
-461
-468
-486
-524
-565
-601
-642
-687
-722
-735
-727
-690
-612
-506
-385
-237
-87
7
44
73
96
86
60
50
56
65
74
83
99
113
114
116
128
130
123
120
107
95
108
122
105
90
109
131
125
98
61
29
12
7
5
4
20
45
19
-5
95
205
186
205
248
6
-350
-363
-163
-110
-138
-117
-123
-146
-127
-123
-138
-108
-69
-78
-70
-8
40
67
126
203
256
297
319
280
188
86
-7
-78
-117
-149
-183
-192
-180
-175
-155
-119
-111
-115
-87
-72
-99
-103
-63
-46
-56
-38
-1
15
24
27
-6
-55
-46
8
14
-11
19
29
-24
57
259
354
433
507
226
-257
-366
-173
-86
-84
-55
-58
-68
-40
-25
-38
-35
-10
10
19
39
71
99
160
272
357
354
306
270
245
180
52
-57
-85
-96
-133
-140
-128
-152
-149
-72
-1
42
104
172
304
569
795
866
1035
1419
1638
1334
648
1
-336
-417
-428
-446
-467
-488
-503
-522
-566
-606
-631
-681
-754
-802
-824
-825
-773
-651
-480
-288
-110
13
74
89
66
42
42
28
-27
-67
-55
-46
-86
-114
-84
-70
-124
-151
-100
-77
-127
-148
-103
-79
-107
-125
-97
-46
-6
13
23
18
0
-7
14
39
40
22
19
58
118
145
124
99
97
89
71
71
73
80
108
90
54
139
259
325
487
571
197
-278
-281
-56
-34
-89
-56
-30
-48
-54
-38
-16
1
7
17
48
95
143
184
224
273
318
334
321
302
274
221
160
115
78
42
15
-2
-5
12
24
11
10
35
36
3
-23
-31
-29
-18
-16
-28
-16
31
66
67
59
69
152
332
515
642
794
941
892
668
465
285
57
-135
-232
-280
-303
-322
-360
-388
-399
-430
-475
-508
-549
-601
-641
-678
-729
-772
-779
-747
-693
-634
-546
-411
-291
-219
-148
-90
-95
-106
-75
-50
-49
-22
22
33
15
9
14
17
29
43
39
29
16
10
37
41
-10
4
116
170
126
87
73
52
40
61
85
68
67
111
96
92
254
425
525
711
686
153
-307
-216
-24
-60
-66
31
42
-21
-34
-1
23
31
46
70
92
117
157
229
319
389
448
511
491
361
267
262
207
65
-29
-16
4
-47
-92
-52
9
14
1
7
13
15
31
82
156
220
338
582
828
934
1029
1230
1301
997
439
-91
-427
-557
-578
-593
-616
-618
-611
-625
-676
-740
-786
-827
-871
-911
-957
-982
-948
-878
-773
-604
-410
-242
-100
-17
-12
-17
-1
-27
-86
-82
-19
-9
-48
-31
39
62
40
34
35
28
40
58
59
84
119
96
58
69
77
51
56
84
65
29
45
103
149
167
158
128
95
75
72
78
75
78
101
83
55
149
272
333
521
668
316
-223
-298
-97
-65
-98
-59
-55
-77
-69
-55
-28
19
39
37
67
118
149
168
211
266
295
306
318
319
285
228
176
131
78
26
-6
-31
-49
-42
-32
-48
-56
-39
-43
-74
-78
-47
-20
-12
-7
12
56
106
118
98
98
121
145
191
266
344
441
544
590
687
988
1269
1116
532
-74
-392
-445
-422
-432
-456
-466
-479
-507
-540
-563
-582
-625
-683
-708
-705
-719
-719
-651
-566
-505
-401
-242
-125
-77
-42
-20
-31
-60
-82
-99
-107
-101
-92
-92
-91
-84
-84
-88
-81
-76
-85
-79
-44
-30
-56
-68
-22
43
61
32
9
6
-18
-47
-17
20
7
21
46
8
56
219
290
395
615
449
-130
-366
-164
-81
-135
-102
-75
-54
24
26
-33
5
74
67
70
132
186
226
281
336
402
488
525
488
449
411
305
158
69
53
38
-12
-51
-43
-37
-77
-88
-32
-26
-96
-95
-5
24
-31
-58
-15
60
129
146
121
124
181
255
368
536
670
757
978
1360
1541
1203
528
-56
-362
-455
-447
-463
-547
-583
-537
-546
-621
-625
-608
-701
-811
-824
-807
-814
-807
-788
-727
-568
-363
-184
-14
193
479
797
1032
1290
1679
1834
1394
616
-69
-501
-639
-590
-570
-599
-590
-584
-623
-656
-675
-711
-758
-791
-776
-662
-465
-281
-157
-58
26
76
90
69
38
38
54
60
69
80
79
78
67
54
77
109
114
124
149
149
133
136
150
157
157
148
137
152
163
125
88
107
133
135
136
134
126
129
129
103
79
80
87
73
46
33
41
51
47
35
37
53
60
53
42
27
20
33
29
8
41
116
136
110
105
83
21
-1
29
22
2
18
7
-1
102
211
246
332
304
-79
-443
-391
-208
-182
-184
-157
-173
-187
-164
-135
-100
-81
-94
-86
-31
30
88
161
217
236
258
299
307
265
219
188
139
72
16
-25
-61
-90
-109
-119
-112
-96
-95
-101
-95
-88
-91
-88
-72
-49
-34
-34
-29
1
32
21
-31
-71
-66
-56
-59
-45
-21
-13
-14
-37
-49
38
160
221
309
334
49
-303
-302
-115
-78
-107
-73
-49
-58
-62
-71
-79
-62
-37
-19
9
49
94
151
225
288
327
360
387
374
307
203
85
-11
-71
-124
-165
-165
-150
-160
-173
-163
-154
-162
-171
-178
-183
-165
-164
-209
-206
-116
-69
-92
-89
-86
-131
-170
-176
-158
-137
-159
-193
-197
-210
-147
35
135
165
252
73
-439
-648
-392
-221
-273
-284
-238
-203
-184
-207
-213
-149
-117
-152
-139
-62
-7
20
74
168
261
305
305
279
212
116
15
-108
-222
-258
-247
-256
-264
-241
-223
-218
-199
-173
-157
-153
-155
-140
-103
-92
-116
-116
-67
9
39
-24
0
270
537
566
538
598
663
744
872
1006
1238
1657
2044
1978
1261
321
-174
-203
-199
-248
-238
-232
-237
-195
-163
-168
-166
-161
-159
-160
-184
-214
-220
-186
-61
167
383
470
475
513
586
649
749
880
970
1182
1614
1871
1688
1339
959
445
-26
-285
-445
-526
-477
-449
-529
-573
-531
-515
-557
-600
-639
-665
-628
-539
-439
-323
-210
-164
-173
-192
-233
-306
-374
-409
-417
-427
-461
-495
-495
-492
-530
-563
-536
-500
-521
-549
-538
-541
-577
-597
-602
-620
-638
-648
-665
-681
-691
-702
-715
-728
-751
-780
-781
-762
-781
-807
-744
-643
-638
-697
-726
-752
-801
-829
-829
-842
-878
-927
-963
-964
-966
-998
-1012
-976
-931
-925
-929
-884
-759
-570
-358
-180
-33
154
336
432
582
861
1066
1249
1595
1724
1359
1066
1233
1454
1496
1554
1628
1621
1636
1716
1758
1758
1778
1810
1841
1887
1934
1964
2005
2072
2131
2162
2177
2178
2156
2106
2024
1923
1837
1734
1530
1235
961
749
552
363
202
61
-64
-182
-319
-448
-512
-542
-612
-715
-787
-818
-839
-869
-913
-966
-1014
-1072
-1142
-1182
-1195
-1246
-1311
-1324
-1339
-1329
-1166
-980
-941
-949
-1054
-1386
-1601
-1422
-1189
-1151
-1145
-1093
-1032
-959
-923
-935
-904
-819
-757
-746
-729
-653
-546
-460
-373
-250
-129
-59
-21
0
-34
-139
-254
-333
-388
-411
-387
-353
-348
-343
-308
-256
-218
-202
-185
-149
-103
-61
-34
-40
-16
145
372
499
591
779
963
1095
1359
1718
1767
1306
647
184
-30
-129
-155
-130
-125
-149
-149
-134
-148
-192
-229
-249
-278
-329
-371
-391
-395
-345
-211
-59
70
230
420
539
558
554
606
762
1004
1194
1288
1547
2025
2182
1661
867
278
-34
-162
-221
-280
-310
-311
-336
-373
-404
-464
-546
-585
-579
-609
-645
-532
-280
-75
28
113
180
185
154
114
89
101
89
10
-51
-56
-82
-120
-91
-43
-50
-79
-86
-85
-84
-82
-95
-123
-146
-154
-154
-146
-128
-108
-104
-116
-117
-93
-68
-64
-65
-56
-54
-66
-77
-80
-80
-81
-74
-62
-65
-84
-97
-96
-88
-77
-69
-72
-74
-62
-58
-85
-105
-83
-62
-82
-103
-70
4
63
74
52
30
25
22
0
-36
-35
9
-9
-80
-12
153
241
419
677
489
-108
-356
-138
46
134
277
344
277
220
204
185
178
186
187
188
199
220
254
294
325
349
368
372
354
308
250
199
149
89
34
-17
-67
-81
-72
-94
-109
-69
-40
-58
-65
-53
-57
-65
-71
-86
-101
-104
-90
-56
-28
-26
-47
-86
-151
-262
-400
-461
-403
-326
-294
-319
-428
-508
-434
-342
-299
-212
-281
-649
-884
-733
-567
-587
-583
-495
-428
-376
-317
-269
-221
-175
-140
-98
-46
-3
43
108
175
242
323
388
408
380
314
226
144
66
-14
-68
-71
-52
-48
-54
-50
-33
-12
-3
1
26
54
62
74
97
114
153
218
256
256
235
193
165
182
210
215
215
238
279
268
231
304
430
473
552
614
312
-145
-190
36
77
26
78
116
105
119
117
94
119
157
153
150
172
201
244
303
368
440
498
512
488
430
317
186
99
30
-71
-147
-135
-102
-126
-162
-172
-182
-181
-156
-159
-203
-221
-190
-190
-261
-299
-234
-160
-151
-179
-230
-297
-341
-335
-289
-247
-207
-103
11
54
211
547
765
870
1008
764
14
-504
-524
-505
-527
-471
-487
-540
-488
-453
-480
-454
-415
-440
-487
-509
-471
-392
-374
-398
-322
-169
-78
-56
-19
30
36
10
1
-12
-65
-95
-50
4
3
-9
7
33
40
42
57
84
112
120
80
31
59
153
216
210
182
177
178
160
147
150
135
123
132
108
115
249
360
400
558
624
258
-142
-103
70
52
19
63
70
55
62
64
64
74
72
68
80
93
121
183
248
296
337
359
357
348
294
164
31
-44
-103
-179
-243
-276
-287
-285
-283
-289
-292
-265
-223
-229
-262
-249
-224
-253
-278
-230
-151
-87
-56
-87
-149
-171
-161
-170
-187
-202
-193
-143
-131
-157
-57
96
142
276
464
227
-298
-444
-254
-197
-230
-175
-141
-169
-164
-135
-117
-89
-58
-40
-14
28
69
112
165
218
272
317
326
311
293
253
178
106
66
52
49
42
29
29
53
64
57
72
98
86
66
82
105
100
83
90
140
190
211
273
382
476
596
767
873
952
1159
1329
1154
682
210
-96
-227
-253
-267
-294
-306
-316
-357
-410
-448
-488
-538
-587
-634
-682
-711
-703
-664
-593
-468
-307
-169
-61
37
97
100
77
47
-2
-44
-46
-51
-107
-155
-136
-88
-66
-65
-66
-63
-60
-65
-75
-78
-70
-60
-56
-41
-8
6
-14
-35
-57
-93
-102
-79
-81
-111
-108
-53
9
14
-39
-55
-28
-56
-104
-73
-48
-85
-60
-18
-91
-81
128
266
364
588
494
-111
-496
-326
-137
-167
-192
-163
-149
-144
-144
-139
-129
-122
-87
-46
-43
-23
51
127
196
273
319
338
371
380
308
192
97
27
-39
-93
-113
-118
-126
-97
-54
-85
-121
-48
32
7
-20
19
20
-24
9
107
151
163
259
446
676
908
1045
1122
1365
1688
1633
1085
453
2
