# session 3
-467
-1364
-1985
-2299
-2419
-2371
-2070
-1458
-674
10
477
871
1311
1737
2253
3188
4468
5504
5971
5960
5445
4460
3499
3127
3340
3528
3238
2749
2214
1022
-863
-2290
-2551
-2106
-1437
-723
-178
317
1024
1640
1776
1556
1189
839
665
334
-590
-1811
-2844
-3600
-3867
-3503
-2973
-2628
-2236
-1585
-612
717
2178
3598
4929
5571
4888
3398
2054
998
-85
-1349
-2784
-4041
-4625
-4598
-4411
-4186
-3801
-3275
-2637
-1847
-955
-43
814
1530
2159
2806
3379
3820
4316
4960
5574
5947
5992
5800
5556
5236
4655
3889
3210
2629
1963
1247
783
784
1074
1186
892
412
-99
-846
-1908
-2955
-3642
-3891
-3719
-3177
-2512
-2086
-1950
-1803
-1525
-1343
-1332
-1274
-1032
-678
-468
-744
-1544
-2498
-3314
-3930
-4236
-4153
-3775
-3161
-2295
-1298
-443
89
344
347
-47
-665
-918
-646
-272
8
166
36
-27
435
680
-123
-1144
-1328
-1057
-969
-1146
-1833
-2987
-3631
-3115
-2019
-1102
-333
712
1962
2709
2628
2365
2514
2665
1988
280
-1670
-2671
-2409
-1726
-1258
-866
-597
-675
-665
17
1147
2073
2513
2701
3113
3974
4741
4488
3132
1490
-49
-1573
-2711
-3245
-3685
-4196
-4337
-4034
-3549
-2960
-2318
-1782
-1490
-1388
-1135
-458
454
1256
1859
2336
2741
3217
4003
5127
6197
6797
6924
6843
6668
6274
5617
4921
4328
3613
2657
1830
1423
1176
796
427
277
270
319
422
319
-294
-1126
-1577
-1532
-1315
-1155
-1062
-991
-1004
-1253
-1735
-2254
-2637
-2844
-2921
-2998
-3229
-3655
-4202
-4684
-4807
-4470
-3891
-3242
-2572
-1987
-1454
-940
-818
-1176
-1230
-483
510
1291
1965
2154
1483
893
1103
1125
569
536
935
566
-400
-1093
-1542
-1944
-2032
-1609
-785
190
1129
2008
2831
3395
3295
2503
1661
1187
702
-102
-988
-1745
-2185
-2025
-1524
-1306
-1375
-1256
-830
-328
79
322
395
503
887
1231
792
-446
-1556
-1989
-2285
-3111
-4223
-4842
-4738
-4427
-4373
-4567
-4834
-5026
-4868
-4072
-2733
-1259
170
1628
3058
4287
5248
5977
6670
7577
8627
9474
9876
9667
8688
7138
5620
4521
3689
2902
2266
1907
1611
1120
618
473
597
506
24
-523
-838
-928
-902
-830
-736
-623
-583
-653
-636
-576
-848
-1325
-1466
-1353
-1525
-2074
-2756
-3459
-4098
-4526
-4706
-4705
-4549
-4210
-3683
-2988
-2162
-1248
-269
727
1602
2063
1752
733
-286
-719
-677
-371
160
512
409
374
555
77
-1318
-2729
-3554
-3838
-3615
-3003
-2288
-1534
-541
740
1828
2078
1617
1275
1351
1164
150
-1215
-2064
-2226
-2017
-1642
-1347
-1236
-785
394
1664
2216
2192
2252
2629
2964
2713
1773
768
246
-170
-1112
-2403
-3443
-3993
-4120
-4019
-3975
-3945
-3517
-2543
-1353
-253
706
1527
2216
2851
3519
4215
4773
5012
5066
5322
5865
6332
6399
6130
5719
5202
4647
4239
3925
3447
2783
2089
1544
1415
1555
1302
577
-17
-417
-974
-1595
-2149
-2756
-3221
-3262
-3047
-2853
-2760
-2772
-2697
-2320
-1879
-1704
-1631
-1455
-1328
-1268
-1101
-1092
-1708
-2758
-3550
-3782
-3652
-3297
-2696
-1973
-1369
-956
-663
-446
-305
-252
-263
-197
51
301
430
794
1606
2378
2779
3005
2849
1919
602
-494
-1315
-1974
-2446
-2601
-2283
-1684
-1135
-405
776
1825
2082
1761
1381
1130
1010
788
137
-704
-1134
-1046
-734
-423
-342
-594
-835
-726
-393
-60
267
588
800
1008
1546
2202
1920
85
-2284
-3624
-3808
-4018
-4724
-5058
-4560
-3990
-3861
-3828
-3737
-3702
-3425
-2638
-1575
-501
471
1311
2187
2980
3198
3107
3591
4587
5371
5998
6826
7477
7459
6929
6211
5348
4432
3691
3149
2636
2116
1684
1430
1441
1692
1913
1770
1138
178
-750
-1296
-1313
-882
-278
198
456
563
503
161
-458
-1105
-1495
-1697
-2058
-2712
-3426
-3929
-4148
-4160
-4064
-3850
-3412
-2745
-2001
-1301
-636
34
642
953
828
507
285
210
423
1147
2029
2327
1896
1240
727
297
-335
-1386
-2661
-3667
-4168
-4194
-3759
-2999
-2219
-1515
-760
-8
416
309
-94
-288
-95
-6
-658
-1997
-3210
-3534
-2943
-2001
-1274
-921
-643
-49
882
1891
2655
2937
3103
3697
4247
4033
3326
2331
719
-1068
-2205
-2768
-3250
-3799
-4275
-4322
-3795
-3105
-2605
-2167
-1670
-1174
-660
-95
459
966
1436
1892
2379
2879
3405
4083
4851
5410
5699
5869
5882
5616
5129
4567
3973
3247
2381
1726
1599
1731
1641
1336
1143
1077
814
205
-532
-1174
-1614
-1618
-1103
-586
-558
-765
-816
-838
-1041
-1330
-1523
-1551
-1452
-1363
-1462
-1884
-2589
-3313
-3805
-4022
-3994
-3689
-3139
-2462
-1704
-831
79
820
1286
1568
1704
1547
1095
610
258
1
-121
66
625
1252
1418
979
299
-392
-1130
-1753
-2060
-2198
-2327
-2286
-1971
-1534
-827
466
1790
2150
1735
1490
1487
1141
204
-1098
-2180
-2602
-2570
-2404
-2182
-2035
-1813
-1032
130
886
1122
1478
2158
2578
2224
1375
704
372
-78
-1053
-2407
-3395
-3434
-3040
-3109
-3417
-3145
-2415
-2039
-2234
-2467
-2290
-1731
-994
-258
376
1012
1762
2497
3117
3713
4332
4935
5455
5766
5843
5819
5685
5287
4700
4152
3587
2819
2054
1679
1620
1467
1109
772
565
424
311
145
-226
-779
-1300
-1578
-1477
-1043
-558
-241
-75
-75
-325
-704
-952
-1051
-1232
-1619
-2111
-2637
-3234
-3767
-3978
-3900
-3770
-3580
-3182
-2591
-1850
-975
-140
487
908
1057
886
684
701
733
524
129
-84
378
1370
2025
2139
2209
2012
1158
264
-226
-766
-1417
-1780
-1998
-2173
-1841
-918
45
706
1061
1064
781
525
571
865
1096
1051
827
610
480
488
590
552
287
10
-175
-239
129
937
1457
1283
766
-16
-1283
-2862
-4512
-5950
-6441
-5771
-4932
-4741
-4876
-4828
-4700
-4702
-4698
-4521
-4174
-3602
-2718
-1618
-461
690
1780
2755
3620
4442
5359
6433
7435
8038
8197
8106
7765
6966
5792
4635
3672
2895
2456
2349
2213
1913
1761
1890
1957
1636
1008
297
-408
-972
-1173
-974
-581
-229
-44
2
3
-47
-250
-590
-838
-824
-758
-977
-1439
-1926
-2487
-3063
-3265
-3172
-3277
-3394
-2943
-2085
-1357
-814
-236
410
944
1137
952
540
-14
-657
-1171
-1167
-372
846
1567
1429
971
491
-302
-1408
-2426
-3038
-2990
-2251
-1275
-399
543
1515
1991
1676
877
6
-871
-1756
-2384
-2752
-3325
-4027
-4160
-3682
-3072
-2170
-704
851
1851
1999
1564
1398
1606
1274
552
503
687
-40
-1336
-2290
-2737
-2797
-2736
-2907
-3038
-2637
-1898
-1198
-533
48
408
698
1058
1374
1657
2102
2657
3090
3394
3771
4314
4886
5279
5440
5436
5266
4942
4587
4250
3792
3131
2440
2015
1922
1846
1514
1160
1128
1288
1294
926
55
-989
-1447
-1176
-810
-810
-1308
-2242
-3004
-3010
-2610
-2401
-2297
-2056
-1826
-1707
-1535
-1334
-1448
-2021
-2695
-3082
-3198
-3146
-2837
-2273
-1642
-987
-208
604
1183
1254
663
-271
-822
-661
-107
435
821
1189
1728
2173
1929
883
-331
-1043
-1371
-1922
-2598
-2608
-1880
-1150
-559
367
1490
2163
2192
1764
1049
292
-320
-821
-1195
-1331
-1269
-1160
-1093
-1048
-953
-810
-576
-151
306
597
803
856
680
720
963
556
-514
-1299
-1629
-1982
-2399
-2805
-3225
-3492
-3519
-3460
-3441
-3544
-3727
-3673
-3147
-2285
-1278
-140
1096
2286
3304
4100
4701
5178
5591
5998
6368
6504
6374
6213
5949
5335
4701
4273
3472
2235
1492
1471
1389
910
348
-35
-108
124
395
391
-47
-889
-1774
-2109
-1627
-709
63
475
608
487
140
-263
-603
-956
-1419
-2021
-2739
-3449
-3972
-4237
-4280
-4124
-3771
-3296
-2782
-2190
-1456
-669
58
687
1093
1121
882
650
504
387
378
603
938
1178
1407
1726
1846
1577
1248
994
395
-708
-1851
-2511
-2474
-1948
-1415
-1014
-488
90
293
41
-282
-328
-227
-519
-1408
-2375
-2876
-2907
-2585
-1918
-1099
-441
-33
394
1234
2330
2902
2663
2242
2052
1765
1174
453
-465
-1715
-2805
-3137
-2946
-2853
-3017
-3225
-3275
-3148
-2998
-2886
-2797
-2793
-2668
-2037
-1032
-79
827
1874
2937
3806
4456
4983
5504
6070
6596
6930
6915
6467
5730
4976
4304
3664
3080
2650
2391
2201
1964
1688
1426
1123
704
193
-353
-840
-1181
-1379
-1365
-1132
-1014
-1256
-1598
-1802
-1922
-1927
-1784
-1662
-1573
-1369
-1166
-1189
-1434
-1847
-2409
-2924
-3136
-3073
-2949
-2782
-2405
-1822
-1194
-609
-145
149
427
685
689
711
1155
1641
1915
2312
2327
1297
111
-657
-2057
-4014
-4890
-4519
-4226
-4389
-4365
-3709
-2501
-1180
-188
340
473
344
152
58
-51
-464
-1047
-1200
-804
-351
87
765
1370
1575
1728
2079
2388
2620
3055
3637
3610
2365
770
181
177
-503
-1663
-2475
-2925
-3111
-2928
-2667
-2623
-2600
-2346
-1832
-1064
-103
805
1435
1836
2165
2460
2747
3082
3452
3894
4495
5130
5538
5639
5515
5209
4728
4127
3492
2868
2238
1620
1158
1025
1228
1507
1509
1145
657
274
-77
-605
-1275
-1752
-1786
-1516
-1235
-1010
-780
-670
-845
-1157
-1420
-1760
-2253
-2664
-2856
-2916
-2874
-2775
-2789
-2879
-2819
-2595
-2358
-2181
-2060
-1910
-1674
-1471
-1393
-1389
-1437
-1462
-1489
-1948
-2728
-2618
-1168
360
1045
1248
1184
682
-85
-946
-1848
-2583
-3363
-4506
-5120
-4129
-2315
-1228
-919
-497
238
997
1716
2232
2239
2059
2388
3121
3385
2758
1859
1502
1542
1360
1162
1464
1898
1923
1763
1741
1745
1698
1698
1663
1474
1338
1288
692
-701
-1959
-2424
-2685
-3200
-3614
-3762
-3696
-3182
-2297
-1573
-1102
-561
54
575
1075
1703
2504
3414
4198
4710
5148
5710
6214
6358
6099
5612
5020
4294
3420
2558
1872
1326
873
663
746
775
498
238
309
395
94
-470
-1035
-1569
-2020
-2237
-2199
-1997
-1766
-1670
-1697
-1655
-1517
-1469
-1562
-1645
-1630
-1633
-1780
-2011
-2195
-2368
-2640
-2972
-3170
-3078
-2730
-2284
-1834
-1413
-1081
-805
-467
-176
-193
-497
-769
-719
-328
118
305
279
289
222
-303
-1104
-1492
-1521
-2005
-3023
-4075
-5367
-6653
-6332
-4180
-2222
-1274
-303
733
1068
980
1088
1328
1293
666
-310
-811
-530
-9
436
1006
1677
2168
2514
2970
3550
3957
3960
3671
3227
2561
1834
1344
887
279
37
315
327
-224
-723
-982
-1355
-1788
-1936
-1676
-1041
-211
553
1179
1581
1583
1512
1957
2756
3356
3784
4302
4849
5329
5665
5681
5408
5012
4434
3642
2887
2328
1843
1361
1025
938
933
805
585
337
-5
-513
-1251
-2132
-2719
-2733
-2508
-2420
-2412
-2375
-2363
-2377
-2400
-2426
-2388
-2360
-2422
-2283
-1798
-1446
-1488
-1590
-1600
-1570
-1372
-1052
-860
-775
-699
-796
-1163
-1670
-2248
-2832
-3196
-3267
-3232
-3114
-2810
-2373
-1711
-620
541
1166
1374
1630
1602
456
-1767
-3884
-4856
-4634
-3737
-2703
-1876
-1343
-1042
-745
-159
556
909
844
723
873
1330
1510
934
493
1223
2310
2527
2242
2096
1847
1543
1628
1918
2167
2735
3666
4338
4547
4829
5306
5173
3947
2348
1274
730
28
-1375
-3020
-3806
-3609
-3346
-3450
-3668
-3858
-3923
-3674
-3158
-2558
-1887
-1126
-382
287
917
1466
1852
2119
2369
2621
2820
2961
3030
2821
2269
1773
1574
1438
1320
1307
1190
1064
1359
1911
2294
2595
2831
2624
1907
1024
290
-74
-34
136
200
146
-84
-522
-934
-1133
-1275
-1537
-1836
-2024
-2075
-2024
-1927
-1855
-1842
-1936
-2212
-2562
-2708
-2608
-2469
-2350
-2162
-1938
-1736
-1526
-1303
-1073
-786
-466
-200
18
227
451
787
1262
1652
1787
1794
1751
1496
958
256
-567
-1485
-2208
-2320
-1734
-868
-190
316
779
853
327
-384
-1188
-2540
-4153
-5038
-4886
-4125
-3136
-2178
-1364
-594
132
750
1299
1656
1690
1671
1765
1570
865
100
-282
-405
-590
-857
-1006
-1086
-1322
-1550
-1338
-789
-368
-94
170
185
-85
-90
596
1795
3124
4415
5579
6448
7057
7589
7864
7628
7148
6739
6261
5622
4998
4430
3877
3402
2984
2489
1906
1433
1304
1514
1796
1957
1974
1763
1186
227
-902
-1705
-1774
-1354
-1025
-987
-1221
-1803
-2422
-2466
-2032
-1739
-1559
-1210
-1020
-1095
-918
-614
-892
-1648
-2263
-2735
-3290
-3689
-3625
-3249
-2925
-2786
-2887
-3455
-4503
-5601
-6332
-6641
-6990
-8020
-9369
-9910
-9669
-9523
-9178
-7818
-5926
-4527
-3711
-3026
-2367
-1911
-1708
-1607
-1479
-1348
-1160
-803
-509
-581
-722
-528
-251
-130
198
934
1747
2413
2897
3084
3283
4334
6328
8221
9390
10227
10890
11072
10832
10269
9151
7671
6418
5392
4166
2746
1476
551
17
-183
-281
-446
-522
-322
-13
12
-392
-835
-857
-750
-1096
-1493
-1098
-172
380
358
58
-304
-422
-95
436
921
1403
1873
2208
2413
2540
2516
2309
2044
1782
1398
878
458
354
608
1080
1415
1408
1365
1529
1621
1426
1067
574
39
-186
-90
-95
-335
-644
-1031
-1518
-1951
-2261
-2533
-2793
-2962
-2897
-2582
-2384
-2658
-3102
-3150
-2858
-2666
-2694
-2844
-3082
-3279
-3264
-3101
-2934
-2714
-2470
-2506
-2864
-3053
-2763
-2284
-1909
-1600
-1278
-880
-409
-350
-1195
-2158
-1887
-1014
-1625
-3467
-3936
-2377
-807
-308
-121
249
711
1409
2409
3553
4791
5893
6384
6145
5434
4398
3140
2003
1331
1105
1042
1014
1128
1370
1515
1521
1449
1049
86
-1269
-2560
-3130
-2829
-2694
-3417
-4066
-3867
-3370
-3034
-2777
-2750
-3021
-3279
-3374
-3327
-2994
-2352
-1672
-1127
-679
-270
231
896
1518
2064
2953
4309
5672
6767
7792
8841
9474
9014
7455
5734
4612
3872
2995
1881
738
-157
-590
-538
-224
27
115
217
369
458
564
625
184
-872
-2073
-3019
-3410
-3042
-2248
-1405
-454
388
831
1302
1957
2070
1435
730
263
-108
-327
-358
-403
-592
-1008
-1751
-2639
-3278
-3483
-3458
-3629
-4066
-4148
-3438
-2461
-1878
-1689
-1779
-2143
-2351
-1917
-1112
-608
-707
-1309
-2180
-3116
-3973
-4516
-4550
-4089
-3044
-1543
-597
-873
-1356
-834
549
2180
3718
4816
5306
5213
4506
3486
2772
2527
2482
2499
2502
2310
1884
1396
966
501
-120
-811
-1387
-1793
-2130
-2532
-3035
-3591
-4198
-4748
-4964
-4867
-4781
-4585
-3816
-2499
-1050
301
1464
2356
3005
3526
4001
4427
4715
4907
5317
6140
7115
7966
8686
9075
8760
7686
5881
3391
957
-352
-516
-475
-673
-611
115
1043
1468
1303
903
393
-327
-1118
-1731
-2249
-2860
-3532
-4285
-5159
-5752
-5500
-4412
-3052
-1925
-985
157
1350
1843
1368
388
-721
-1854
-2891
-3676
-3951
-3502
-2537
-1408
-207
981
1972
2629
2822
2833
3388
4262
4207
3248
2782
3003
2858
2187
1551
937
171
-476
-836
-1201
-1842
-2573
-3010
-3013
-2577
-1767
-1104
-1137
-1456
-1257
-675
-307
-115
35
-266
-1165
-2157
-2832
-3081
-2905
-2639
-2562
-2307
-1660
-1190
-1264
-1561
-1847
-2201
-2669
-3304
-4078
-4736
-5108
-5208
-5034
-4791
-4789
-4783
-4237
-3181
-2013
-846
409
1692
2806
3601
4077
4292
4236
3948
3607
3355
3181
3031
2883
2742
2742
3102
3756
4228
4218
4057
4153
4347
4259
3843
3262
2641
2017
1360
779
566
682
706
557
575
887
