# session 38
89
140
63
51
169
215
201
204
-4
-391
-503
-294
-163
-197
-220
-212
-213
-211
-219
-233
-237
-233
-212
-173
-161
-165
-117
-34
28
98
162
154
142
175
122
-37
-140
-184
-274
-328
-284
-300
-371
-326
-303
-381
-290
-216
-549
-744
-341
-40
-217
-324
-244
-257
-259
-192
-191
-179
-136
-143
-59
97
119
194
373
133
-457
-639
-401
-275
-246
-160
-169
-242
-196
-92
-51
-69
-91
-56
21
62
90
165
249
319
416
495
477
425
427
418
320
177
93
102
130
107
68
54
42
39
81
113
85
97
216
263
147
101
192
185
99
118
134
79
100
131
108
186
274
309
573
768
277
-380
-392
-139
-164
-231
-171
-153
-172
-165
-179
-193
-161
-127
-112
-90
-49
6
65
112
165
230
261
226
157
91
52
17
-64
-147
-161
-167
-198
-188
-173
-191
-150
-88
-112
-119
-30
36
46
54
48
59
143
244
321
439
613
725
720
799
1144
1489
1369
769
116
-272
-406
-400
-347
-354
-423
-447
-430
-456
-490
-508
-567
-615
-592
-598
-656
-660
-601
-532
-455
-371
-279
-186
-120
-97
-118
-153
-169
-202
-277
-310
-279
-276
-306
-292
-251
-233
-224
-214
-206
-185
-133
-70
-69
-154
-225
-226
-225
-235
-213
-180
-198
-265
-234
-45
70
129
380
408
-173
-630
-481
-298
-155
356
893
1103
1148
903
436
275
294
200
374
739
766
660
718
724
683
749
786
723
642
557
467
349
198
124
126
66
-17
-39
-74
-105
-40
0
-90
-128
-15
54
-3
-53
-67
-107
-145
-158
-136
-87
-159
-269
-87
69
-324
-547
119
647
142
-504
-525
-381
-397
-393
-357
-341
-311
-307
-320
-296
-294
-361
-413
-377
-289
-263
-315
-303
-184
-64
33
108
107
72
65
32
-44
-88
-84
-74
-64
-90
-168
-139
-18
-160
-494
-439
-8
228
194
182
204
161
100
109
161
149
119
178
187
93
173
364
383
515
834
632
-51
-293
-77
-37
-123
-96
-86
-110
-83
-78
-104
-69
-19
-46
-95
-55
26
14
-42
33
206
294
267
225
191
130
32
-84
-171
-193
-188
-201
-207
-188
-185
-196
-188
-193
-209
-152
-29
26
-29
-65
-29
-42
-128
-136
-48
2
-33
-98
-95
29
153
237
381
359
-26
-291
-76
190
191
156
204
227
209
176
136
127
146
154
144
122
119
158
182
182
240
326
340
306
253
163
86
24
-80
-151
-123
-122
-216
-270
-234
-208
-205
-176
-201
-251
-116
46
-139
-416
-318
-97
-127
-217
-182
-162
-184
-182
-196
-154
19
126
101
111
-6
-371
-544
-374
-281
-308
-235
-217
-319
-301
-160
-118
-207
-252
-167
-103
-159
-143
-6
57
196
601
849
778
824
774
198
-359
-528
-599
-356
229
427
227
197
234
153
165
220
167
142
212
261
276
284
267
259
313
430
587
732
790
862
1200
1638
1519
707
-75
-350
-355
-365
-405
-434
-427
-449
-527
-566
-554
-559
-566
-588
-670
-770
-852
-902
-852
-697
-526
-401
-311
-172
9
63
-18
-19
24
-90
-194
-82
-6
-134
-191
-79
-32
-89
-115
-71
3
36
12
52
162
181
106
45
6
8
64
76
29
24
75
205
446
651
799
1010
1000
475
-72
-151
-51
-64
-49
2
-26
-68
-79
-94
-76
-55
-89
-75
1
-31
-117
-67
38
20
-43
-2
95
141
112
34
20
98
16
-153
-25
-83
-865
-1320
-619
124
72
-103
-35
-16
-14
59
42
-24
13
85
78
34
24
57
80
33
21
173
297
284
482
790
537
-138
-416
-209
-47
-190
-418
-355
-89
3
-16
-27
-88
48
149
-511
-1235
-736
306
610
492
564
629
580
551
495
391
300
202
100
43
23
14
5
-17
-43
-36
-5
-29
-100
-68
78
112
-39
-141
-101
-119
-200
-133
-25
-74
-119
-89
-88
2
107
117
453
761
-82
-1281
-1069
-124
8
-259
-186
-121
-216
-189
-104
-118
-137
-95
-70
-89
-75
-10
38
82
186
269
242
226
282
239
105
60
-50
-361
-482
-240
-58
-152
-244
-154
-83
-160
44
579
389
-738
-1380
-1061
-621
-180
349
478
294
261
296
313
379
356
320
467
607
643
707
558
57
-273
-136
73
56
-34
3
103
82
0
25
73
39
35
88
115
122
139
190
281
355
389
347
246
290
279
-270
-836
-587
-88
-101
-233
-180
-207
-282
-262
-228
-175
-117
-162
-202
-107
-23
-71
-144
-172
-152
-95
-158
-274
-94
55
-368
-650
-149
285
266
385
320
-239
-447
-205
-173
-112
29
-335
-694
-302
163
122
61
154
132
97
173
230
263
331
390
423
445
457
486
476
323
151
156
211
123
9
4
8
-38
-55
-25
7
46
91
120
195
374
563
655
711
822
971
1037
793
216
-292
-456
-481
-549
-594
-611
-648
-661
-642
-651
-682
-689
-685
-723
-803
-840
-787
-727
-690
-563
-341
-167
-64
44
130
133
68
13
25
39
-26
-81
-15
48
-18
-31
102
93
14
227
263
-311
-563
19
440
301
257
351
293
297
405
372
287
302
285
209
212
244
192
160
211
182
99
209
396
405
494
762
608
-73
-468
-260
-11
-32
-105
-91
-74
-97
-116
-127
-119
-52
-27
-149
-221
-87
51
63
84
161
224
237
190
138
127
86
-9
-86
-139
-185
-214
-252
-281
-249
-222
-243
-221
-140
-84
-67
-49
-24
-15
-56
-129
-160
-108
-42
-68
-93
16
42
-46
194
458
-106
-934
-871
-342
-176
-128
24
59
29
42
31
13
19
47
96
102
87
139
173
181
284
355
300
396
640
661
497
452
445
305
161
111
57
-11
-17
-30
-92
-108
-131
-199
-133
-92
-397
-610
-264
94
-5
-164
-156
-167
-158
-123
-176
-164
-57
-107
-144
100
291
249
273
227
-178
-526
-463
-305
-245
-174
-167
-242
-229
-147
-104
-72
-67
-86
-67
-84
-71
106
159
83
374
514
-253
-798
-110
562
332
81
179
142
28
44
22
-50
-30
49
91
77
58
95
141
124
140
234
238
106
28
87
143
91
10
17
50
49
113
214
277
450
570
196
-357
-409
-157
-138
-244
-214
-146
-151
-180
-191
-185
-172
-165
-138
-75
-24
8
74
145
167
200
258
236
141
75
7
-102
-160
-159
-209
-272
-237
-186
-224
-237
-165
-140
-202
-225
-131
-1
-7
-66
57
72
-316
-466
18
356
196
137
251
208
228
384
406
540
875
704
-26
-377
-167
-29
-63
-25
-21
-119
-125
-12
27
-81
-195
-136
0
-51
-144
14
146
20
-2
175
246
212
176
110
81
7
-228
-338
-182
-95
-175
-199
-158
-159
-161
-116
-66
-50
-20
45
45
-29
-52
-76
-175
-175
-75
-137
-241
-133
-55
-113
19
257
340
408
329
-150
-541
-397
-133
-136
-188
-86
-34
-120
-38
56
-400
-889
-477
244
324
165
263
353
362
457
529
520
528
513
409
280
191
137
80
21
6
-5
-64
-67
28
51
-22
-29
21
46
98
154
124
75
51
8
23
57
-70
-129
44
-53
-429
-296
244
442
363
197
-234
-552
-362
-130
-231
-331
-203
-99
-163
-215
-182
-191
-214
-181
-186
-201
-129
-62
-22
91
180
146
146
222
164
-32
-108
-58
-137
-261
-185
-106
-158
-91
-112
-528
-737
-322
79
102
99
177
201
165
91
57
116
145
100
101
152
146
95
138
276
369
469
656
598
105
-279
-153
59
-9
-84
24
66
-29
-31
31
-1
-6
19
-79
-77
89
-75
-443
-259
289
457
328
275
220
101
18
-51
-135
-175
-173
-185
-204
-200
-209
-224
-188
-172
-228
-211
-71
20
-2
-59
-91
-61
-23
-23
28
136
200
255
323
397
611
924
1106
1141
895
53
-874
-904
-259
37
-106
-151
-90
-117
-155
-182
-249
-270
-252
-310
-400
-434
-457
-457
-375
-290
-247
-155
-44
5
80
191
163
15
-38
7
-5
-50
-49
-55
-70
-18
42
21
-23
-3
92
165
55
-146
-157
-10
42
-12
-53
-44
-9
-19
-20
128
284
294
314
254
-120
-428
-317
-155
-168
-134
-93
-142
-127
-81
-117
-101
-26
-42
-84
-41
25
62
104
189
329
440
433
405
435
356
133
37
127
151
53
3
20
-2
-52
-55
-11
17
4
-4
61
178
227
132
10
34
129
91
-21
-13
80
101
64
142
370
565
711
914
838
203
-384
-342
-147
-284
-326
-112
-329
-907
-848
-248
-102
-353
-361
-244
-282
-325
-271
-188
-123
-90
-42
45
65
1
-32
-48
-121
-185
-192
-192
-183
-159
-175
-192
-111
-11
-68
-214
-229
-86
47
45
-26
-14
24
-28
-7
90
-32
-191
-19
182
177
272
454
520
600
534
92
-256
-154
5
-23
-37
12
34
36
39
69
134
144
90
87
128
132
136
184
224
249
278
294
309
335
308
180
21
-69
-84
-104
-151
-181
-194
-226
-260
-259
-233
-217
-204
-162
-98
-63
-55
-41
-58
-114
-116
-90
-140
-166
-75
-70
-176
-93
127
204
323
527
277
-336
-516
-272
-205
-256
-181
-184
-248
-143
-74
-112
59
147
-276
-512
-5
452
361
291
446
508
494
522
490
400
331
237
112
47
49
41
-12
-95
-147
-89
14
0
-93
-72
57
111
73
69
80
60
98
202
299
405
508
621
877
1121
940
301
-390
-737
-650
-441
-436
-558
-603
-579
-567
-589
-621
-624
-637
-746
-894
-929
-871
-868
-881
-783
-623
-466
-282
-130
-74
-56
-37
-12
16
-7
-77
-96
-40
41
88
96
144
170
96
157
288
-20
-459
-212
366
480
364
424
421
260
228
349
348
217
225
331
300
295
485
659
797
921
646
43
-193
21
182
171
160
165
134
99
139
188
146
120
166
183
234
268
156
244
461
-6
-727
-402
459
554
194
103
71
-55
-72
-31
-65
-105
-76
-28
-25
-64
-90
-54
33
82
68
118
266
358
401
577
827
989
1194
1510
1555
1026
235
-286
-429
-456
-503
-493
-480
-561
-570
-513
-745
-1112
-1055
-730
-639
-703
-722
-743
-731
-652
-540
-379
-235
-149
-29
52
22
40
78
-35
-139
-78
-8
-16
-50
-77
-41
16
-22
-77
-50
-38
-94
-123
-79
-7
39
19
-62
-132
-134
-125
-171
-204
-169
-137
-170
-235
-220
-86
30
112
268
224
-230
-572
-450
-306
-366
-370
-355
-455
-478
-383
-394
-481
-446
-333
-296
-310
-252
-116
-28
-28
14
132
193
192
186
102
-13
-70
-212
-342
-213
-273
-813
-967
-364
63
-24
-58
27
27
70
168
184
167
176
169
139
135
171
189
171
182
228
314
454
555
682
978
1069
579
30
15
264
345
290
255
288
355
357
302
310
372
394
404
483
572
609
663
776
888
972
1025
1020
993
948
827
696
679
718
704
664
679
741
764
754
826
949
959
899
968
1140
1203
1124
1082
1168
1301
1404
1490
1573
1654
1780
1907
1734
1140
573
434
464
293
-16
-291
-500
-663
-854
-1097
-1317
-1553
-1866
-2164
-2431
-2708
-2880
-2945
-3052
-3095
-2930
-2786
-2816
-2792
-2634
-2587
-2743
-2968
-3158
-3270
-3332
-3425
-3437
-3127
-2556
-2020
-1639
-1343
-1070
-790
-540
-401
-331
-169
84
257
293
282
316
421
530
551
519
543
636
689
689
788
977
1091
1307
1673
1540
802
443
751
964
907
937
976
942
979
998
983
1069
1027
878
1204
1771
1671
1148
1050
1265
1345
1297
1236
1242
1288
1182
971
856
766
651
630
641
568
493
463
426
413
449
476
503
540
524
460
413
364
291
242
212
180
190
181
41
-79
37
256
382
420
240
-230
-580
-526
-374
-347
-328
-315
-341
-311
-269
-309
-337
-311
-337
-385
-359
-306
-266
-195
-114
-69
-36
4
12
-34
-119
-220
-317
-396
-458
-511
-562
-604
-608
-556
-488
-459
-455
-406
-304
-214
-169
-153
-181
-240
-270
-268
-264
-247
-230
-210
-185
-228
-266
-140
7
140
530
835
397
-365
-567
-330
-253
-359
-398
-352
-323
-326
-317
-279
-260
-281
-273
-214
-179
-191
-169
-84
9
81
134
144
107
48
-31
-131
-206
-219
-201
-197
-203
-193
-157
-116
-88
-71
-77
-111
-91
31
119
38
-92
-81
21
28
-72
-105
0
59
-12
28
215
254
231
384
353
-50
-258
-76
62
78
139
161
132
164
199
180
167
177
182
194
224
251
256
286
392
495
517
529
545
468
341
273
241
190
111
17
-14
43
60
-15
-45
29
51
-51
-65
86
132
77
159
69
-416
-594
-149
148
7
-69
-36
-86
14
239
273
287
414
224
-270
-463
-311
-198
-160
-165
-249
-262
-155
-112
-164
-180
-142
-114
-94
-54
-7
71
203
287
306
396
447
279
172
210
-97
-596
-517
-75
-27
-192
-149
-98
-138
-85
-18
-63
-88
-13
69
106
119
91
11
-42
-3
76
96
49
28
45
44
109
265
358
474
683
548
-28
-354
-205
-91
-175
-226
-209
-189
-185
-213
-220
-173
-156
-188
-198
-173
-119
-33
34
70
131
204
229
202
131
21
-99
-203
-275
-301
-326
-351
-314
-271
-289
-260
-174
-186
-235
-160
-66
-45
-13
-22
-138
-202
-141
-69
-15
35
59
78
118
212
343
381
424
634
625
129
-250
-122
22
-69
-79
-7
-77
-125
1
65
-41
-69
42
85
27
19
94
167
192
204
239
256
215
178
180
145
58
-18
-70
-98
-89
-83
-107
-124
-117
-107
-94
-79
-75
-58
-22
-11
-30
-36
-52
-80
-49
-5
-52
-75
-11
-52
-124
29
211
270
453
528
80
-386
-343
-183
-207
-169
-63
-63
-104
-91
-39
30
59
6
