# session 41
-41
492
251
-356
-559
-435
-382
-342
-251
-272
-345
-322
-267
-246
-231
-225
-221
-187
-149
-121
-76
-24
26
115
208
210
170
163
86
-88
-181
-191
-269
-339
-281
-228
-281
-319
-251
-177
-185
-182
-68
59
67
25
86
262
450
566
630
740
923
1139
1264
941
75
-615
-547
-209
-162
-236
-248
-269
-269
-260
-325
-397
-417
-438
-482
-541
-570
-522
-479
-465
-340
-151
-44
68
220
288
288
246
123
79
168
166
98
147
161
65
97
176
56
-10
121
26
-268
-206
113
177
58
18
0
-36
-18
28
40
42
86
104
36
45
204
342
454
520
235
-279
-463
-297
-176
-153
-126
-127
-139
-102
-53
-43
-48
-31
-12
-12
1
68
177
265
321
398
482
499
455
389
300
208
132
61
17
14
-12
-63
-61
-28
-27
-40
-42
-15
79
162
110
5
-13
11
-9
-59
-107
-107
-53
-70
-148
-84
76
185
380
511
120
-466
-524
-261
-229
-298
-245
-221
-282
-315
-311
-290
-245
-207
-180
-134
-83
-24
44
60
62
147
220
190
147
88
-41
-117
-119
-188
-260
-230
-208
-239
-227
-179
-153
-147
-154
-127
-47
15
33
52
71
85
121
167
184
182
171
116
76
191
342
373
550
864
670
-21
-353
-173
-32
-46
-59
-75
-54
-28
-98
-134
-38
21
-3
-7
-17
-25
50
124
140
218
318
289
212
196
156
48
-56
-129
-184
-210
-230
-269
-279
-229
-198
-229
-243
-185
-110
-69
-63
-99
-162
-179
-127
-103
-163
-218
-176
-108
-114
-78
71
160
259
466
309
-305
-554
-261
-128
-187
-61
-2
-117
-25
76
-241
-490
-169
203
188
138
244
292
317
441
538
531
510
490
423
305
170
99
95
36
-86
-115
-45
-28
-73
-84
-63
-39
-3
38
98
143
63
-71
-75
-15
-33
-71
-87
-80
-17
-40
-174
-109
149
260
186
-24
-360
-526
-377
-204
-164
-163
-171
-163
-119
-98
-117
-151
-176
-153
-110
-86
-42
25
108
243
374
405
361
295
219
142
48
-76
-201
-227
-136
-133
-199
-80
-91
-562
-775
-280
139
103
108
212
168
108
134
150
141
124
113
158
190
114
71
185
301
432
748
866
356
-242
-285
-90
-83
-113
-92
-137
-190
-154
-101
-88
-75
-61
-78
-91
-59
-14
23
88
186
267
292
244
135
11
-87
-146
-188
-231
-246
-228
-216
-210
-198
-217
-243
-223
-191
-169
-122
-82
-70
-62
-106
-181
-157
-87
-100
-105
-57
-76
-77
53
133
157
307
301
-88
-354
-166
63
85
95
146
129
86
103
144
138
104
97
117
131
134
158
224
293
319
341
366
336
273
220
112
-20
-40
-6
-59
-136
-163
-181
-168
-124
-136
-171
-126
-50
-11
10
14
-12
-41
-65
-79
-80
-120
-176
-169
-149
-140
-34
82
104
182
175
-220
-621
-540
-277
-207
-225
-239
-270
-262
-206
-167
-169
-177
-144
-84
-50
-17
56
160
274
387
484
524
445
321
302
198
-191
-448
-197
105
18
-151
-88
34
53
38
18
-22
10
128
191
152
107
81
26
-21
-1
34
11
-19
6
68
173
284
353
481
541
183
-314
-344
-99
-68
-142
-124
-103
-105
-113
-153
-135
-43
-40
-115
-102
-45
-28
77
244
250
219
346
400
237
80
9
-60
-124
-198
-256
-241
-246
-288
-238
-160
-170
-181
-119
-42
27
107
181
179
114
198
491
648
581
722
1091
1146
785
377
50
-197
-290
-291
-293
-285
-301
-349
-368
-386
-437
-461
-451
-476
-536
-584
-599
-538
-400
-274
-177
-7
195
243
143
88
119
108
21
-44
-37
-23
-42
-31
11
0
-39
-38
-25
-36
-52
-72
-85
-67
-48
-56
-66
-71
-92
-111
-102
-75
-43
-8
10
-23
-64
8
139
169
262
517
430
-160
-470
-228
-210
-639
-840
-562
-220
-92
-100
-91
-43
-47
-87
-52
56
154
216
271
369
501
575
571
553
521
441
345
263
176
101
67
46
32
42
31
10
33
38
27
112
191
143
124
146
45
-55
-36
-36
-17
62
-42
-227
-87
191
221
273
496
351
-221
-510
-323
-139
-135
-145
-115
-104
-147
-195
-175
-148
-179
-178
-101
-33
15
98
189
246
287
320
313
245
149
71
-20
-134
-186
-182
-229
-299
-298
-246
-184
-96
-36
-49
1
241
530
718
886
1022
1096
1259
1130
111
-983
-912
-263
-198
-447
-421
-329
-390
-464
-486
-510
-565
-612
-600
-607
-690
-694
-573
-506
-446
-182
130
192
115
161
275
286
216
141
82
79
140
167
150
186
175
52
122
274
-134
-735
-522
101
157
-69
-53
-29
-105
-71
24
59
70
69
44
32
45
57
39
-7
-24
-11
-29
-7
130
283
449
601
404
-131
-401
-229
-65
-93
-159
-216
-228
-154
-112
-145
-97
29
62
59
176
299
294
288
383
480
504
490
475
456
402
298
175
83
29
-12
-16
20
-9
-89
-64
12
-13
-67
-29
60
96
30
-52
-61
-83
-159
-185
-162
-148
-140
-156
-114
57
173
166
173
44
-314
-488
-324
-210
-252
-232
-161
-139
-141
-154
-141
-59
-8
-57
-86
-27
34
46
56
124
229
247
191
252
316
88
-136
-11
-114
-759
-988
-410
-28
-214
-260
-30
24
-70
-29
100
155
148
140
129
106
91
105
116
101
108
131
102
112
224
288
382
639
607
61
-317
-208
-110
-159
-93
5
-14
-84
-141
-129
-41
-3
-42
-64
-9
119
161
91
225
440
204
-140
58
349
181
-54
-79
-141
-236
-237
-249
-276
-227
-180
-184
-158
-137
-157
-106
-28
-75
-135
-81
-67
-148
-161
-118
-98
-32
-2
-134
-138
155
314
205
210
178
-215
-466
-249
-89
-89
57
-64
-563
-569
-35
156
43
125
187
103
135
239
287
335
377
437
542
554
475
410
273
84
43
66
-22
-84
-40
-64
-151
-122
-34
-39
-58
20
103
118
123
110
22
-92
-134
-96
-113
-250
-316
-228
-160
-83
75
132
141
228
69
-365
-515
-295
-156
-171
-162
-159
-149
-40
66
72
54
46
31
52
100
152
224
284
337
428
473
420
348
254
120
9
-48
-99
-160
-127
-76
-478
-1217
-1258
-432
143
54
-66
21
116
196
201
70
10
92
91
15
44
109
78
3
-4
91
218
378
561
452
-41
-377
-292
-152
-149
-172
-151
-62
11
-9
-8
-31
-149
-105
11
-252
-538
-228
231
270
198
262
263
187
121
20
-89
-163
-224
-238
-212
-229
-282
-325
-340
-293
-253
-288
-291
-219
-165
-114
-70
-112
-165
-172
-199
-128
131
321
251
105
114
265
407
583
882
912
378
-104
2
251
227
148
152
145
146
167
166
161
148
109
101
134
151
166
215
275
314
343
376
364
258
145
98
2
-153
-181
-107
-124
-197
-221
-219
-182
-123
-151
-215
-171
-89
-95
-142
-164
-181
-216
-261
-297
-314
-300
-258
-245
-230
-88
75
71
42
36
-206
-527
-514
-333
-311
-323
-255
-220
-203
-151
-138
-176
-175
-124
-75
-44
-13
40
118
183
193
230
412
533
279
-45
41
274
224
90
101
118
76
58
73
99
114
102
89
93
113
149
157
119
100
110
97
77
80
78
32
-59
-72
105
254
221
344
646
486
-149
-447
-257
-131
-172
-158
-124
-133
-139
-132
-110
-85
-99
-124
-119
-113
-94
-27
69
184
290
319
291
261
164
-10
-110
-113
-188
-318
-325
-251
-252
-285
-263
-228
-209
-186
-147
-86
-29
-27
-58
-64
-77
-115
-59
48
-36
-121
79
35
-480
-506
182
605
589
492
96
-346
-221
64
-28
-119
21
60
-17
19
86
50
5
24
67
112
152
166
207
340
473
468
380
349
361
310
192
92
28
-29
-75
-123
-162
-137
-166
-360
-455
-274
-124
-167
-181
-106
-86
-117
-134
-159
-184
-157
-128
-141
-117
-76
-108
-74
87
135
162
424
480
-41
-489
-373
-180
-232
-238
-148
-153
-183
-133
-92
-91
-80
-61
-18
64
142
218
319
403
460
511
519
475
422
346
224
109
50
32
14
-34
-69
-36
-7
-45
-48
2
-11
-13
104
159
42
-38
9
28
-24
-60
-53
10
142
241
265
379
591
728
820
822
420
-209
-468
-391
-397
-471
-464
-457
-462
-427
-414
-447
-451
-434
-463
-503
-513
-547
-576
-512
-392
-289
-218
-169
-72
22
-27
-52
29
-162
-541
-472
-70
49
-58
-66
-7
60
117
122
162
233
169
84
193
317
248
167
216
237
183
179
174
119
198
363
414
597
923
676
-105
-397
-104
0
-83
9
60
-67
-110
-32
13
38
44
4
9
65
109
213
291
258
425
637
187
-478
-299
237
174
-133
-169
-138
-165
-182
-207
-202
-152
-121
-112
-117
-133
-120
-80
-50
-37
-36
-62
-137
-177
-95
-12
-38
-44
33
146
369
650
793
807
657
208
-266
-365
-205
-166
-362
-521
-371
-122
-85
-124
-91
-119
-184
-152
-109
-125
-104
-46
-51
-78
-18
102
180
190
158
96
37
26
30
-14
-83
-116
-104
-78
-59
-53
-52
-58
-57
-11
75
116
49
-52
-89
-94
-111
-103
-92
-121
-150
-174
-161
-22
125
160
244
287
-34
-439
-437
-210
-126
-151
-173
-174
-145
-113
-94
-78
-60
-42
-51
-51
38
122
108
170
347
392
314
351
415
311
170
134
112
68
73
92
73
58
43
10
26
91
99
53
43
81
123
130
87
48
68
119
109
-1
-69
14
55
-26
25
182
242
418
652
388
-224
-465
-316
-199
-210
-255
-207
-122
-276
-496
-364
-118
-119
-144
-69
-86
-106
14
132
180
225
255
284
288
142
-67
-163
-214
-290
-304
-275
-315
-412
-412
-262
-182
-317
-397
-253
-126
-117
-97
-83
-84
-59
-78
-33
174
198
71
248
233
-428
-603
199
717
632
645
473
-81
-273
-25
77
19
23
47
69
85
63
52
86
97
47
12
87
215
264
286
384
465
438
416
434
346
156
61
53
-20
-97
-122
-196
-207
-104
-231
-531
-484
-206
-167
-223
-135
-84
-145
-179
-179
-189
-167
-120
-109
-112
-92
-112
-148
-46
103
142
283
503
253
-366
-552
-285
-180
-238
-188
-149
-178
-140
-102
-109
-38
56
32
-12
34
124
248
393
465
470
491
507
454
349
227
114
47
29
15
-9
-16
-18
-59
-96
-59
-7
-17
-34
7
54
70
109
135
33
-114
-102
24
51
-24
-30
26
-1
-22
124
239
136
-8
-138
-355
-447
-292
-180
-226
-234
-187
-161
-112
-101
-232
-342
-247
-90
-83
-156
-134
-10
108
175
217
259
298
302
238
132
33
-42
-87
-96
-97
-107
-91
-47
-31
-35
9
65
69
79
134
177
185
170
156
166
71
-256
-557
-510
-278
-207
-246
-139
61
160
309
572
463
-122
-462
-261
-41
-76
-142
-118
-72
-44
-34
-40
-43
-1
75
114
92
71
147
312
392
355
406
465
214
-221
-398
-244
-52
-44
-158
-198
-140
-142
-214
-201
-95
-57
-115
-145
-78
51
96
-17
-80
26
47
-89
-118
-52
-64
-43
17
-24
46
296
347
276
392
285
-220
-381
-64
20
-100
35
70
-272
-367
1
213
112
85
175
225
245
262
315
397
357
225
251
379
337
185
137
126
60
22
-12
-103
-130
-40
-3
-80
-117
-34
49
32
0
91
224
183
45
50
47
-204
-458
-458
-379
-340
-292
-298
-296
-137
10
22
52
-19
-349
-542
-349
-160
-193
-220
-166
-164
-191
-150
-104
-142
-160
-70
5
6
30
81
148
272
351
310
311
394
356
179
73
83
73
-5
-52
-4
28
-69
-185
-173
-88
-46
-48
-44
13
105
136
85
36
24
18
16
19
-6
-21
29
41
-5
56
167
234
476
706
352
-267
-395
-228
-226
-216
-108
-113
-180
-163
-127
-109
-60
-18
-59
-136
-137
-71
-20
20
89
169
222
234
198
119
29
-27
-68
-156
-245
-232
-181
-215
-285
-273
-206
-187
-229
-237
-148
-51
-46
-82
-73
-49
-74
-104
-68
-32
-58
-13
101
60
24
255
341
38
-91
36
-87
-259
-103
60
53
87
94
16
62
162
107
69
173
200
130
176
288
308
323
447
589
617
569
559
521
334
125
83
143
139
58
-12
-33
-26
-34
-66
-73
-47
-71
-126
-67
62
37
-115
-148
-85
-119
-167
-117
-106
-123
-39
17
-1
78
202
312
435
256
-268
-533
-411
-312
-244
-147
-191
-253
-169
-98
-92
-58
-39
-55
-23
61
117
111
148
316
402
231
111
263
340
88
-282
-507
-507
-391
-346
-358
-322
-275
-245
-172
-74
-25
-6
126
414
664
792
987
1311
1524
1343
695
-87
-535
-596
-559
-574
-605
-613
-598
-609
-687
-784
-837
-869
-886
-856
-835
-872
-875
-772
-616
-442
-262
-130
-70
-51
-51
-77
-123
-151
-150
-166
-186
-161
-127
-119
-95
-70
-92
-96
-48
-26
-37
-22
-4
-18
-20
20
55
57
65
106
163
220
240
232
287
399
431
372
339
373
407
379
343
424
544
600
818
1146
954
261
-39
222
359
250
277
389
369
306
289
300
375
439
373
322
416
483
485
580
684
676
702
794
785
706
685
649
553
501
426
169
-81
-51
125
202
226
307
376
292
51
-218
-492
-873
-1294
-1580
-1739
-1891
-2077
-2281
-2397
-2231
-1822
-1438
-1108
-699
-323
-20
315
374
-51
-326
-21
313
337
421
640
686
647
799
996
1010
996
1080
1102
1018
923
824
807
836
503
-284
-1173
-2070
-2735
-2549
-1710
-1090
-827
-547
-253
-86
58
296
424
89
-493
-662
-363
-25
