# session 11
-22
84
340
532
584
719
884
859
793
842
856
828
848
803
786
1082
1504
1502
821
-230
-1020
-1239
-1104
-856
-661
-610
-471
-297
-579
-905
-459
96
-59
-276
-198
-318
-405
-92
179
226
323
386
286
194
141
8
-113
-136
-220
-407
-491
-451
-490
-600
-616
-585
-625
-641
-512
-368
-331
-154
385
930
977
626
372
356
306
176
227
281
-97
-560
-517
-204
-4
110
96
80
298
321
-169
-498
-265
20
94
160
226
262
384
543
618
637
639
606
540
420
243
71
-54
-111
-92
-72
-96
-120
-190
-373
-539
-525
-389
-296
-280
-269
-313
-470
-451
-35
388
415
173
-83
-139
149
498
526
358
240
124
-13
-106
-181
-218
-212
-275
-322
-221
-148
-146
-27
129
301
647
809
479
178
168
28
-209
-200
-148
-282
-387
-316
-212
-164
-132
-192
-421
-530
-257
68
117
86
119
85
53
176
309
289
192
112
51
38
76
134
291
574
735
646
620
779
761
497
295
124
-99
-138
6
65
30
18
165
598
923
567
-176
-572
-557
-504
-654
-1081
-1477
-1268
-489
43
-173
-692
-849
-562
-218
-107
-203
-364
-493
-519
-453
-399
-375
-295
-161
-64
-33
-44
-79
-114
-131
-96
42
199
243
326
612
785
558
280
243
225
169
212
208
146
178
-5
-489
-569
-99
161
20
-53
62
214
314
224
-15
-116
-27
23
48
242
445
501
668
922
949
950
1032
756
265
111
72
-156
-279
-306
-573
-904
-951
-807
-705
-599
-437
-377
-288
-16
-178
-772
-551
180
-39
-357
344
768
402
436
801
786
684
621
323
-25
-208
-300
-339
-350
-368
-357
-302
-239
-222
-256
-226
-73
30
-27
-41
104
179
159
331
608
630
441
250
170
361
578
498
569
783
163
-911
-959
-314
-249
-509
-385
-150
-136
-218
-334
-471
-491
-364
-220
-124
-39
48
140
255
352
382
397
415
387
375
396
299
86
-83
-266
-548
-776
-891
-978
-954
-759
-544
-391
-308
-314
-264
-152
-307
-556
-214
577
910
537
20
-146
82
381
472
415
283
47
-84
25
120
206
514
609
83
-400
-276
-43
-90
-146
-124
-173
-212
-156
-70
127
474
618
357
110
171
208
62
35
187
336
484
543
329
66
72
204
181
9
-117
-55
56
-7
-111
-47
36
-30
-120
-84
58
184
215
211
254
310
341
370
384
314
138
-74
-298
-521
-617
-607
-630
-531
-293
-282
-349
-203
-347
-712
-462
-183
-715
-776
454
1382
1101
550
188
-161
-247
-11
179
215
175
52
-84
-115
-96
-124
-147
-107
-72
-44
78
216
161
-35
-158
-186
-195
-154
-24
191
433
490
248
-17
-49
37
81
110
184
222
6
-395
-544
-416
-409
-479
-358
-238
-308
-389
-376
-293
-146
-73
-80
47
119
-135
-269
85
431
434
444
567
515
299
136
24
-97
-187
-283
-419
-484
-426
-375
-386
-322
-103
152
312
350
337
424
498
222
-140
-103
-48
-313
-356
-90
-38
-31
310
656
649
436
250
95
-120
-308
-298
-193
-186
-194
-142
-157
-212
-151
-71
-108
-144
-137
-148
-34
215
356
551
1031
1239
771
304
315
365
253
210
176
147
270
156
-394
-646
-311
-94
-191
-157
-8
22
-4
-31
-23
140
367
428
345
308
364
388
309
232
209
136
42
29
-50
-277
-425
-461
-574
-716
-833
-1027
-1139
-954
-712
-628
-471
-225
-194
-210
-44
-103
-307
-75
-135
-985
-923
496
1078
515
550
898
493
89
247
284
34
-86
-104
-175
-231
-252
-281
-296
-282
-277
-302
-311
-280
-227
-120
41
206
427
738
965
960
809
656
540
440
337
249
235
292
265
19
-289
-384
-267
-182
-249
-329
-265
-121
-26
44
147
239
295
356
481
722
1053
1319
1354
1095
629
214
77
114
47
-164
-359
-480
-583
-676
-750
-855
-1000
-1109
-1206
-1369
-1473
-1400
-1255
-1086
-890
-715
-521
-483
-735
-590
366
1076
758
197
141
372
562
600
436
215
109
55
-7
-19
-38
-129
-138
-6
53
-23
-63
-48
-56
-40
49
188
360
544
694
717
548
355
323
295
154
149
311
348
309
324
115
-192
37
486
251
-340
-410
-164
-138
-197
-151
-116
-121
-77
13
122
267
417
498
519
531
511
456
379
239
138
222
299
156
-8
-64
-228
-485
-565
-561
-683
-733
-577
-504
-615
-596
-358
-184
-129
8
99
-28
1
356
442
78
-21
377
661
549
335
184
36
-83
-113
-146
-273
-325
-176
-49
24
252
288
-221
-656
-507
-233
-123
79
343
483
558
551
406
275
230
192
206
298
344
423
660
744
405
-8
-121
-72
-85
-123
-62
75
119
-7
-172
-268
-325
-396
-446
-387
-222
-84
-47
-41
-40
-107
-223
-285
-324
-465
-679
-828
-914
-989
-991
-965
-1091
-1225
-1063
-796
-675
-431
-121
-125
-59
181
-310
-1149
-839
226
679
570
327
31
85
519
794
812
731
499
241
150
106
36
85
237
334
411
542
610
554
519
534
435
252
217
337
411
411
466
584
646
582
429
321
331
312
245
319
291
-165
-510
-240
58
-110
-305
-164
85
157
4
-193
-198
-79
-11
117
324
407
534
813
696
108
-144
90
175
-3
-117
-118
-134
-235
-361
-429
-522
-623
-577
-606
-948
-1118
-746
-337
-180
13
57
-213
-212
9
-154
-129
519
659
-51
-330
193
616
571
353
139
-37
-147
-201
-213
-226
-288
-360
-336
-209
-91
-58
-47
-37
-135
-262
-222
-144
-118
156
566
545
242
184
254
331
589
680
315
29
89
1
-364
-585
-529
-376
-223
-169
-265
-343
-280
-203
-184
-144
-75
-1
107
246
384
505
589
649
718
772
775
694
479
201
-12
-156
-261
-333
-451
-589
-608
-614
-784
-858
-546
-195
-249
-444
-342
-142
-182
-319
-430
-563
-385
230
484
-15
-360
-5
356
318
310
400
324
356
644
578
-25
-434
-337
-190
-227
-261
-181
-63
-43
-123
-148
-82
-24
92
351
556
540
418
275
142
185
377
478
485
438
169
-254
-471
-343
-81
28
-55
-120
-137
-224
-264
-169
-115
-152
-165
-126
-25
130
302
505
639
628
718
953
879
407
44
-16
-29
-84
-124
-222
-341
-319
-297
-404
-303
-15
-160
-641
-712
-396
-205
-233
-454
-879
-1235
-1035
-194
465
201
-305
-118
398
630
689
678
530
394
354
327
334
342
228
125
163
102
-126
-213
-180
-263
-311
-223
-205
-209
-85
-19
-23
209
561
554
249
146
243
187
73
29
-245
-609
-448
43
165
-24
-113
-138
-170
-55
146
182
134
212
158
-221
-402
-71
245
206
182
370
442
267
141
168
112
-122
-377
-493
-450
-455
-659
-812
-666
-396
-174
34
123
104
214
189
-255
-540
-456
-584
-607
-11
329
9
2
469
649
524
433
321
166
50
-53
-119
-117
-118
-125
-109
-152
-228
-192
-102
-116
-171
-146
-107
-56
146
408
569
805
1037
720
17
-186
162
325
192
175
148
-261
-760
-792
-454
-218
-216
-265
-169
38
112
12
-33
33
104
200
356
476
530
591
640
589
495
462
469
424
231
-82
-285
-289
-292
-346
-339
-327
-361
-381
-481
-693
-757
-600
-461
-366
-199
-72
-77
-141
-209
-84
397
757
441
-56
96
609
785
841
1000
704
-56
-441
-297
-179
-251
-336
-346
-295
-254
-199
-62
9
-81
-121
-4
146
310
471
446
262
162
107
-52
-154
-81
-3
-7
-67
-186
-261
-201
-101
-88
-212
-386
-405
-296
-291
-371
-368
-315
-295
-300
-320
-264
20
419
609
572
581
605
435
209
73
-74
-143
-87
-175
-311
-230
-220
-314
-110
-14
-521
-930
-700
-412
-394
-297
-106
-125
-379
-655
-605
-32
480
262
-130
94
546
667
670
719
650
521
501
538
470
296
191
147
-26
-190
-107
-35
-200
-298
-205
-161
-125
18
159
335
555
515
226
120
242
308
361
486
509
503
660
698
431
356
745
1122
1113
843
461
52
-263
-495
-679
-691
-547
-474
-457
-304
-99
-50
-138
-174
-72
-28
-254
-553
-648
-697
-887
-1010
-908
-761
-721
-788
-937
-1006
-792
-423
-220
-243
-269
-161
-73
-186
-372
-355
-24
419
525
238
97
335
604
723
722
537
276
170
153
43
-42
78
207
178
257
431
188
-356
-536
-379
-290
-171
28
17
-132
-69
153
228
108
-41
-58
101
265
307
414
588
434
-15
-183
57
240
157
64
138
218
128
-42
-150
-195
-185
-105
-18
29
102
274
493
602
559
532
598
557
325
110
4
-104
-192
-200
-264
-427
-516
-510
-533
-566
-537
-476
-445
-422
-306
-211
-420
-694
-494
115
747
1087
813
349
604
1154
919
254
40
64
-99
-274
-308
-300
-291
-261
-223
-208
-218
-195
-105
1
43
-1
-26
87
247
239
44
-151
-239
-231
-123
48
163
168
28
-254
-367
-136
-41
-361
-608
-526
-424
-391
-294
-201
-179
-170
-153
-111
11
223
509
837
1076
1192
1404
1728
1731
1230
674
375
135
-148
-326
-438
-655
-881
-918
-900
-1000
-1018
-857
-812
-887
-831
-763
-750
-610
-646
-1108
-1245
-471
524
820
457
184
432
806
825
640
529
436
277
112
-9
-92
-155
-165
-93
-26
-42
-45
10
7
-33
12
67
84
214
441
551
490
333
171
108
108
82
49
-58
-212
-123
36
-211
-439
-92
185
-74
-188
102
295
281
89
-397
-733
-455
-4
105
133
382
596
531
416
501
623
542
362
276
218
110
28
-29
-94
-158
-283
-397
-314
-234
-379
-445
-294
-262
-316
-299
-553
-927
-606
240
643
485
227
-19
-135
86
473
653
537
326
183
73
-39
-101
-143
-227
-283
-250
-177
-57
129
299
415
559
847
1378
2025
2253
1641
559
-251
-570
-656
-667
-626
-593
-598
-609
-541
-347
-307
-749
-1368
-1564
-1326
-1100
-1035
-900
-633
-503
-581
-591
-457
-335
-209
-18
143
254
385
486
506
533
556
491
445
507
482
260
56
-12
-74
-144
-115
-60
-126
-264
-340
-315
-255
-268
-259
-30
116
-181
-319
295
950
915
562
177
-386
-727
-401
112
229
142
170
194
94
-1
-51
-132
-214
-219
-144
4
160
197
131
85
108
209
405
628
774
790
660
503
558
745
698
436
175
-135
-262
92
257
-316
-808
-603
-284
-225
-196
-193
-269
-280
-255
-305
-370
-357
-216
32
206
234
326
553
717
759
732
573
283
4
-139
-66
92
100
79
92
-322
-1086
-1294
-849
-524
-463
-423
-410
-282
-233
-783
-1257
-584
580
1036
803
292
-112
101
678
874
740
697
673
523
338
166
-2
-109
-174
-284
-373
-335
-281
-336
-398
-363
-285
-241
-251
-253
-204
-122
116
552
743
403
-13
-162
-268
-302
-59
26
-358
-524
-31
496
642
746
942
951
612
35
-475
-654
-593
-533
-499
-410
-276
-163
-104
-105
-190
-316
-298
-115
-19
-78
-149
-267
-477
-640
-703
-712
-690
-704
-725
-629
-495
-362
-133
12
-10
-8
-240
-668
-311
780
1260
969
701
474
262
445
821
946
874
740
543
352
209
97
29
6
14
37
23
-11
5
3
-14
141
359
402
532
847
808
408
244
251
79
-57
-29
-46
-87
-101
-108
62
220
-170
-850
-1024
-729
-504
-380
-194
-39
23
47
25
-13
20
109
165
185
210
216
177
140
131
104
81
157
250
154
-65
-152
-141
-262
-469
-525
-441
-427
-488
-468
-405
-459
-557
-552
-580
-679
-469
94
457
510
579
501
244
416
886
754
163
-26
98
14
-150
-184
-241
-328
-329
-352
-403
-287
-83
-7
10
61
81
96
191
395
644
692
455
284
331
295
120
81
156
145
113
168
254
279
56
-493
-875
-676
-359
-413
-532
-420
-302
-280
-222
-152
-133
-94
11
141
256
343
402
433
465
508
495
415
345
306
376
556
445
-132
-575
-515
-351
-293
-202
-220
-466
-745
-901
-762
-375
-334
-681
-527
194
600
607
605
428
149
256
629
785
679
504
350
246
146
16
-101
-183
-242
-263
-256
-239
-220
-224
-221
-198
-225
-272
-235
-91
159
378
308
50
-47
-46
-168
-245
-159
-132
-183
-157
-215
-374
-282
14
125
-2
-313
-697
-740
-382
-133
-152
-165
-130
-132
-68
124
343
529
672
718
701
729
761
651
448
354
384
367
243
99
-25
-182
-440
-726
-856
-775
-595
-482
-464
-374
-352
-748
-1100
-707
51
509
617
394
84
213
639
827
802
722
454
81
-58
17
-58
-278
-238
-8
-11
-71
130
297
298
374
269
-196
-397
-98
137
199
420
604
449
188
46
-29
-46
-42
-20
264
612
300
-490
-733
-348
-61
44
234
357
258
88
-67
-224
-331
-353
-333
-280
-181
-53
91
191
159
99
164
210
87
-41
-91
-168
-232
-251
-326
-422
-441
-432
-482
-627
-761
-683
-463
-387
-444
-381
-61
472
922
854
282
-192
-126
276
536
457
228
99
82
45
-23
-63
-89
-118
-126
-106
-38
62
119
157
220
205
133
212
442
662
778
661
323
71
22
-14
-65
-28
13
-13
68
312
346
-100
-617
-705
-502
-366
-300
-198
-112
-93
-113
-147
-164
-125
-73
-43
44
185
266
397
680
840
819
892
786
147
-431
-413
-293
-481
-689
-741
-753
-698
-562
-537
-608
-520
-385
-488
-484
-143
-221
-782
-448
901
1572
1059
424
152
115
316
523
433
183
30
-20
-62
-146
-260
-346
-383
-387
-318
-190
-161
-272
-361
-357
-313
-245
-175
-99
8
85
175
409
592
513
379
318
257
366
625
713
732
740
288
-420
-623
-493
-611
-766
-656
-504
-478
-507
-555
-613
-614
-482
-275
-151
-77
88
