# session 23
-12
38
-9
87
-3
-517
-751
-495
-366
-370
-231
-203
-279
-169
-103
-238
-228
-74
-67
-96
-53
-84
-88
76
213
233
291
380
342
177
47
1
-69
-135
-133
-197
-250
-136
-296
-1044
-1546
-952
86
190
-615
-825
-23
519
343
235
336
274
170
165
130
86
143
215
186
199
363
486
594
907
1008
460
-122
-131
56
76
83
106
46
-27
-30
49
108
5
-59
77
-122
-879
-1214
-565
168
270
147
166
184
128
60
-20
-94
-114
-99
-81
-64
-67
-101
-115
-88
-60
-44
-33
-39
-19
79
174
180
189
318
480
536
564
774
1154
1330
990
360
-134
-373
-414
-364
-390
-429
-398
-577
-925
-877
-484
-366
-517
-549
-491
-478
-447
-379
-327
-278
-184
-48
60
130
202
227
171
143
174
125
-5
-5
146
157
7
56
259
197
7
50
119
57
99
188
147
122
147
135
173
111
-243
-439
-128
204
155
-11
-45
-29
-64
-99
-17
150
293
440
435
13
-456
-408
-119
-98
-179
-113
-73
-162
-238
-240
-194
-127
-117
-184
-199
-100
-3
28
82
210
358
459
479
477
483
354
132
32
-192
-725
-898
-374
74
32
-44
49
131
164
172
180
232
252
178
105
98
101
74
55
86
120
97
41
-6
35
217
345
341
451
464
-39
-534
-377
9
105
36
-34
-71
-96
-165
-131
-82
-416
-784
-495
42
127
17
102
245
300
274
218
228
247
160
69
50
-12
-97
-107
-121
-141
-89
-105
-219
-188
-63
-82
-141
-78
35
134
124
-77
-270
-256
-151
-109
-122
-93
1
-19
-115
38
71
-565
-998
-442
0
-249
-181
42
-419
-664
-48
320
72
-16
95
84
104
170
161
165
192
207
284
367
354
365
442
426
343
334
304
180
132
166
101
5
26
38
-9
18
22
-56
28
88
-307
-672
-367
75
44
-99
-59
-55
-105
-87
-104
-173
-157
-109
-87
61
284
365
407
439
166
-256
-352
-222
-169
-127
-62
-84
-159
-204
-197
-151
-104
-56
4
54
85
79
92
215
286
267
439
495
-82
-542
-102
399
245
33
89
96
70
94
16
-101
-106
-82
-103
-109
-98
-79
-11
14
-118
-218
-112
-25
-98
-124
-56
-25
-12
26
94
181
213
325
613
580
7
-382
-235
-80
-153
-185
-106
-69
-120
-135
-47
-12
-115
-195
-197
-212
-205
-104
25
115
188
269
339
366
331
238
123
34
-14
-70
-148
-162
-125
-201
-351
-332
-194
-191
-254
-177
-62
-45
-57
-81
-129
-116
-63
-41
-28
-52
-74
-42
-234
-627
-549
31
393
495
570
291
-178
-192
44
53
16
49
5
8
96
75
18
63
95
65
45
67
163
268
272
290
422
503
447
387
378
356
276
145
44
44
15
-144
-197
-89
-250
-641
-578
-112
33
-113
-78
30
-30
-138
-176
-180
-172
-115
-23
-6
-56
-54
-39
-15
108
183
202
403
438
-102
-579
-418
-129
-134
-188
-148
-141
-192
-219
-196
-183
-144
-35
-31
-86
52
-12
-568
-724
-44
494
446
399
483
444
357
278
171
127
128
70
25
38
13
-19
31
64
17
17
95
156
189
204
163
86
36
70
139
108
13
-2
3
-22
44
137
193
390
483
4
-614
-653
-341
-181
-175
-236
-325
-331
-268
-218
-176
-147
-139
-118
-86
-50
-7
10
34
147
259
257
242
240
113
-40
-48
-61
-174
-214
-179
-201
-202
-156
-193
-241
-134
3
-28
-89
16
119
52
-7
-25
-173
-253
-69
54
-47
-56
76
110
116
233
303
345
560
643
210
-284
-287
-82
-56
-67
-9
-47
-161
-126
24
14
-119
-97
-14
-32
81
232
15
-182
169
549
486
380
410
312
174
152
32
-207
-246
-89
-61
-184
-252
-245
-215
-183
-217
-282
-214
-51
-5
-72
-50
79
140
117
162
234
226
313
583
762
758
690
407
-111
-429
-365
-249
-291
-369
-372
-352
-362
-367
-338
-307
-357
-461
-468
-490
-781
-1027
-773
-351
-218
-151
71
253
328
378
315
176
225
421
492
579
909
1203
1322
1613
1998
1899
1261
562
25
-378
-511
-353
-274
-454
-601
-604
-650
-691
-646
-711
-894
-953
-971
-1094
-1020
-706
-691
-906
-588
115
349
155
87
108
51
25
23
-32
-55
30
163
219
179
177
230
215
168
180
183
147
111
60
27
42
31
24
111
166
84
12
36
31
-53
-98
-42
24
41
33
-22
-100
-31
183
277
185
118
163
195
159
165
207
142
99
280
477
580
801
835
282
-292
-296
-97
-70
-64
-31
-76
-124
-64
44
59
-16
-50
-39
-79
-120
-76
-26
-14
34
86
88
125
157
25
-129
-78
6
-102
-276
-369
-401
-364
-276
-228
-221
-187
-136
-98
-46
23
59
25
-26
-42
-71
-118
-97
-68
-131
-181
-180
-209
-140
71
202
258
268
-40
-494
-516
-250
-232
-297
-145
-57
-115
8
57
-359
-649
-290
106
90
52
162
237
303
378
395
426
481
450
367
302
213
134
138
144
79
23
28
40
38
64
105
77
50
176
304
216
115
144
83
2
85
84
12
123
-23
-607
-699
-14
426
247
92
68
-222
-582
-550
-264
-144
-221
-250
-148
-58
-79
-86
4
33
-53
-68
14
49
47
54
70
218
472
510
325
270
323
190
-60
-192
-214
-206
-197
-172
-93
-106
-260
-259
-245
-646
-905
-404
136
119
52
165
152
58
83
131
65
-16
38
102
56
118
314
387
440
570
355
-205
-400
-142
-34
-123
-58
22
-64
-81
45
111
101
110
135
129
62
94
293
188
-345
-435
212
630
407
166
151
83
-43
-108
-162
-223
-249
-256
-260
-233
-154
-83
-97
-122
-40
55
58
56
37
-87
-171
-110
-82
-129
-74
7
-83
-129
65
151
81
365
664
191
-410
-322
-306
-713
-620
-80
34
-119
-55
63
81
86
87
93
117
122
117
143
215
321
388
383
376
371
297
202
162
120
30
-20
20
65
29
-51
-82
-42
3
-35
-111
-54
99
84
-68
-105
-163
-384
-387
-55
105
-45
-168
-222
-270
-170
-19
5
28
-11
-339
-634
-506
-247
-194
-223
-217
-205
-181
-199
-263
-260
-224
-236
-193
-89
-74
-96
0
168
314
401
403
372
362
346
321
253
117
90
111
-207
-581
-359
103
141
43
161
259
243
263
306
327
308
217
130
114
124
143
161
138
90
55
122
321
392
291
467
756
393
-305
-355
27
70
-88
-61
-7
-54
-94
-133
-152
-85
-127
-346
-362
-94
44
-13
10
91
117
164
205
139
37
-35
-105
-132
-112
-133
-169
-135
-120
-189
-210
-136
-127
-224
-259
-159
-49
-26
-43
-24
1
-56
-171
-212
-149
-82
-98
-143
-24
244
323
220
270
135
-621
-1203
-804
-135
-24
-151
-112
-44
-19
37
66
18
-17
33
77
37
50
189
284
294
347
387
343
334
335
220
97
66
7
-72
-44
16
-2
-12
36
60
51
6
-94
-40
177
-5
-581
-621
-59
145
-78
-103
10
-6
-44
-90
-106
50
207
229
305
303
-49
-376
-274
-73
-94
-120
-41
-47
-122
-86
-13
-48
-75
17
90
35
-51
-27
118
227
209
249
378
327
205
253
34
-569
-666
-84
224
50
-8
111
145
116
102
101
101
89
111
191
230
183
147
147
82
4
47
96
36
-1
7
0
102
262
388
685
890
377
-391
-486
-213
-244
-329
-242
-260
-275
-130
-238
-576
-491
-80
9
-157
-191
-131
-81
1
85
130
154
163
154
126
64
-10
-71
-127
-160
-145
-147
-212
-258
-240
-234
-245
-222
-199
-164
-55
15
-54
-118
-78
-22
-10
-60
-121
-56
42
60
241
424
65
-303
117
515
79
-350
-187
-2
-7
40
76
46
35
5
-28
14
48
24
32
40
-26
-36
81
175
170
130
145
283
424
357
197
191
234
154
68
71
46
-19
-29
-29
-53
-27
-3
-45
-14
108
103
-45
-162
-209
-188
-109
-114
-199
-181
-120
-90
70
259
280
352
419
57
-412
-376
-131
-152
-236
-193
-168
-162
-103
-82
-99
-23
99
110
48
57
125
166
244
417
484
367
338
216
-520
-1319
-1135
-348
12
1
31
-19
-110
-20
66
-51
-145
-45
59
32
-1
58
164
187
48
6
274
456
321
289
364
90
-284
-244
-12
28
-14
43
109
78
49
93
59
-12
57
-126
-832
-1138
-417
342
385
293
409
408
299
251
150
-12
-73
-58
-66
-72
-52
-56
-86
-94
-71
-43
-21
-19
-54
-97
-76
-10
-4
-68
-85
7
112
86
-25
-24
64
43
11
71
33
35
212
-108
-928
-939
9
654
713
586
217
-107
-5
134
50
25
79
51
22
26
4
6
39
34
21
49
97
165
233
252
270
349
392
330
288
317
252
80
-14
-52
-154
-202
-201
-389
-603
-530
-461
-610
-537
-182
-71
-230
-283
-246
-262
-263
-223
-195
-195
-210
-180
-107
-63
32
195
219
195
333
274
-174
-421
-253
-148
-185
-132
-106
-183
-174
-62
-10
-44
-73
-77
-66
10
117
154
247
393
202
-138
75
574
566
266
226
280
199
131
148
150
108
67
58
89
114
70
26
105
223
224
186
198
153
60
80
153
136
140
207
124
-29
69
267
311
436
551
110
-533
-519
-208
-426
-774
-548
-124
-74
-235
-323
-360
-371
-348
-327
-275
-164
-76
-31
51
158
210
241
290
283
186
94
39
-62
-189
-219
-146
-106
-151
-177
-115
-43
-40
-79
-117
-119
-51
40
63
46
19
-68
-118
-64
-135
-322
-250
18
120
158
316
502
661
591
97
-351
-288
-76
-69
-73
-32
-66
-74
-17
-20
-44
-31
-36
3
120
153
103
171
320
368
381
488
568
471
324
250
107
-78
-49
-41
-401
-607
-242
8
-227
-342
-198
-183
-212
-106
-48
-83
-98
-120
-155
-133
-69
-15
0
-21
-59
-85
-13
163
259
318
559
618
78
-467
-372
-77
-72
-132
-128
-218
-287
-201
-130
-115
-24
-21
-142
-21
89
-389
-800
-310
374
463
378
465
465
327
217
173
152
93
-5
-47
-21
-27
-76
-81
-51
-61
-78
-25
74
153
153
102
110
142
74
-4
26
57
11
-69
-96
45
197
173
313
522
-51
-1043
-1060
-302
-30
-240
-291
-232
-223
-179
-143
-158
-134
-84
-67
-36
6
18
58
137
184
234
332
372
291
195
167
151
62
-51
-84
-77
-105
-122
-137
-194
-174
-63
-34
-49
-19
-51
-25
129
-87
-628
-579
24
241
63
59
190
226
166
118
212
338
442
768
991
489
-212
-259
-18
-51
-88
36
44
-57
-83
-88
-101
-35
17
-23
-8
99
130
96
138
215
237
227
237
243
154
-34
-152
-108
-45
-98
-221
-312
-338
-316
-266
-216
-221
-267
-237
-114
-13
8
-36
-78
-38
-3
-89
-157
-98
-59
-134
-212
-131
115
260
263
421
515
58
-524
-554
-269
-146
-148
-98
-36
-75
-100
-41
-325
-951
-960
-218
195
79
150
380
400
393
491
538
535
474
278
151
194
123
-54
-24
69
-55
-177
-86
19
1
-44
-59
-44
27
130
175
128
95
129
91
4
63
94
-40
25
79
-457
-836
-195
559
543
209
-132
-479
-483
-213
-146
-244
-242
-187
-159
-123
-71
-27
-17
-41
-46
-18
-9
10
111
206
221
268
366
367
299
284
210
-10
-187
-208
-211
-247
-212
-141
-129
-85
-11
-118
-317
-256
-19
80
97
154
187
202
202
126
78
126
132
93
96
78
108
281
381
455
786
875
218
-387
-255
-4
-50
-19
86
-7
-129
-122
-130
-171
-161
-153
-145
-75
-19
-38
-13
83
121
142
299
465
404
160
-69
-199
-235
-221
-201
-181
-161
-155
-134
-85
-56
-63
-69
-68
-61
-26
2
-33
-85
-128
-193
-189
-103
-161
-234
-9
-19
-738
-1208
-629
184
445
349
28
-386
-322
112
-47
-777
-954
-418
-2
100
157
141
85
125
199
244
275
281
283
331
421
499
501
470
473
407
225
104
126
144
74
-15
-15
71
70
-67
-94
82
185
87
26
126
220
173
55
-17
-62
-207
-409
-409
-156
4
-133
-262
-111
76
85
122
152
-189
-644
-598
-257
-176
-241
-176
-117
-154
-179
-184
-182
-157
-185
-261
-220
-70
10
34
131
253
332
385
346
203
98
37
-36
-25
-38
-221
-267
-204
-603
-1078
-734
-59
84
2
63
105
198
365
337
170
126
207
318
447
591
726
812
942
1281
1642
1528
844
125
-212
-314
-402
-413
-336
-316
-351
-335
-316
-382
-444
-416
-434
-565
-657
-673
-699
-631
-410
-256
-266
-244
-123
-46
-59
-85
-106
-141
-156
-124
-79
-54
-29
21
72
85
77
100
160
216
254
330
487
642
752
941
1209
1398
1461
1266
657
20
-166
-125
-201
-265
-210
-156
-169
-237
-256
-136
-36
-131
-299
-343
-285
-260
-290
-304
-284
-230
-122
10
136
276
387
420
408
364
288
234
213
178
121
67
63
130
180
147
72
11
-11
-20
-98
-185
-149
-117
-219
-294
-292
-349
-340
-127
35
-56
-245
-377
-429
-405
-354
-303
-261
-279
-256
-89
14
37
238
289
-224
-709
-591
-347
-391
-451
-411
-439
-499
-484
-452
-467
-469
-405
-371
-421
-397
-238
-130
-117
-51
55
121
163
109
-53
-98
-12
-73
-252
-283
-217
-218
-213
-140
-85
-72
-50
-30
-34
0
109
183
157
146
180
147
98
184
316
364
389
437
549
843
1171
1335
1619
2007
1696
646
-1
106
181
50
135
194
-115
-309
7
320
194
