# session 48
1
-109
-63
-40
-135
-163
-74
-46
-144
-242
-176
18
115
90
63
-111
-468
-614
-431
-271
-253
-230
-208
-205
-171
-162
-205
-224
-206
-173
-122
-91
-59
52
180
217
216
264
305
202
-2
-69
16
23
-62
-101
-103
-92
-58
-60
-63
16
77
30
2
64
114
122
118
75
24
34
67
82
92
77
40
24
23
63
165
190
192
457
737
449
-172
-432
-310
-180
-138
-157
-207
-210
-166
-145
-143
-119
-87
-70
-46
-2
19
24
94
210
254
214
174
158
125
39
-91
-179
-169
-137
-168
-225
-255
-253
-237
-236
-236
-207
-195
-212
-148
-18
1
-94
-137
-107
-91
-93
-90
-65
-5
8
-19
100
274
274
291
328
-44
-520
-405
-36
-7
-94
-70
-54
7
87
17
-30
110
169
64
94
246
247
216
367
508
488
496
555
492
370
302
202
74
35
33
-33
-94
-67
-20
-45
-108
-140
-120
-62
-36
-82
-87
-13
-33
-179
-240
-172
-137
-167
-161
-100
-69
-89
-40
95
211
344
411
75
-446
-512
-270
-254
-308
-198
-164
-231
-156
-23
-35
-100
-66
-2
1
14
99
185
231
281
332
339
324
304
230
104
8
-39
-74
-90
-78
-63
-52
-51
-86
-104
-54
-34
-92
-61
95
151
73
54
83
13
-75
-55
-12
-27
-30
-40
-119
-107
59
150
225
462
424
-146
-553
-395
-206
-279
-328
-272
-261
-295
-290
-246
-208
-173
-107
-49
-36
4
101
170
194
239
301
324
286
200
99
23
-11
-30
-58
-92
-124
-155
-197
-206
-121
-35
-74
-128
-48
72
105
89
74
76
102
113
99
116
144
138
111
67
86
228
300
313
597
834
396
-254
-322
-93
-58
-73
-59
-113
-79
27
-63
-219
-125
26
-55
-178
-127
-16
56
133
217
276
303
296
250
156
39
-58
-143
-219
-238
-236
-295
-352
-314
-259
-272
-267
-177
-99
-84
-42
18
-33
-144
-166
-159
-194
-159
-83
-100
-126
-120
-130
-10
199
277
394
510
124
-468
-472
-150
-140
-227
-104
6
-26
-73
-76
-37
-33
-149
-201
-26
145
163
238
404
458
416
435
463
369
214
141
104
7
-63
-50
-69
-119
-97
-81
-133
-108
-21
-21
-19
85
141
97
91
127
109
59
55
77
50
-3
3
7
-39
17
161
193
162
92
-223
-578
-540
-300
-244
-270
-217
-178
-174
-145
-122
-137
-151
-127
-87
-66
-40
24
98
187
304
350
289
264
296
228
86
20
-19
-120
-176
-141
-132
-154
-110
-44
-42
-24
71
157
238
437
697
870
1004
1213
1422
1392
964
328
-142
-337
-392
-396
-419
-491
-508
-452
-461
-524
-540
-580
-679
-698
-654
-669
-633
-434
-220
-91
34
154
188
147
86
35
-6
-41
-50
-59
-108
-136
-112
-125
-176
-178
-144
-128
-113
-88
-62
-30
-15
-44
-71
-41
5
-19
-101
-133
-59
53
95
48
-18
-25
27
53
16
16
65
0
-104
51
298
301
348
574
376
-237
-446
-205
-101
-127
-52
-1
-21
1
25
6
19
56
52
55
114
170
197
256
358
445
496
504
430
289
213
225
175
38
-16
14
-30
-101
-80
-56
-73
-43
-32
-77
-30
68
45
1
25
-50
-198
-204
-132
-158
-202
-171
-176
-225
-136
71
158
182
295
202
-252
-554
-418
-238
-247
-250
-188
-191
-253
-254
-170
-101
-96
-69
15
82
120
179
277
403
476
445
439
459
316
146
108
-124
-520
-475
-86
16
-110
-113
-66
-62
-53
-57
-54
-1
57
96
125
116
87
75
49
7
21
84
104
66
47
105
179
192
319
685
797
251
-361
-388
-138
-95
-174
-198
-190
-188
-206
-222
-198
-176
-207
-238
-213
-156
-90
-6
88
172
237
268
250
187
77
-67
-176
-191
-189
-244
-287
-254
-199
-175
-170
-163
-168
-204
-187
-57
36
-2
-37
-30
-69
-107
-74
-44
-56
-30
58
85
51
119
212
201
321
542
345
-180
-376
-214
-91
-49
11
39
8
-42
-30
43
55
1
15
57
39
66
162
176
146
211
271
241
232
229
131
31
3
-31
-77
-91
-96
-103
-109
-143
-167
-130
-84
-93
-104
-46
36
45
-8
-27
9
48
58
33
11
33
3
-64
76
324
360
408
613
416
-221
-494
-281
-162
-182
-108
-88
-165
-144
-112
-140
-38
7
-181
-59
263
-193
-877
-425
472
556
325
400
416
260
162
84
-18
-73
-86
-83
-84
-96
-92
-91
-110
-95
-86
-127
-69
102
128
11
1
63
25
-27
-1
13
1
12
-7
-12
119
245
267
333
269
-170
-524
-408
-223
-242
-254
-241
-274
-248
-175
-124
-75
-73
-86
-2
72
20
-9
109
279
343
272
242
315
260
48
-79
-108
-147
-164
-191
-268
-288
-241
-205
-152
-95
-92
-73
-42
-53
69
337
427
392
516
480
44
-259
-135
26
35
36
47
26
7
16
32
31
40
68
56
39
117
209
197
184
259
311
279
212
118
13
-38
-49
-69
-83
-88
-123
-172
-193
-186
-184
-202
-214
-206
-210
-244
-272
-270
-258
-258
-254
-211
-155
-145
-151
-110
-52
-34
-37
-32
-33
-33
-4
15
-18
-30
12
11
28
163
254
304
519
549
55
-370
-248
-39
-55
-46
20
6
12
100
147
118
105
125
126
110
120
163
210
240
272
321
351
339
314
265
175
88
16
-39
-27
-6
-76
-115
-61
-115
-235
-159
-20
-71
-140
-70
-32
-84
-102
-96
-118
-119
-90
-112
-180
-194
-178
-214
-191
-40
42
10
-20
-194
-513
-557
-281
-128
-185
-219
-203
-179
-122
-100
-158
-181
-103
-35
-65
-102
-9
189
362
452
501
571
666
673
490
275
213
130
-66
-58
29
-321
-726
-466
27
58
-116
-107
-17
45
93
113
108
78
25
0
-8
-27
-7
20
-37
-84
21
165
200
278
520
571
156
-288
-294
-69
37
-1
-54
-29
26
1
-59
-76
-77
-70
-55
-47
-12
56
110
150
203
256
282
265
201
101
-8
-70
-84
-149
-250
-245
-188
-230
-298
-272
-226
-213
-191
-173
-153
-63
36
21
-47
-59
-62
-76
-49
-43
-85
-79
-64
-66
61
241
336
482
506
90
-323
-235
-24
-35
-56
-23
-49
-54
2
28
21
26
37
58
105
145
145
162
232
294
332
380
370
250
106
7
-48
-76
-127
-193
-172
-110
-148
-225
-207
-156
-168
-201
-204
-180
-142
-132
-171
-217
-231
-232
-230
-215
-198
-164
-107
-74
-25
89
135
131
267
301
-76
-456
-391
-172
-154
-182
-63
50
-10
-94
-37
58
80
100
154
180
174
232
361
367
205
194
427
545
412
276
208
103
8
-10
-7
-26
-62
-87
-68
-28
-28
-74
-75
43
163
110
-1
29
72
-11
-46
34
32
-34
3
22
-28
78
254
296
433
563
153
-417
-397
-163
-250
-379
-422
-484
-369
-184
-226
-262
-140
-137
-198
-108
-22
-1
104
227
286
348
359
288
232
137
-37
-137
-172
-268
-298
-197
-177
-280
-294
-172
-77
-118
-198
-146
-4
45
4
-15
-12
-33
-54
-72
-153
-242
-174
-30
-12
15
190
312
383
502
338
-183
-444
-229
-23
-37
-78
-83
-69
-9
5
-85
-84
87
183
96
62
195
316
332
359
436
489
495
472
407
304
184
55
-47
-84
-115
-191
-233
-205
-187
-187
-144
-107
-116
-41
187
421
585
769
971
1126
1226
1098
550
-131
-479
-523
-557
-623
-644
-643
-627
-604
-663
-770
-767
-687
-700
-765
-750
-669
-553
-384
-214
-60
122
253
260
231
211
183
177
171
132
120
144
121
79
92
116
104
119
152
118
77
105
88
26
69
126
61
-5
0
31
111
156
61
0
76
84
-17
-43
1
14
22
23
16
59
116
223
456
487
36
-417
-400
-207
-187
-237
-239
-216
-194
-197
-195
-147
-102
-93
-83
-60
-16
49
89
110
177
255
247
198
208
221
145
49
26
24
-20
-60
-50
-16
6
2
-22
-47
-38
30
104
98
23
-44
-83
-100
-61
17
29
-41
-43
39
24
-24
120
322
412
485
384
-65
-428
-320
-64
-37
-117
-88
-19
-49
-86
-17
32
-31
-52
41
111
124
192
305
377
426
467
480
457
330
110
-10
-116
-462
-713
-472
-205
-307
-367
-208
-196
-345
-346
-200
-116
-98
-37
14
-35
-118
-161
-158
-126
-134
-176
-162
-145
-134
38
219
191
264
456
178
-381
-427
-108
-35
-110
-78
-52
-81
-76
-60
-69
-64
-18
52
115
160
205
258
311
362
404
425
419
370
274
158
58
7
0
-19
-48
-69
-111
-124
-61
-24
-60
-92
-89
-25
74
70
-22
-46
-27
-55
-73
-50
-40
-48
-58
-87
-83
8
97
139
173
23
-386
-633
-475
-266
-240
-240
-197
-158
-115
-86
-72
-51
-80
-127
-54
43
25
50
180
223
210
279
347
364
359
273
133
37
-31
-64
-35
-14
-27
-31
-31
0
75
97
58
72
151
207
199
145
89
56
44
63
95
93
73
50
19
57
162
223
387
716
701
127
-340
-277
-103
-154
-255
-239
-188
-182
-186
-191
-220
-200
-98
-40
-56
-34
24
52
103
200
271
282
222
100
-24
-129
-231
-310
-363
-383
-339
-305
-324
-284
-210
-256
-315
-234
-159
-194
-196
-135
-149
-244
-293
-227
-132
-116
-105
-42
-27
-2
157
326
430
446
152
-299
-404
-215
-75
-18
-98
-319
-501
-622
-560
-147
240
255
156
167
256
367
373
344
523
748
720
613
635
579
321
142
182
155
-26
-64
51
45
-44
-47
-9
27
51
39
91
217
227
133
103
67
-50
-77
2
-12
-88
-78
-66
-88
6
131
126
119
67
-245
-519
-401
-199
-203
-207
-124
-127
-210
-228
-175
-143
-149
-134
-92
-59
-28
14
70
165
269
338
372
329
209
135
96
-53
-213
-224
-200
-230
-211
-165
-153
-79
10
-38
-112
-62
11
37
66
85
70
44
31
56
70
15
-5
53
39
14
134
221
313
725
957
348
-386
-364
-105
-193
-273
-161
-137
-187
-144
-92
-114
-132
-105
-72
-48
-25
-1
37
102
176
223
216
168
106
40
-30
-100
-162
-196
-187
-157
-146
-189
-253
-231
-147
-143
-181
-133
-36
12
-26
-110
-129
-97
-118
-138
-84
-23
-41
-125
-106
68
174
228
315
63
-465
-533
-179
-52
-81
11
39
-24
3
37
-7
-22
20
61
85
69
44
113
254
324
324
382
483
505
441
330
187
86
55
2
-74
-66
-16
-62
-150
-127
-53
-69
-93
-48
-29
-40
-50
-167
-319
-293
-168
-139
-184
-218
-187
-110
-113
-84
205
555
681
636
402
-13
-243
-159
-67
-51
-20
-56
-152
-140
-59
-54
-52
6
3
-31
35
117
159
262
377
419
413
322
249
284
18
-590
-689
-175
9
-200
-149
-32
-172
-203
-69
-106
-153
-39
-9
-36
53
75
-15
-24
-24
-85
-74
-39
-52
-13
12
-16
100
280
349
465
515
153
-268
-254
-77
-78
-126
-128
-140
-141
-130
-135
-127
-109
-115
-118
-83
-34
9
82
176
238
286
335
322
240
137
10
-100
-145
-198
-268
-256
-204
-215
-251
-238
-181
-142
-159
-128
2
36
-85
-125
-40
-36
-116
-133
-111
-86
-4
53
12
81
299
384
395
511
384
-85
-302
-118
2
-36
-35
-12
-10
-17
-21
22
63
33
30
72
58
74
179
206
164
217
278
251
247
260
188
90
19
-59
-108
-132
-190
-221
-178
-164
-199
-191
-162
-178
-173
-114
-76
-88
-105
-119
-136
-122
-69
-41
-48
-45
-58
-54
56
133
120
286
470
128
-417
-406
-92
-94
-222
-161
-87
-96
-84
-63
-39
-20
-65
9
171
-74
-501
-299
261
411
355
452
487
387
289
174
60
-1
-40
-57
-53
-67
-85
-78
-31
18
-34
-109
11
191
130
-8
42
105
35
-5
22
24
53
112
75
5
98
272
342
375
366
59
-483
-743
-530
-253
-212
-236
-206
-226
-238
-161
-123
-152
-118
-33
-1
-9
39
135
180
208
297
313
220
205
195
10
-158
-146
-139
-198
-188
-147
-152
-137
-84
-78
-123
-136
-84
-17
0
-26
-40
-38
-67
-91
-42
9
7
36
67
14
48
242
378
521
756
630
49
-287
-139
4
-31
-59
-51
-26
36
54
-17
-67
-31
5
-1
21
59
56
92
226
347
384
382
342
252
140
29
-42
-36
-27
-112
-242
-316
-312
-252
-178
-149
-158
-142
-85
-23
15
16
-14
-41
-67
-100
-81
-39
-49
-36
-35
-132
27
452
386
-25
66
123
-465
-703
-205
64
-37
-73
-127
-63
37
-504
-1205
-869
23
313
193
197
232
250
311
316
308
382
417
343
254
189
113
35
-4
13
50
40
-27
-67
-40
-17
-12
26
33
-40
-65
11
52
3
-46
-55
-49
-5
36
-42
-69
135
57
-555
-732
-1
521
119
-462
-543
-319
-156
-137
-169
-159
-121
-120
-132
-98
-77
-100
-91
-49
-30
-2
44
106
209
270
330
511
316
-660
-1405
-939
-74
152
-11
-70
-2
50
-63
-139
160
516
501
266
-28
-219
-2
342
337
214
213
161
98
149
202
207
185
147
206
337
427
565
606
210
-267
-257
-45
-48
-80
-18
12
43
81
44
50
172
243
201
164
170
217
302
351
351
363
340
214
99
76
25
-119
-229
-250
-264
-286
-290
-317
-347
-296
-217
-230
-271
-226
-149
-123
-130
-144
-176
-225
-222
-132
-85
-136
-136
-100
-134
-59
122
133
188
466
354
-289
-588
-304
-103
-188
-257
-217
-127
-38
-16
-43
-49
-31
-27
-46
-42
16
