# session 0
84
-46
-174
-287
-401
-579
-832
-1078
-1251
-1358
-1377
-1252
-1056
-942
-901
-819
-705
-632
-585
-560
-605
-685
-715
-715
-780
-917
-1036
-1089
-1152
-1301
-1479
-1591
-1640
-1684
-1741
-1827
-1973
-2170
-2364
-2507
-2579
-2572
-2496
-2350
-2117
-1819
-1544
-1345
-1163
-951
-759
-635
-563
-547
-594
-656
-679
-685
-703
-653
-435
-117
130
263
314
275
206
215
267
303
414
637
900
1113
1065
642
200
91
163
192
224
267
251
230
259
278
293
395
570
701
751
786
859
948
1020
1060
1035
944
844
781
733
678
632
620
640
681
735
790
847
897
908
870
811
732
612
484
394
336
283
237
215
231
266
264
181
37
-121
-285
-423
-441
-300
-57
268
662
991
1134
1125
1064
983
840
599
323
97
-100
-331
-566
-732
-810
-815
-758
-641
-469
-257
-16
274
625
948
1128
1175
1161
1074
889
674
514
421
364
305
218
96
-32
-126
-206
-331
-477
-582
-630
-605
-510
-423
-439
-674
-1176
-1654
-1714
-1420
-1109
-888
-707
-590
-539
-505
-495
-536
-603
-648
-646
-567
-385
-150
22
65
7
-105
-274
-509
-766
-981
-1089
-1034
-827
-528
-165
201
460
602
685
670
550
482
503
437
238
42
-110
-280
-445
-506
-433
-290
-148
-17
114
237
338
409
460
514
538
488
423
430
486
542
613
693
719
683
631
564
458
334
219
115
32
-38
-114
-160
-145
-102
-30
100
214
216
123
-29
-216
-354
-414
-465
-492
-440
-365
-326
-276
-207
-158
-117
-52
5
-28
-175
-305
-311
-257
-170
-88
-210
-467
-436
-89
172
240
302
410
501
555
587
617
613
513
334
176
104
91
64
1
-73
-163
-251
-273
-237
-242
-301
-344
-376
-433
-460
-399
-310
-278
-278
-251
-206
-149
1
269
469
389
76
-247
-456
-533
-472
-339
-220
-93
71
181
192
174
143
62
-33
-83
-80
-62
-114
-233
-246
-85
95
220
387
621
857
1052
1125
1022
836
663
475
286
184
154
107
35
-6
-2
24
58
84
91
100
114
88
-6
-132
-254
-341
-344
-253
-122
-18
65
193
367
533
701
764
482
-24
-316
-332
-361
-449
-450
-367
-286
-261
-316
-387
-348
-178
7
125
185
204
171
119
88
83
122
227
370
520
630
570
289
-61
-349
-592
-785
-887
-923
-899
-773
-566
-370
-249
-210
-206
-186
-150
-121
-87
-28
45
109
155
173
151
108
82
63
24
-11
-35
-99
-223
-364
-481
-577
-664
-743
-814
-875
-869
-746
-546
-351
-172
24
218
335
315
175
8
-99
-124
-99
-77
-81
-78
-48
0
63
114
123
146
243
355
428
509
609
655
620
553
472
394
391
448
483
503
400
-31
-536
-608
-312
-47
137
334
498
603
650
634
628
643
562
378
202
44
-143
-298
-357
-358
-350
-322
-253
-146
1
187
395
592
733
759
668
548
467
402
312
183
55
0
20
47
34
-47
-193
-314
-310
-190
-38
39
-22
-165
-288
-365
-384
-311
-183
-61
81
287
509
652
666
576
416
246
207
322
353
179
11
-15
-12
-48
-50
16
100
184
311
433
385
124
-233
-603
-940
-1163
-1242
-1223
-1140
-1026
-923
-836
-753
-680
-620
-590
-610
-624
-570
-497
-474
-518
-613
-631
-442
-264
-401
-624
-556
-348
-282
-279
-220
-158
-149
-247
-390
-327
-27
181
153
104
127
80
-84
-247
-314
-262
-86
187
456
657
834
918
734
438
436
729
944
936
802
596
372
232
183
137
56
-26
-88
-158
-243
-292
-282
-244
-170
-66
20
90
197
308
358
376
419
466
476
491
559
635
684
734
768
716
590
445
290
152
86
76
51
30
96
246
421
582
653
565
360
145
-27
-185
-331
-323
-24
407
664
697
656
587
484
390
304
186
28
-163
-319
-351
-295
-210
-118
-176
-435
-556
-336
-50
80
151
241
303
307
256
184
125
36
-156
-434
-705
-920
-1089
-1212
-1260
-1244
-1187
-1098
-999
-930
-899
-915
-979
-1028
-990
-887
-788
-707
-610
-460
-264
-109
-73
-107
-133
-174
-250
-290
-263
-242
-241
-161
32
225
351
446
484
408
295
223
132
4
-56
-14
55
126
233
367
455
419
266
86
-69
-182
-216
-187
-182
-205
-181
-130
-133
-152
-84
83
291
483
609
663
692
721
717
661
583
519
478
451
443
473
535
626
742
817
800
714
593
477
435
447
489
599
603
290
-46
-2
216
239
146
109
60
-45
-124
-121
-13
197
440
628
707
659
534
389
225
64
-36
-108
-212
-305
-350
-408
-499
-549
-538
-507
-452
-357
-270
-210
-122
-2
86
133
184
262
349
380
330
253
146
-43
-277
-519
-831
-1175
-1385
-1426
-1375
-1259
-1092
-923
-778
-697
-744
-893
-1025
-1104
-1193
-1273
-1226
-1045
-840
-663
-501
-365
-220
-22
179
323
434
506
509
517
615
709
693
634
582
464
332
327
385
374
369
486
650
738
755
741
621
327
-5
-187
-242
-295
-365
-372
-210
47
114
-60
-201
-239
-281
-240
-74
42
87
193
328
386
370
317
251
201
163
137
123
92
67
113
201
259
301
356
399
392
344
299
262
195
114
81
104
147
211
307
407
460
431
338
257
242
266
277
276
316
451
655
802
814
737
615
425
206
44
-56
-143
-234
-334
-460
-608
-732
-783
-743
-612
-404
-195
-60
33
147
240
243
178
115
87
75
76
111
154
135
65
12
-43
-153
-269
-329
-369
-451
-563
-662
-745
-826
-893
-958
-1057
-1146
-1150
-1051
-834
-530
-239
17
180
40
-334
-541
-500
-476
-534
-592
-646
-625
-463
-283
-178
-62
104
220
245
242
255
265
228
131
53
100
206
166
-22
-105
25
188
242
246
272
306
331
337
303
234
185
203
278
363
405
374
309
278
290
299
292
297
314
296
250
240
265
268
276
343
431
484
518
539
509
422
301
159
45
9
24
55
146
302
437
505
518
467
375
281
152
-15
-70
88
390
722
966
1014
883
673
445
222
30
-117
-199
-235
-278
-345
-438
-543
-592
-571
-560
-532
-389
-171
62
271
263
-14
-214
-119
46
73
1
-160
-467
-863
-1178
-1298
-1258
-1169
-1076
-966
-849
-732
-615
-526
-471
-430
-474
-668
-869
-895
-828
-805
-736
-508
-226
-37
40
52
49
60
59
3
-75
-92
-22
94
191
222
211
222
249
223
133
43
17
80
235
438
610
706
726
683
614
548
455
298
92
-99
-183
-144
-115
-184
-248
-238
-213
-166
-11
203
331
341
334
367
389
384
409
448
413
324
260
236
270
410
612
775
869
896
853
797
771
720
600
443
291
169
94
89
206
446
733
967
943
498
-59
-257
-164
-57
118
405
620
696
699
628
481
288
60
-140
-272
-383
-430
-307
-141
-144
-267
-389
-542
-706
-754
-677
-571
-473
-386
-310
-265
-316
-493
-729
-966
-1195
-1407
-1567
-1616
-1508
-1301
-1108
-958
-834
-770
-781
-800
-766
-722
-710
-681
-607
-543
-504
-464
-450
-464
-447
-387
-314
-215
-90
-18
-21
5
80
115
172
395
684
813
737
581
446
317
162
67
97
162
235
388
559
646
728
866
958
962
915
738
388
71
-13
36
37
-16
-62
-86
-80
-18
141
404
708
908
815
454
227
372
590
615
591
641
671
661
666
687
720
750
723
642
576
539
490
416
333
259
189
106
39
19
6
-33
-61
-63
-48
-3
59
82
37
-53
-155
-231
-219
-91
97
269
387
406
288
89
-103
-252
-351
-398
-406
-376
-323
-329
-445
-617
-760
-837
-854
-838
-812
-784
-752
-710
-647
-547
-410
-285
-258
-345
-471
-581
-675
-734
-715
-634
-568
-525
-443
-361
-374
-433
-445
-443
-472
-476
-430
-388
-367
-348
-343
-359
-344
-277
-211
-185
-184
-192
-241
-312
-271
-75
165
418
618
515
164
15
159
279
318
407
451
335
187
152
207
298
428
570
650
652
633
655
729
767
679
509
327
134
14
82
211
199
66
-74
-176
-165
16
301
588
787
832
760
679
634
599
548
464
369
315
320
358
401
443
496
545
546
485
401
313
206
80
-23
-47
17
95
121
120
146
180
182
170
173
230
395
597
675
606
468
278
68
-88
-204
-347
-495
-583
-619
-675
-765
-818
-817
-828
-848
-842
-903
-1093
-1222
-1103
-841
-599
-362
-120
29
73
95
61
-79
-222
-297
-353
-362
-343
-512
-830
-919
-723
-547
-488
-466
-481
-515
-538
-550
-504
-486
-715
-1049
-1066
-792
-588
-478
-286
-88
-41
-86
-100
-98
-121
-120
-82
-77
-81
31
253
420
439
377
306
223
162
195
323
486
667
857
1012
1107
1156
1163
1111
1039
991
920
773
607
505
483
496
454
325
191
96
-21
-148
-182
-109
-14
67
147
214
236
223
214
212
170
89
40
63
127
195
274
367
438
483
566
690
751
703
591
461
352
277
202
146
182
288
357
366
380
416
423
392
346
251
97
-10
-11
9
0
-54
-308
-771
-1073
-980
-723
-525
-373
-324
-517
-915
-1287
-1374
-1143
-833
-617
-428
-208
-17
135
295
466
592
618
506
246
-143
-572
-895
-1029
-1018
-949
-858
-772
-751
-808
-878
-943
-1006
-1006
-1014
-1204
-1424
-1339
-1022
-758
-545
-295
-85
39
92
45
-62
-124
-107
-34
75
190
278
286
196
106
107
151
165
130
58
-6
9
136
357
619
890
1163
1371
1404
1290
1165
1051
871
613
366
223
163
70
-44
-43
67
159
236
374
542
673
760
821
851
832
767
690
632
607
614
594
523
534
710
929
1082
1076
745
225
-44
-13
-9
-92
-130
-165
-250
-291
-245
-156
-44
57
92
79
33
-100
-291
-452
-548
-478
-154
197
333
352
366
283
102
-62
-177
-270
-363
-502
-693
-876
-990
-1006
-941
-859
-790
-688
-533
-374
-262
-201
-171
-155
-152
-167
-195
-235
-310
-415
-494
-501
-479
-503
-568
-611
-649
-746
-875
-970
-1035
-1065
-1026
-967
-984
-1052
-1092
-1084
-995
-782
-516
-309
-195
-181
-220
-187
-40
118
231
330
397
411
444
547
665
732
738
693
610
529
523
599
657
643
644
709
740
644
477
427
566
612
270
-208
-359
-197
-5
186
414
542
499
437
432
361
293
530
984
1142
881
593
492
522
632
685
524
270
141
177
335
555
732
820
860
888
937
989
940
725
415
147
15
13
80
160
231
280
279
239
228
279
365
446
476
497
561
471
154
-62
-192
-666
-1277
-1407
-1178
-1141
-1211
-1061
-1018
-1186
-965
-802
-1290
-987
-189
-2104
-5475
-5570
-3531
-3331
-3917
-3438
-3233
-3502
-3078
-2906
-3333
-1766
2154
4751
4588
4013
4051
3843
3424
3180
2914
2640
2497
2335
2128
1999
1895
1737
1577
1452
1331
1226
1153
1063
940
876
905
970
1035
959
587
167
74
191
199
117
73
35
-26
-77
-131
-205
-273
-328
-399
-487
-567
-636
-713
-788
-840
-885
-930
-958
-997
-1043
-1025
-1016
-1081
-1058
-1030
-1188
-1152
-975
-1710
-3109
-3401
-2527
-2062
-2139
-1983
-1888
-2027
-1808
-1638
-2293
-2861
-2395
-1815
-1871
-1952
-1793
-1751
-1771
-1691
-1645
-1645
-1589
-1647
-2025
-2479
-2570
-2237
-1443
8
1489
2009
2039
2553
3034
2717
2048
1514
1080
786
574
451
851
1736
2492
3199
4275
5348
5895
5810
5062
4062
3557
3572
3629
3711
3948
4104
4014
3779
3421
2948
2514
2173
1848
1505
1152
876
729
604
516
496
191
-518
-1059
-1143
-1170
-1346
-1491
-1558
-1630
-1702
-1749
-1769
-1775
-1770
-1747
-1733
-1744
-1747
-1728
-1707
-1686
-1668
-1654
-1638
-1626
-1596
-1529
-1471
-1446
-1412
-1361
-1303
-1233
-1183
-1155
-1085
-987
-924
-865
-782
-727
-722
-725
-704
-655
-601
-548
-482
-413
-337
-244
-193
-158
-58
-34
-57
128
203
18
326
755
23
-809
-53
1012
946
727
952
979
855
914
950
918
951
959
933
974
1014
988
965
962
991
1080
1103
1037
1058
1052
954
1088
1179
929
1158
1530
236
-1809
-2005
-1050
-901
-1033
-822
-943
-1195
-948
-620
-596
-592
-509
-492
-509
-452
-378
-423
-434
-284
-340
-465
-130
-206
-1471
-2553
-2482
-1985
-1850
-2620
-2996
-993
290
-2677
-5434
-3944
-2108
-2490
-2826
-2538
-2183
-1668
-1926
-2054
255
2277
149
-2378
-244
3546
4312
3351
3158
3184
2823
2578
2458
2319
2315
2165
1623
1278
1510
1667
1387
1253
1455
1488
1284
1176
1177
1197
1298
1425
1435
1365
1315
1256
1132
973
837
752
707
679
687
734
734
625
470
363
320
204
-71
-181
109
309
83
-62
112
122
-180
-442
-542
-612
-718
-804
-782
-687
-670
-760
-873
-977
-1049
-1014
-865
-704
-608
-537
-426
-271
-72
118
79
-257
-550
-555
-496
-568
-635
-615
-633
-710
-737
-700
-658
-612
-560
-534
-516
-553
-803
-1079
-827
-131
213
78
41
148
136
181
390
572
733
911
926
720
460
285
247
295
293
262
347
548
746
855
830
691
521
364
211
59
-77
-188
-271
-332
-363
-342
-275
-198
-136
-104
-110
-149
-214
-294
-383
-471
-527
-543
-555
-573
-586
-630
-694
-703
-677
-659
-566
-404
-357
-462
-552
-544
-494
-444
-396
-353
-318
-287
-257
-231
-200
-124
-18
35
15
7
32
31
26
79
135
172
308
553
803
1027
1080
791
421
337
392
328
241
237
239
255
360
544
740
877
915
897
866
802
669
423
39
-385
-682
-808
-842
-847
-819
-747
-652
-557
-453
-322
-183
-67
21
88
135
168
191
204
232
298
380
446
520
612
631
515
354
246
157
49
-59
-188
-348
-440
-379
-198
47
311
501
549
474
316
99
-124
-283
-377
-450
-503
-516
-512
-482
-381
-239
-148
-161
-262
-363
-383
-352
-341
-349
-343
-296
-195
-77
0
34
