# session 20
-26
-22
20
90
148
192
229
190
83
42
53
-18
-108
-91
-29
7
3
-74
-103
22
148
238
355
267
-128
-443
-310
91
-1
-828
-1246
-548
169
148
58
196
217
202
287
300
267
298
287
274
414
529
452
407
460
365
200
174
139
-6
-69
-30
-50
-110
-103
-75
-95
-59
117
225
99
-5
38
-24
-14
246
-38
-1010
-1196
-268
231
-45
-129
5
-55
-119
-79
-7
148
279
329
370
196
-204
-370
-220
-124
-134
-97
-68
-119
-184
-207
-201
-210
-194
-82
16
-26
-102
-105
-44
102
221
200
244
351
253
206
308
-208
-1161
-1156
-285
85
-76
-16
148
131
80
68
66
70
27
-37
-35
21
70
65
29
30
61
120
235
328
452
731
797
331
-144
-172
-67
-61
-30
32
56
5
-51
12
-7
-203
-121
55
-417
-913
-429
250
191
10
205
364
349
330
238
75
2
-9
-66
-126
-94
-8
30
23
19
-27
-104
-102
-90
-169
-172
-39
-28
-154
-125
5
-77
-260
-184
63
180
210
229
251
412
473
280
514
946
249
-840
-513
386
338
-21
-18
-59
-141
-69
-56
-137
-176
-189
-230
-324
-394
-355
-314
-372
-467
-558
-572
-436
-309
-306
-224
2
133
153
262
398
383
315
289
221
181
227
155
59
193
138
-353
-497
-40
166
-65
-110
72
121
-1
-135
-128
-5
34
-4
39
79
36
40
103
97
34
32
80
32
-61
75
309
305
287
327
-91
-689
-614
-186
-140
-182
-18
-4
-43
71
-294
-1164
-1266
-355
293
273
239
322
379
540
688
602
470
517
606
534
357
244
208
146
44
-32
-46
-26
-23
-36
-39
-54
-84
-88
-40
41
105
149
182
118
21
71
37
-187
-74
112
-563
-1257
-597
378
305
-143
-296
-405
-381
-166
-120
-207
-183
-114
-57
22
55
51
107
155
102
59
115
139
96
150
292
320
260
286
316
201
64
16
-17
-76
-162
-230
-182
-132
-145
-3
-14
-652
-1109
-529
218
265
148
251
277
197
128
60
66
135
173
232
296
307
391
519
498
479
661
847
926
959
692
80
-289
-200
-163
-343
-399
-302
-295
-395
-456
-442
-467
-554
-565
-562
-736
-865
-670
-433
-466
-590
-591
-500
-351
-166
-20
67
107
91
50
44
58
73
92
40
-79
-93
-25
-64
-147
-151
-150
-122
-2
56
-29
-95
-65
-13
28
29
11
78
150
103
72
-23
-409
-571
-90
307
240
304
549
716
968
943
289
-210
-60
132
107
154
223
177
109
62
29
52
103
111
81
96
182
251
251
248
327
496
647
662
604
512
301
136
104
-239
-791
-660
-10
95
-259
-330
-201
-196
-249
-288
-286
-220
-166
-108
-6
7
-91
-101
19
95
72
32
-9
-32
-16
-46
-71
63
188
202
307
227
-348
-733
-463
-205
-241
-173
-111
-169
-84
-306
-1196
-1605
-778
122
237
175
320
416
461
533
529
497
533
553
492
403
302
183
99
37
-79
-153
-64
18
-66
-162
-145
-113
-139
-151
-68
45
72
77
118
98
57
20
-146
-201
54
-40
-668
-772
-174
65
-99
44
249
155
116
110
-238
-574
-420
-113
-57
-85
-51
-38
-29
-8
-27
-8
80
82
-10
-43
-18
2
51
134
198
223
245
333
439
378
185
118
101
-58
-85
-14
-440
-968
-598
138
182
-60
40
169
137
129
105
61
120
178
126
69
54
35
46
70
44
55
125
90
26
132
238
253
486
758
436
-230
-450
-267
-151
-93
-14
-59
-134
-81
-136
-411
-496
-248
-34
17
20
-41
-96
-24
82
132
168
206
235
242
201
137
91
62
45
13
-54
-90
-94
-156
-236
-220
-165
-159
-166
-158
-151
-120
-88
-152
-259
-222
-105
-112
-90
49
-19
-148
23
-180
-1076
-1320
-373
497
727
678
276
-200
-112
221
187
-29
-54
58
60
-66
-54
112
128
10
21
111
125
137
221
322
385
408
408
414
452
488
438
300
139
19
1
-45
-235
-206
74
-170
-789
-625
83
238
142
445
822
1036
1253
1374
1247
869
287
-229
-405
-380
-433
-520
-489
-468
-587
-648
-591
-671
-845
-858
-830
-904
-913
-829
-806
-795
-665
-409
-135
25
154
311
262
149
273
13
-891
-1130
-254
372
278
286
510
542
435
368
357
354
345
442
617
690
772
1038
1241
1089
658
172
-206
-376
-319
-132
-22
-85
-133
-47
-9
-133
-256
-295
-348
-390
-354
-385
-468
-306
-50
-130
-267
-16
239
124
-27
3
23
-21
-50
-71
-91
-79
-34
0
11
58
119
101
68
96
76
8
21
17
-89
-136
-108
-116
-92
-44
-105
-196
-174
-96
-80
-109
-64
-6
-49
24
103
-398
-994
-596
239
368
153
223
321
289
256
189
130
129
100
97
151
138
162
315
419
537
758
659
132
-266
-315
-224
-103
-81
-181
-177
-4
115
22
-141
-116
40
54
-49
-94
-72
-5
70
90
147
261
230
70
35
106
91
-7
-100
-170
-225
-269
-258
-171
-117
-128
-79
-15
-77
-140
-67
-23
-105
-144
-108
-131
-179
-157
-100
-74
-129
-222
-175
-37
-24
4
158
217
280
431
187
-363
-586
-796
-1231
-1032
-224
130
48
109
176
158
214
197
95
105
140
125
188
299
392
502
567
553
560
582
522
375
210
107
60
0
-50
-35
16
45
-20
-105
-74
-105
-207
-22
-9
-804
-1252
-320
398
-320
-830
-65
610
484
406
679
988
1257
1232
736
251
82
-86
-287
-276
-215
-278
-296
-282
-397
-488
-443
-427
-483
-549
-658
-735
-717
-706
-647
-507
-443
-281
35
-198
-968
-1004
-98
487
392
313
382
358
348
412
380
319
451
658
740
900
1259
1514
1469
1112
462
-80
-166
-116
-214
-231
-128
-168
-326
-398
-378
-324
-234
-231
-388
-445
-305
-273
-274
-42
-30
-429
-398
211
445
140
-49
-50
-110
-144
-102
-106
-139
-126
-104
-103
-88
-52
-13
33
79
64
-19
-60
-28
-63
-170
-188
-164
-229
-226
-70
-34
-197
-268
-152
-45
-74
-181
-178
-39
17
38
169
-3
-563
-603
81
411
114
37
288
288
116
173
310
365
597
844
527
-114
-306
-102
-17
-56
-42
-18
-22
-46
-97
-116
-47
28
7
-56
-21
89
126
113
177
265
254
193
186
232
253
174
33
-11
56
55
-91
-251
-300
-275
-263
-250
-173
-94
-110
-123
-4
152
197
162
143
122
49
-39
-103
-155
-149
-67
-58
-128
-15
255
349
284
182
-164
-607
-633
-333
-126
-50
-64
-115
-103
-270
-648
-628
-113
198
122
102
260
374
379
382
422
461
500
498
407
348
357
244
29
-58
-56
-124
-187
-173
-167
-182
-144
-75
-61
-67
85
411
684
865
1108
1394
1616
1602
1061
224
-267
-475
-761
-833
-600
-544
-649
-596
-573
-705
-758
-753
-870
-982
-943
-884
-913
-897
-731
-558
-468
-301
-38
87
79
124
127
-2
-54
39
63
-18
-47
-44
-136
-225
-145
-20
-8
26
124
84
9
91
-21
-453
-492
52
360
187
110
265
379
425
436
384
323
281
234
199
181
194
241
224
165
252
401
479
691
901
564
-55
-180
55
78
-5
74
141
74
1
-51
-69
26
54
-85
-45
61
-301
-623
-157
403
337
189
300
310
213
180
95
-45
-111
-147
-191
-183
-152
-163
-165
-112
-54
-44
-82
-121
-110
-52
-13
-59
-148
-175
-148
-147
-128
-61
-34
-36
19
95
197
408
645
774
775
459
-305
-904
-645
-24
71
-193
-238
-109
-38
-31
-68
-125
-163
-212
-263
-255
-229
-232
-202
-120
-67
-63
-22
95
155
66
8
92
85
-78
-127
-30
-11
-66
-77
-80
-65
13
-1
-109
-35
102
-83
-330
-177
79
16
-146
-140
-93
-91
-59
-38
-67
14
211
284
267
324
220
-134
-297
-124
29
44
34
-37
-163
-210
-170
-144
-128
-55
48
105
116
106
69
48
116
235
361
543
634
447
262
190
-324
-1115
-1097
-313
131
60
19
64
70
92
111
96
74
53
74
133
136
88
55
41
37
4
-72
-47
94
60
-98
40
329
358
359
435
174
-202
-139
80
56
-4
9
23
71
-142
-823
-1220
-667
111
225
19
46
116
79
124
219
246
296
387
415
393
360
265
120
32
20
-6
-74
-130
-157
-165
-148
-132
-143
-121
-53
-54
-147
-195
-118
-27
-75
-153
-62
-18
-112
56
116
-584
-981
-89
815
868
941
994
369
-212
-119
46
-43
-86
-57
-81
-119
-139
-117
-59
-57
-125
-152
-123
-130
-173
-169
-97
-21
3
13
80
184
255
253
145
-22
-87
-72
-145
-173
-46
-178
-595
-568
-68
110
-93
-155
-84
-74
-56
-24
-33
-46
-66
-85
-62
-52
-36
45
67
35
150
282
278
335
285
-173
-519
-366
-266
-401
-329
-151
-171
-157
12
61
-34
-24
73
48
7
110
41
-307
-338
111
423
413
418
452
371
268
217
167
99
18
-45
-32
9
-37
-106
-71
-13
-47
-67
23
111
83
3
-14
24
28
-22
-49
-9
81
139
71
-1
133
310
368
487
441
-143
-634
-390
-31
-123
-272
-216
-153
-144
-159
-189
-160
-82
-36
-10
6
21
92
194
256
308
370
406
387
299
213
180
86
-68
-89
-31
-145
-351
-386
-282
-220
-205
-147
-66
-65
-58
91
6
-606
-981
-510
67
133
95
194
267
338
412
504
759
979
987
1121
1261
744
-99
-344
-191
-287
-430
-317
-203
-250
-309
-314
-309
-309
-357
-449
-423
-239
-158
-272
-313
-237
-229
-176
-51
-172
-394
-205
155
113
-140
-190
-145
-167
-186
-206
-229
-175
-105
-104
-90
-10
68
136
215
228
121
8
35
107
34
-74
-44
-40
-130
-36
172
192
246
478
363
-185
-457
-209
15
-60
-57
94
-198
-793
-674
50
304
106
91
188
232
316
340
283
319
414
451
472
485
445
390
333
234
140
105
57
-38
-95
-119
-159
-128
-28
-17
-53
25
135
168
167
107
4
-7
-30
-151
-100
23
-265
-646
-446
20
138
41
54
117
-14
-365
-577
-429
-227
-210
-215
-152
-100
-47
12
0
-38
-8
21
-49
-146
-171
-125
-66
-28
49
194
291
311
341
304
151
38
-3
-34
-32
-68
-88
30
-99
-618
-710
-158
122
-67
-72
142
242
250
209
102
38
49
35
-14
-13
53
77
63
201
447
568
712
958
773
50
-414
-274
-57
-43
-31
16
-31
-107
-91
-63
-135
-193
-130
-105
-140
-29
5
-336
-502
-58
320
177
18
65
33
-57
-86
-165
-261
-223
-137
-129
-145
-121
-58
16
11
-93
-117
-1
58
-36
-134
-119
-46
-29
-71
-79
-40
-65
-224
-336
-147
154
212
258
415
106
-488
-399
-101
-692
-1293
-710
142
235
117
224
228
143
162
168
152
193
184
171
303
468
526
523
498
463
424
342
277
237
80
-95
-53
34
-59
-143
-66
37
78
46
-17
-5
41
46
87
-7
-389
-537
-121
214
43
-171
-141
-121
-166
-71
96
94
59
174
111
-266
-443
-229
-40
-19
-9
-28
-110
-153
-138
-141
-169
-182
-179
-137
-43
18
9
31
117
198
250
271
296
373
329
115
107
172
-333
-897
-530
113
53
-175
-26
82
26
68
133
124
132
136
96
79
77
52
65
106
76
39
94
136
158
326
556
730
958
1000
483
-157
-309
-195
-179
-180
-180
-245
-281
-291
-314
-263
-250
-393
-415
-197
-106
-264
-376
-327
-212
-79
22
57
54
42
31
19
-14
-29
18
45
-23
-107
-151
-201
-241
-232
-247
-292
-237
-97
-26
-24
-21
-44
-112
-167
-140
-75
-82
-75
30
51
73
286
204
-373
-604
-297
-218
-310
-76
155
100
71
133
106
57
71
87
70
53
76
124
154
184
249
308
361
445
476
445
514
595
416
141
112
171
90
64
155
104
-60
-85
-29
-48
-79
-94
-140
-85
111
193
58
-118
-222
-216
-104
-51
-120
-164
-153
-89
97
264
319
423
410
-14
-439
-401
-197
-151
-155
-173
-223
-196
-137
-163
-191
-147
-140
-226
-281
-188
-4
124
187
280
356
343
324
275
92
-23
19
-97
-320
-276
-127
-141
-135
-61
-59
-19
77
24
-127
-127
26
128
101
45
25
22
38
32
-50
-71
26
34
31
300
591
619
649
662
316
-66
-61
23
-69
-138
-130
-126
-131
-175
-170
-24
33
-132
-249
-182
-101
-64
-7
47
62
69
108
169
200
180
108
-5
-67
-52
-100
-211
-241
-225
-237
-208
-145
-151
-209
-202
-91
1
-52
-163
-206
-226
-258
-217
-154
-180
-174
-64
-71
-154
47
436
673
777
606
-10
-468
-293
-2
18
11
26
-45
-76
-35
-41
-77
-75
-47
-30
-54
-93
-56
46
98
105
154
210
205
184
194
184
112
4
-103
-169
-168
-159
-194
-219
-182
-111
-59
-83
-176
-225
-208
-226
-286
-307
-273
-216
-159
-152
-202
-205
-114
-71
-82
67
261
254
263
344
74
-364
-356
-123
-186
-312
-173
-18
-60
-118
-67
-19
-56
-130
-155
-111
-67
18
175
240
280
424
239
-257
-134
540
658
263
141
212
195
235
288
204
108
116
157
164
154
161
200
273
322
253
135
126
196
201
125
84
169
252
220
295
554
706
778
888
654
38
-297
-154
3
-29
-96
-55
95
162
1
-215
-264
-187
-130
-110
-72
-27
-7
24
96
166
215
249
241
226
205
42
-200
-234
-134
-250
-485
-490
-364
-381
-462
-483
-537
-612
-598
-583
-615
-576
-508
-485
-437
-514
-689
-560
-412
-748
-967
-618
-171
