# session 66
-36
-37
-33
-40
-50
-46
-44
-54
-52
-38
-44
-57
-49
-38
-36
-7
60
108
89
36
14
24
12
-24
-44
-43
-41
-53
-69
-61
-46
-59
-60
-46
-65
-45
66
187
345
497
316
-144
-330
-157
-44
-70
-65
-46
-56
-55
-52
-58
-55
-54
-62
-60
-50
-47
-45
-36
-22
-3
29
71
112
152
200
252
292
313
325
322
285
219
156
106
52
-2
-43
-62
-55
-48
-73
-99
-85
-63
-71
-76
-68
-70
-66
-43
-29
-16
18
70
156
270
415
640
863
968
1159
1556
1689
1200
470
-29
-286
-407
-429
-432
-460
-477
-483
-508
-534
-542
-548
-562
-575
-590
-619
-652
-678
-699
-708
-705
-699
-664
-577
-459
-328
-179
-37
74
150
178
148
106
96
91
68
53
56
63
61
37
10
29
71
61
16
10
40
55
51
43
31
24
41
69
77
56
34
39
60
76
85
94
100
99
86
71
80
98
82
53
65
116
161
175
150
100
73
77
59
11
-1
33
27
-27
-31
5
-1
-5
8
-41
-35
149
315
425
623
571
30
-386
-279
-108
-148
-178
-144
-135
-144
-155
-150
-119
-101
-104
-104
-100
-82
-41
-23
-34
-18
31
73
97
123
172
238
287
309
322
310
248
159
70
-20
-99
-146
-168
-186
-204
-207
-196
-184
-178
-171
-159
-141
-125
-123
-126
-111
-88
-92
-107
-94
-73
-73
-25
127
297
425
584
764
913
1130
1452
1612
1328
667
11
-326
-398
-422
-456
-474
-491
-497
-488
-496
-508
-503
-506
-521
-530
-561
-628
-671
-664
-651
-646
-619
-569
-504
-412
-277
-110
41
138
201
242
243
213
184
159
131
115
105
88
72
73
95
119
141
207
377
627
889
1122
1251
1192
938
542
176
51
84
9
-158
-235
-239
-254
-255
-241
-264
-303
-313
-307
-325
-358
-365
-366
-401
-416
-363
-322
-339
-343
-302
-251
-185
-116
-82
-51
13
62
72
80
87
74
62
64
59
47
46
44
26
9
10
18
23
28
38
47
45
45
62
79
83
78
65
55
61
62
46
43
57
62
62
64
56
51
57
48
34
45
57
49
43
42
29
9
5
20
20
-14
-32
-14
-12
-31
-27
-20
-39
-50
-47
-57
-60
-28
9
20
21
36
53
59
61
64
61
57
50
40
71
150
201
182
142
113
84
58
39
22
12
9
4
4
-3
-26
-23
-1
-27
-22
103
238
358
516
432
-20
-345
-257
-111
-119
-134
-125
-136
-134
-131
-153
-163
-149
-140
-138
-134
-121
-97
-79
-69
-47
-20
-7
6
31
61
93
128
158
182
197
181
137
89
36
-31
-92
-127
-157
-187
-200
-199
-198
-187
-168
-160
-152
-129
-114
-114
-110
-98
-83
-73
-79
-92
-87
-72
-64
-26
42
66
50
56
56
6
-19
17
25
-26
-56
-44
-43
-55
-37
-8
-8
-29
-48
-38
60
214
332
423
391
63
-321
-345
-139
-57
-68
-30
17
33
33
34
49
52
25
28
68
73
46
45
64
83
116
153
182
219
271
339
424
481
473
446
415
333
214
112
21
-55
-88
-108
-141
-156
-158
-167
-167
-165
-176
-173
-150
-139
-154
-174
-169
-148
-139
-138
-137
-156
-156
-77
15
19
-26
-42
-51
-84
-103
-98
-120
-160
-153
-116
-112
-129
-131
-136
-124
-98
-117
-93
59
193
322
545
498
-9
-370
-252
-109
-153
-157
-115
-133
-144
-116
-112
-130
-124
-104
-100
-100
-84
-64
-55
-36
5
44
83
129
169
213
280
336
350
339
303
232
142
54
-22
-80
-119
-142
-156
-174
-179
-155
-141
-154
-145
-102
-67
-50
-29
-9
3
20
60
130
251
455
682
838
953
1022
910
736
768
760
343
-151
-279
-228
-266
-304
-285
-283
-290
-280
-278
-288
-292
-290
-297
-317
-329
-316
-306
-316
-315
-287
-259
-237
-208
-185
-176
-162
-136
-106
-70
-28
10
23
12
15
42
52
40
43
50
31
14
22
18
-6
-15
-7
-4
3
10
5
-3
-1
1
1
2
-3
-10
-12
-14
-19
-22
-21
-16
-12
-10
-9
-7
-6
-7
0
4
-9
-20
-13
-6
-20
-34
-8
57
106
109
88
69
54
28
3
2
2
-27
-44
-40
-50
-66
-71
-71
-73
-89
-66
47
167
252
301
123
-266
-432
-264
-136
-158
-148
-93
-66
-52
-43
-39
-18
5
11
3
-3
7
26
35
39
54
81
115
154
195
239
289
335
363
379
380
348
284
209
137
67
7
-25
-34
-48
-75
-86
-79
-73
-72
-81
-90
-75
-56
-73
-101
-96
-71
-65
-83
-87
-60
-40
-50
-31
52
111
91
57
58
63
74
113
143
184
336
544
655
802
1184
1529
1371
742
101
-254
-372
-412
-439
-446
-447
-460
-466
-454
-445
-450
-457
-466
-483
-509
-542
-570
-591
-621
-657
-671
-650
-612
-568
-496
-368
-198
-36
95
184
214
201
172
135
97
68
45
38
32
3
-12
9
23
19
17
19
28
49
58
55
59
72
89
98
94
96
111
119
118
121
118
105
94
87
82
103
153
184
167
137
120
100
74
55
42
29
18
10
6
14
28
21
9
34
37
-9
47
206
327
526
740
492
-95
-313
-150
-86
-124
-99
-86
-102
-98
-99
-97
-75
-71
-84
-83
-67
-44
-24
-15
-8
7
30
57
90
140
202
258
308
354
373
351
296
211
109
28
-28
-82
-122
-132
-145
-167
-163
-145
-149
-148
-130
-134
-155
-148
-127
-132
-147
-140
-139
-160
-158
-136
-145
-160
-108
-20
14
2
-1
-16
-55
-67
-43
-47
-91
-110
-83
-59
-69
-82
-71
-48
-31
-50
-82
0
178
297
423
558
349
-144
-335
-168
-73
-98
-82
-66
-80
-80
-77
-75
-63
-64
-72
-64
-57
-55
-44
-25
0
32
60
88
133
196
266
329
364
371
373
361
302
204
113
47
-10
-54
-67
-64
-77
-99
-98
-82
-82
-81
-56
-47
-71
-73
-47
-38
-41
-31
-26
-27
-21
-12
-11
-22
-50
-56
-13
29
27
8
-14
-40
-53
-57
-74
-98
-112
-111
-110
-120
-124
-126
-142
-140
-123
-148
-141
-22
80
161
324
293
-118
-433
-340
-195
-207
-210
-179
-179
-166
-140
-136
-135
-129
-118
-79
-50
-62
-61
-34
-24
-7
39
76
96
138
203
268
321
343
335
319
292
223
128
47
-11
-43
-44
-35
-29
-15
0
0
-3
3
8
6
6
8
6
8
15
13
12
39
101
197
364
587
767
874
935
886
773
803
821
461
-78
-309
-287
-305
-346
-338
-343
-366
-373
-381
-386
-372
-370
-390
-391
-372
-369
-371
-350
-326
-320
-314
-293
-263
-234
-220
-211
-184
-148
-130
-118
-98
-87
-86
-57
2
84
266
568
835
1016
1204
1261
1006
625
337
98
-111
-232
-307
-354
-358
-362
-374
-362
-360
-375
-368
-368
-393
-406
-420
-461
-486
-488
-500
-500
-453
-373
-284
-188
-101
-25
52
99
96
88
94
83
61
57
72
86
85
92
144
210
229
210
179
135
103
106
108
84
71
85
91
80
90
119
117
96
96
74
38
76
110
49
79
274
420
525
629
402
-120
-331
-143
-32
-73
-58
-30
-56
-59
-40
-50
-64
-57
-49
-56
-57
-36
-14
-10
-5
14
47
102
164
213
257
304
335
344
330
271
170
75
19
-21
-65
-96
-107
-116
-127
-131
-130
-136
-145
-145
-133
-125
-135
-146
-147
-153
-170
-178
-172
-170
-174
-171
-175
-189
-166
-88
-23
-10
-15
-24
-44
-58
-61
-74
-101
-117
-103
-92
-113
-124
-106
-116
-136
-102
-95
-124
-23
159
283
457
531
160
-322
-357
-159
-119
-154
-146
-143
-136
-122
-136
-153
-140
-116
-114
-119
-92
-61
-77
-80
-8
71
112
163
233
289
340
384
395
394
395
361
285
205
134
67
15
-11
-23
-35
-30
-2
31
67
115
209
443
815
1161
1523
2041
2304
1721
608
-166
-389
-436
-487
-505
-510
-521
-519
-503
-464
-419
-434
-510
-577
-623
-681
-735
-761
-782
-802
-785
-719
-629
-535
-442
-345
-243
-149
-90
-71
-55
-17
17
23
27
42
56
66
69
62
56
57
53
41
33
36
42
42
46
58
72
79
85
93
95
89
90
93
87
77
70
66
68
66
58
59
62
55
58
78
78
61
66
74
49
35
55
56
32
33
46
36
24
27
28
19
6
-6
-10
-8
-9
-14
-11
1
11
15
22
35
52
69
73
66
86
145
179
159
127
103
69
40
32
22
0
-14
-24
-34
-27
-31
-52
-34
-21
-64
-26
130
251
413
612
418
-139
-387
-233
-162
-218
-211
-209
-223
-176
-155
-202
-205
-159
-150
-162
-142
-115
-105
-89
-65
-45
-9
37
71
103
149
187
213
235
248
248
235
201
144
66
-15
-76
-113
-135
-154
-166
-149
-95
-13
102
252
460
771
1096
1321
1535
1653
1250
372
-286
-449
-467
-507
-495
-488
-516
-518
-501
-457
-380
-364
-426
-480
-536
-622
-675
-695
-730
-742
-700
-631
-516
-343
-184
-72
37
136
174
166
145
102
47
21
19
22
38
58
60
62
93
127
131
117
107
101
103
107
99
84
78
79
79
78
80
81
79
80
91
103
101
96
98
93
79
76
81
77
70
71
75
68
63
65
49
25
31
49
38
18
16
25
35
36
23
21
41
56
51
43
47
45
38
46
50
30
14
15
-1
-24
-25
-24
-39
-45
-37
-49
-80
-73
-13
34
30
0
-34
-61
-69
-71
-81
-81
-70
-74
-78
-65
-74
-91
-74
-90
-128
-35
134
241
386
452
123
-325
-380
-202
-160
-191
-178
-165
-161
-151
-143
-136
-146
-170
-162
-126
-110
-118
-113
-85
-55
-40
-29
11
78
129
152
195
270
330
349
344
326
281
206
137
95
63
30
8
2
0
-10
-18
-2
31
62
132
244
359
550
839
1043
1143
1277
1222
708
60
-269
-331
-344
-343
-319
-283
-242
-228
-253
-292
-334
-367
-387
-415
-450
-459
-466
-501
-533
-536
-517
-463
-364
-257
-153
-36
72
140
171
163
101
16
-28
-22
-24
-49
-58
-53
-66
-82
-82
-84
-90
-89
-95
-103
-99
-100
-118
-122
-107
-99
-95
-82
-71
-77
-85
-74
-56
-55
-44
5
45
52
90
194
325
344
67
-402
-674
-641
-523
-394
-225
-103
-60
-12
44
39
0
-2
27
51
71
84
72
63
96
145
170
185
227
308
420
567
752
901
923
862
812
758
645
499
358
225
109
20
-62
-141
-178
-170
-176
-213
-226
-214
-216
-228
-236
-218
-172
-194
-260
-139
101
131
28
-19
-184
-427
-420
-254
-218
-247
-225
-203
-194
-194
-211
-191
-127
-96
-108
-125
-133
-104
-41
-6
2
46
123
193
229
225
224
265
279
213
131
73
12
-39
-68
-105
-141
-139
-107
-71
-38
3
80
261
556
829
999
1244
1616
1688
1109
254
-256
-356
-379
-455
-500
-505
-516
-512
-463
-421
-427
-439
-443
-500
-593
-634
-646
-708
-766
-750
-695
-605
-457
-295
-147
-4
110
183
229
225
168
110
64
29
37
56
29
-1
23
62
86
118
148
153
149
148
141
135
143
145
127
110
111
118
112
92
73
70
78
76
68
71
76
63
47
45
45
43
40
29
23
34
35
23
22
25
18
19
29
29
22
14
11
28
57
56
22
11
40
55
40
37
38
10
3
40
38
-7
11
80
98
61
27
4
-8
-13
-23
-30
-32
-41
-61
-89
-95
-88
-122
-122
-3
128
236
364
257
-176
-444
-304
-147
-166
-172
-136
-150
-173
-159
-150
-167
-175
-159
-156
-168
-162
-146
-135
-104
-66
-53
-33
23
81
117
144
169
187
185
164
148
130
90
43
5
-20
-37
-60
-89
-97
-90
-92
-93
-76
-54
-27
14
51
56
45
67
142
266
454
674
832
919
937
824
708
782
790
421
-22
-164
-166
-224
-262
-259
-274
-292
-296
-301
-299
-301
-318
-336
-341
-333
-322
-332
-347
-326
-289
-275
-259
-211
-165
-154
-147
-104
-53
-37
-41
-23
10
25
31
48
69
79
71
44
25
28
28
13
0
4
19
27
24
20
17
8
-3
-8
-9
-15
-24
-31
-35
-37
-34
-28
-24
-22
-11
0
3
2
3
-1
-3
-2
-3
2
9
1
-11
-11
-18
-25
12
80
118
114
88
48
15
17
25
0
-32
-33
-22
-24
-29
-38
-42
-7
14
-46
-60
92
271
387
458
291
-130
-350
-199
-53
-69
-81
-71
-94
-102
-83
-81
-87
-76
-70
-83
-95
-89
-75
-62
-46
-28
-4
30
63
93
140
202
247
265
277
277
244
192
137
65
-24
-98
-138
-155
-169
-193
-226
-239
-219
-206
-220
-222
-187
-151
-145
-152
-142
-120
-103
-94
-98
-93
-35
49
94
122
176
217
266
436
672
784
867
1168
1480
1309
675
77
-221
-337
-390
-397
-393
-402
-399
-372
-353
-360
-373
-375
-381
-391
-394
-409
-451
-492
-517
-541
-571
-586
-549
-459
-364
-274
-131
48
168
219
251
260
243
222
184
137
117
110
87
74
94
109
93
77
86
96
99
103
109
115
115
103
100
115
132
155
183
191
187
191
196
196
192
177
162
151
129
127
183
238
233
206
189
161
129
112
98
72
54
52
50
40
29
10
-7
9
4
-45
4
158
281
496
767
578
-70
-425
-304
-215
-289
-311
-282
-288
-305
-306
-308
-319
-319
-304
-308
-329
-333
-329
-330
-318
-311
-330
-328
-277
-222
-190
-160
-133
-122
