# session 1
-121
-70
-21
14
-188
-666
-987
-949
-906
-1024
-1089
-1039
-977
-908
-840
-820
-825
-815
-787
-728
-622
-453
-218
35
220
325
415
515
584
605
611
613
617
663
752
811
820
819
785
658
480
345
274
270
371
564
751
868
932
969
978
969
970
972
962
999
1136
1294
1352
1264
1059
832
661
502
299
77
-130
-289
-361
-363
-286
-94
119
232
257
229
132
21
-41
-113
-255
-401
-490
-541
-539
-448
-328
-246
-154
-33
30
1
-62
-105
-71
87
297
459
584
646
541
329
180
109
63
94
231
403
450
187
-287
-620
-712
-752
-811
-863
-949
-1053
-1091
-1068
-1014
-913
-760
-598
-468
-381
-330
-291
-249
-220
-258
-382
-534
-650
-734
-817
-914
-1037
-1210
-1406
-1547
-1597
-1598
-1598
-1570
-1465
-1278
-1022
-741
-566
-580
-682
-766
-819
-796
-663
-500
-335
-91
194
365
398
384
356
334
350
360
330
320
364
412
430
440
478
565
687
835
1022
1222
1368
1444
1475
1452
1369
1262
1197
1276
1524
1753
1753
1584
1426
1305
1178
1059
967
895
815
682
497
320
168
39
-52
-158
-321
-453
-493
-507
-481
-333
-84
234
538
533
135
-222
-221
-76
-49
-155
-339
-524
-636
-690
-686
-506
-91
431
859
1095
1177
1178
1150
1131
1106
995
762
446
76
-293
-545
-623
-546
-300
85
437
605
582
405
122
-200
-532
-850
-1072
-1133
-1055
-933
-843
-760
-650
-622
-711
-735
-624
-541
-541
-553
-581
-614
-645
-796
-1061
-1284
-1549
-1893
-1940
-1579
-1294
-1310
-1344
-1271
-1202
-1108
-912
-712
-597
-509
-413
-351
-315
-267
-203
-88
109
303
410
532
819
1193
1404
1362
1197
1025
877
759
666
606
611
675
734
735
708
754
902
1077
1175
1020
522
-34
-327
-492
-723
-878
-871
-879
-989
-1059
-996
-861
-696
-475
-260
-109
63
293
487
651
849
1037
1241
1556
1838
1817
1517
1230
1106
1025
849
629
476
390
324
303
381
515
562
404
83
-186
-213
-62
55
75
90
147
225
293
329
377
498
621
618
491
319
129
-65
-233
-365
-459
-509
-541
-568
-559
-520
-482
-441
-380
-313
-248
-191
-164
-192
-266
-320
-299
-278
-380
-589
-758
-802
-788
-828
-1002
-1390
-1882
-2101
-1890
-1552
-1313
-1095
-879
-760
-708
-623
-530
-489
-411
-198
100
458
785
813
541
336
331
335
211
-43
-250
-173
110
349
582
968
1420
1715
1717
1437
1034
685
429
227
83
-19
-123
-235
-361
-543
-739
-840
-841
-798
-702
-538
-347
-185
-58
83
240
335
389
519
702
874
1135
1509
1758
1698
1409
1070
816
677
581
470
347
247
220
295
421
510
513
438
343
258
92
-236
-633
-955
-1164
-1292
-1352
-1324
-1194
-998
-786
-577
-398
-272
-150
71
425
737
740
426
87
-95
-182
-214
-165
-89
-53
-11
66
97
38
-46
-165
-379
-542
-462
-272
-244
-331
-339
-307
-277
-112
66
-78
-447
-674
-724
-684
-505
-301
-265
-338
-358
-304
-239
-214
-199
-124
0
122
232
297
266
158
3
-185
-314
-282
-166
-155
-259
-289
-193
-137
-116
126
655
1207
1549
1659
1598
1434
1247
1091
930
702
458
307
245
192
40
-352
-899
-1203
-1079
-801
-612
-467
-289
-90
79
153
145
140
187
291
369
256
-6
-138
-49
103
233
318
288
155
17
-88
-149
-102
81
315
537
776
1012
1176
1249
1192
915
481
25
-451
-912
-1160
-1128
-1008
-923
-747
-421
-89
187
505
755
662
359
262
363
390
385
322
-83
-641
-818
-695
-726
-882
-925
-898
-855
-703
-493
-383
-370
-395
-486
-610
-642
-624
-714
-889
-1027
-1124
-1169
-1090
-921
-764
-624
-477
-338
-223
-171
-200
-242
-217
-136
-75
-41
48
212
372
487
587
665
688
692
754
867
928
886
835
910
1129
1391
1585
1630
1497
1248
976
699
430
250
183
136
28
-114
-237
-310
-315
-240
-115
11
122
209
275
335
369
348
316
351
471
621
714
699
605
500
409
299
154
39
-5
-51
-160
-282
-335
-268
-93
113
225
127
-142
-348
-338
-183
-21
-49
-431
-961
-1220
-1150
-993
-854
-686
-525
-441
-368
-177
70
186
134
2
-171
-408
-672
-844
-866
-814
-750
-661
-561
-496
-464
-437
-435
-515
-635
-644
-530
-445
-411
-314
-189
-135
-103
-46
-11
9
52
58
6
-15
15
10
-54
-81
-23
22
-32
-115
-162
-222
-308
-349
-319
-256
-163
17
347
766
1080
1158
1025
740
369
56
-91
-88
42
276
505
654
761
833
821
741
661
632
663
707
702
647
544
357
137
38
112
244
331
407
546
697
738
684
639
610
559
496
427
411
514
662
777
804
531
-25
-375
-317
-226
-282
-302
-261
-230
-154
-22
35
-82
-359
-698
-982
-1144
-1170
-1071
-871
-582
-219
89
131
-131
-476
-687
-740
-693
-580
-424
-231
-35
72
80
86
129
182
223
240
260
308
308
188
8
-134
-180
-114
-24
-39
-176
-359
-523
-647
-745
-827
-898
-972
-1014
-951
-814
-709
-645
-587
-579
-628
-635
-556
-456
-366
-247
-113
-43
-69
-166
-290
-372
-364
-331
-387
-497
-506
-379
-188
64
343
482
424
335
337
403
525
722
935
1102
1196
1164
998
809
679
575
455
366
382
469
566
719
797
492
-5
-106
189
391
444
572
692
668
623
652
672
637
601
590
573
511
384
245
158
102
47
13
2
-19
-34
-14
11
31
120
293
408
366
242
128
19
-64
-48
58
134
96
-2
-56
-61
-82
-138
-190
-182
-116
-56
-7
57
33
-173
-424
-558
-604
-634
-643
-608
-529
-457
-462
-533
-595
-609
-591
-582
-642
-760
-835
-830
-826
-884
-963
-1010
-1018
-989
-925
-852
-787
-700
-573
-476
-465
-476
-450
-415
-371
-301
-257
-254
-211
-122
-65
-39
-17
-53
-169
-310
-421
-369
-47
423
840
1047
927
668
725
1150
1532
1629
1526
1333
1088
807
531
322
181
59
-21
-38
-66
-143
-201
-181
-100
-24
-17
-19
122
400
651
825
979
1066
1034
984
1002
1058
1107
1118
1010
753
499
401
382
292
160
71
28
19
30
43
104
181
112
-101
-254
-290
-340
-463
-612
-737
-832
-957
-1131
-1200
-1032
-748
-534
-369
-158
33
95
116
265
472
473
211
-94
-275
-358
-390
-361
-273
-179
-99
-4
81
77
-21
-161
-296
-421
-582
-744
-761
-625
-498
-446
-440
-491
-598
-744
-911
-981
-873
-707
-568
-377
-122
141
343
293
-26
-249
-178
-46
-6
-8
-68
-255
-552
-811
-776
-362
179
545
681
693
650
533
355
232
227
250
259
329
463
560
602
647
701
745
803
879
928
895
753
557
448
459
455
350
195
18
-221
-500
-707
-769
-699
-544
-372
-284
-312
-344
-283
-164
-18
208
446
480
291
111
73
111
168
260
427
633
779
872
957
933
749
547
403
261
115
-23
-172
-290
-288
-140
111
394
663
906
997
768
328
-13
-174
-289
-398
-438
-414
-384
-381
-395
-431
-497
-577
-655
-733
-798
-781
-644
-444
-248
-164
-372
-777
-976
-880
-811
-919
-1099
-1300
-1432
-1317
-999
-739
-626
-532
-415
-334
-290
-237
-163
-68
56
163
175
83
-50
-178
-274
-264
-82
233
559
801
931
938
869
878
1036
1213
1278
1250
1168
1029
855
666
425
118
-151
-259
-217
-139
-98
-86
-70
-28
20
53
88
127
174
258
361
413
412
415
446
536
672
693
520
364
376
378
269
207
237
225
142
50
-10
10
110
194
169
17
-193
-352
-433
-474
-499
-521
-538
-504
-412
-315
-232
-156
-100
-42
49
142
287
573
846
911
812
523
-34
-556
-733
-750
-823
-891
-944
-1004
-992
-950
-973
-964
-850
-748
-706
-652
-578
-535
-529
-516
-457
-380
-340
-325
-309
-320
-368
-398
-362
-277
-188
-124
-85
-45
3
40
86
191
327
440
504
433
162
-163
-316
-228
23
318
536
627
627
567
450
350
392
608
879
1057
1085
993
820
621
500
507
563
555
435
238
68
-36
-156
-300
-355
-309
-242
-182
-138
-98
3
172
322
420
495
547
546
493
416
351
312
263
181
109
94
118
135
130
122
124
112
93
132
206
215
221
250
34
-431
-650
-513
-470
-645
-790
-849
-851
-737
-550
-388
-247
-75
159
403
566
660
712
610
342
126
93
140
164
166
147
99
32
-68
-228
-397
-478
-472
-450
-453
-514
-637
-735
-748
-739
-767
-827
-901
-940
-893
-776
-638
-518
-432
-358
-276
-215
-196
-195
-207
-244
-296
-361
-471
-640
-851
-1044
-1056
-760
-288
107
342
494
599
647
665
690
676
602
588
704
845
918
952
989
1039
1108
1223
1389
1469
1316
1035
810
611
343
32
-246
-420
-473
-440
-337
-209
-119
-1
175
236
157
133
162
129
71
-87
-390
-476
-178
46
-49
-136
-62
-21
-50
-18
103
261
394
457
490
535
503
375
292
269
158
-66
-306
-525
-685
-661
-400
-45
218
345
390
453
639
857
866
649
408
217
60
-41
-131
-283
-450
-575
-670
-728
-770
-855
-924
-858
-702
-603
-597
-633
-681
-716
-724
-760
-874
-1014
-1180
-1488
-1815
-1782
-1374
-1006
-853
-749
-613
-500
-430
-385
-330
-252
-180
-91
105
422
731
847
735
617
678
786
773
723
777
922
1078
1205
1305
1368
1375
1323
1208
1058
921
760
588
544
571
520
515
499
85
-519
-664
-456
-416
-463
-351
-232
-216
-176
-70
30
114
240
419
564
617
633
632
567
463
379
297
213
180
205
239
253
243
234
275
376
491
584
589
408
51
-305
-467
-423
-355
-399
-489
-525
-536
-565
-575
-508
-374
-261
-235
-248
-237
-202
-144
-97
-141
-255
-319
-316
-303
-280
-237
-213
-235
-294
-376
-475
-579
-698
-820
-884
-886
-887
-862
-758
-615
-477
-357
-307
-331
-341
-307
-253
-193
-173
-216
-244
-209
-148
-88
-66
-100
-121
-124
-199
-336
-518
-773
-874
-529
151
848
1275
1160
668
408
489
471
288
219
288
375
454
463
357
270
338
514
674
787
852
821
723
656
555
288
-44
-254
-325
-341
-382
-414
-232
179
474
493
474
553
641
665
602
494
451
416
265
109
90
126
135
158
196
209
173
89
40
104
221
327
449
571
647
689
678
526
223
-155
-516
-744
-774
-693
-629
-607
-576
-506
-407
-284
-137
-18
9
-59
-139
-137
-64
44
262
548
629
446
269
180
12
-245
-460
-589
-687
-855
-1103
-1249
-1161
-953
-773
-659
-601
-554
-490
-386
-197
-100
-343
-672
-658
-424
-310
-304
-289
-290
-341
-415
-470
-499
-552
-625
-634
-525
-235
253
724
883
722
462
243
86
-8
-59
-74
9
236
530
774
939
1046
1090
1075
1049
1018
927
779
641
529
434
378
320
160
-91
-291
-335
-262
-176
-112
0
215
455
606
642
561
343
44
-234
-413
-439
-364
-327
-326
-258
-165
-139
-138
-98
5
194
409
541
584
558
435
260
119
18
-49
-109
-230
-355
-347
-250
-180
-90
92
354
648
847
830
651
430
233
104
-12
-163
-205
-81
59
185
206
-148
-668
-803
-658
-689
-782
-674
-564
-671
-878
-1010
-1014
-947
-939
-1030
-1119
-1155
-1171
-1115
-940
-761
-661
-549
-388
-268
-203
-154
-122
-85
-30
22
117
275
354
279
172
97
42
67
188
336
510
722
891
1012
1185
1388
1495
1476
1386
1250
1073
868
640
393
180
69
34
-18
-77
-66
-15
-21
-78
-126
-159
-191
-212
-193
-116
-9
76
133
186
250
369
533
607
535
413
270
70
-94
-120
-53
31
81
56
2
7
68
125
135
85
13
-84
-262
-432
-443
-339
-211
-106
-196
-490
-639
-476
-262
-172
-112
12
215
458
611
558
350
129
-28
-123
-167
-167
-133
-91
-70
-83
-118
-169
-239
-312
-363
-407
-467
-511
-540
-599
-651
-619
-530
-473
-544
-775
-967
-894
-670
-542
-497
-414
-315
-241
-167
-122
-147
-166
-132
-148
-270
-414
-544
-657
-653
-452
-99
306
622
737
662
477
258
112
119
278
539
797
953
993
961
944
1014
1065
963
793
680
597
539
530
447
192
-80
-203
-234
-250
-214
-130
-55
24
150
333
541
720
863
965
896
572
211
92
220
371
302
7
-190
-89
68
17
-168
-277
-219
-80
1
29
102
199
208
67
-159
-378
-588
-784
-888
-932
-1002
-1016
-893
-719
-570
-438
-305
-140
51
201
283
328
392
542
681
618
402
258
207
145
93
63
-17
-143
-263
-428
-670
-882
-978
-974
-874
-679
-471
-367
-410
-556
-706
-774
-756
-711
-676
-626
-528
-407
-304
-233
-216
-259
-316
-357
-419
-530
-681
-854
-949
-806
-401
106
542
795
814
691
557
410
255
258
538
975
1370
1675
1907
1922
1617
1235
1027
896
738
673
712
752
780
642
117
-480
-586
-295
-91
-27
70
146
172
284
475
581
623
752
849
635
194
-106
-167
-160
-165
-157
-118
-50
-15
-53
-68
-3
66
111
155
148
70
-3
-42
-88
-148
-232
-364
-536
-744
-909
-858
-571
-242
-3
159
284
402
463
366
125
-126
-293
-385
-466
-563
-629
-652
-680
-715
-720
-700
-685
-646
-567
-508
-488
-426
-308
-223
-238
-349
-496
-592
-608
-602
-645
-738
-817
-826
-747
-600
-445
-327
-228
-143
-116
-156
-197
-170
-51
117
262
379
475
466
351
328
513
787
968
880
542
323
469
741
905
1018
1099
1072
988
920
839
720
556
355
196
113
8
-134
-187
-144
-116
-100
-40
14
23
35
56
65
92
147
192
226
291
399
474
414
238
88
25
-30
-110
-146
-137
-172
-271
-343
-347
-309
-218
-68
35
31
51
135
144
144
275
234
-290
-941
-1218
-1177
-1083
-950
-742
-560
-464
-387
-293
-200
-116
-75
-107
