# session 51
22
169
197
311
260
-199
-465
-236
-131
-351
-381
-127
39
43
32
14
-25
-37
-19
11
57
102
120
140
211
302
334
321
321
277
164
107
77
-71
-201
-147
-77
-110
-141
-161
-187
-160
-119
-120
-100
-37
12
21
-11
-70
-132
-184
-209
-194
-177
-181
-230
-423
-776
-1112
-1308
-1370
-1241
-889
-510
-279
-103
81
131
69
105
198
163
124
215
277
307
492
697
762
904
1157
1234
1174
1183
1089
750
400
199
48
-92
-178
-246
-332
-374
-314
-236
-246
-288
-241
-94
63
117
64
55
146
164
48
2
59
25
-56
-20
29
0
-17
-20
27
213
380
469
639
614
115
-325
-253
-49
-49
-96
-75
-34
-5
-21
-76
-119
-127
-113
-100
-83
-41
10
51
91
123
136
137
107
24
-73
-148
-211
-240
-223
-233
-302
-337
-310
-288
-262
-207
-208
-263
-213
-66
-10
-42
-18
5
-78
-144
-97
-62
-111
-127
-70
-37
-9
80
127
141
298
351
-21
-387
-287
-55
-37
-68
-54
-79
-96
-53
-7
13
17
18
48
88
116
191
297
322
306
341
334
281
316
322
143
-31
-44
-28
-54
-84
-109
-79
-39
-97
-89
36
-105
-445
-401
-79
-25
-133
-122
-114
-154
-136
-125
-159
-134
-62
-72
-88
72
247
237
262
304
-49
-517
-461
-161
-159
-237
-146
-87
-122
-108
-64
-55
-35
34
79
32
36
197
302
332
514
520
44
-217
143
380
172
29
48
-2
-68
-80
-80
-72
-40
38
81
-28
-119
11
141
75
45
140
127
20
-2
10
10
65
110
62
3
67
240
337
367
511
528
104
-329
-308
-119
-74
-84
-104
-138
-125
-105
-116
-112
-108
-129
-121
-83
-52
12
116
190
243
310
330
274
192
80
-58
-127
-117
-143
-232
-273
-219
-172
-199
-230
-195
-128
-105
-125
-99
-24
3
-20
-58
-137
-176
-96
-50
-126
-148
-54
-11
-24
75
223
283
410
554
280
-256
-383
-141
-65
-139
-98
-38
-70
-69
-11
-6
-22
14
32
17
69
152
143
110
167
238
256
265
232
125
54
45
5
-59
-96
-118
-116
-105
-143
-195
-197
-173
-164
-164
-153
-109
-54
-42
-61
-69
-73
-78
-67
-56
-57
-54
-64
-76
-17
55
78
229
469
319
-227
-499
-311
-138
-149
-140
-107
-128
-131
-88
-54
-32
-36
-59
7
93
-15
-138
49
352
445
422
413
376
325
236
53
-58
19
61
-40
-73
-4
-30
-120
-91
-1
-25
-96
-32
91
93
36
25
19
20
43
6
-57
8
123
92
39
177
350
391
451
436
37
-442
-454
-201
-168
-247
-172
-127
-235
-245
-133
-146
-209
-146
-87
-63
27
77
75
185
309
306
275
237
154
95
13
-134
-203
-161
-126
-153
-219
-233
-158
-122
-166
-163
-109
-97
-74
23
87
29
-39
-27
-43
-119
-105
-9
38
55
55
40
138
289
354
516
699
422
-127
-285
-111
-59
-113
-89
-36
-33
-64
-71
-30
-2
-7
7
12
-11
36
146
187
185
239
306
310
243
120
6
-59
-123
-200
-241
-241
-236
-248
-276
-287
-249
-199
-172
-149
-112
-68
-24
1
-7
-42
-94
-122
-89
-61
-83
-60
-11
-41
-38
74
173
360
629
451
-189
-492
-260
-77
-114
-135
-108
-85
-46
-28
-42
-11
91
163
144
128
180
230
237
262
322
358
340
290
237
187
115
23
-28
-20
-28
-62
-36
32
11
-88
-123
-77
-60
-106
-131
-87
-33
-21
-28
-50
-80
-64
-44
-72
-43
-5
-143
-249
-80
91
76
33
-160
-542
-648
-376
-197
-208
-168
-104
-93
-87
-91
-102
-104
-144
-143
-8
82
19
20
157
239
281
421
527
444
298
212
128
8
-102
-137
-95
-70
-82
-67
-114
-182
-57
-54
-506
-738
-250
237
240
147
121
63
74
126
91
65
125
145
67
74
271
415
410
495
515
109
-319
-251
-42
-75
-108
-8
36
-1
-9
22
33
15
19
68
128
172
199
232
286
326
328
309
253
139
12
-89
-179
-248
-272
-269
-264
-246
-220
-226
-231
-163
-117
-194
-230
-128
-72
-100
-91
-106
-169
-149
-83
-84
-77
-18
-41
-146
-90
129
213
245
467
461
-57
-433
-319
-207
-255
-202
-99
-69
-45
-22
-12
7
-4
-26
0
50
111
189
226
238
306
359
331
295
257
182
130
101
28
-37
-44
-44
-62
-74
-82
-87
-84
-80
-73
-49
-21
23
88
69
-21
-20
-76
-350
-454
-205
-31
-62
-89
-105
-51
100
145
118
98
-134
-430
-363
-126
-89
-107
-55
-74
-132
-117
-82
-71
-58
-47
-30
9
52
104
187
286
350
354
339
347
317
219
115
-2
-87
-39
-104
-468
-642
-334
-50
-69
-97
-46
-49
-70
-37
30
81
83
73
81
49
-2
47
125
86
49
86
53
65
263
385
418
586
503
-72
-424
-200
9
-51
-62
23
36
-13
-37
15
75
-11
-98
22
24
-279
-307
140
398
265
220
337
287
90
-4
-13
-93
-187
-178
-156
-204
-240
-218
-205
-226
-246
-256
-256
-193
-68
6
-15
-44
-67
-118
-132
-97
-80
-30
37
-37
-109
71
266
259
308
357
43
-342
-314
-100
-46
-60
-34
-14
-11
-20
-6
54
88
59
54
104
136
161
251
330
299
291
391
396
240
157
173
100
-20
-61
-85
-121
-117
-123
-160
-159
-115
-74
-56
-75
-104
-91
-38
-14
-65
-128
-125
-116
-164
-196
-178
-141
-98
-94
-91
25
139
157
238
233
-145
-499
-386
-153
-133
-153
-144
-180
-166
-97
-105
-140
-90
-26
-22
-7
56
132
202
229
268
446
481
74
-253
-6
264
112
-60
-29
-10
-32
-38
-59
-55
-32
-46
-47
-14
11
55
106
101
93
113
91
52
62
49
-7
0
38
-18
-36
120
218
225
486
688
200
-432
-379
-85
-121
-124
-32
-274
-555
-380
-107
-121
-173
-114
-95
-100
-43
40
121
208
278
318
362
373
249
87
71
53
-128
-255
-221
-195
-184
-162
-221
-256
-151
-76
-96
-63
27
144
355
563
636
703
856
1031
1266
1329
764
-65
-388
-451
-732
-815
-529
-391
-440
-432
-478
-552
-529
-570
-667
-651
-624
-660
-632
-515
-360
-181
-30
78
190
269
247
171
131
136
143
121
93
117
167
134
66
108
193
190
155
137
99
61
33
-11
-27
-9
-21
-32
22
81
71
31
15
6
-13
-1
47
60
38
18
-13
28
168
217
273
527
500
-90
-499
-318
-110
-136
-122
-67
-95
-131
-123
-95
-46
-23
-57
-69
-14
59
118
183
266
356
411
403
371
327
225
100
19
-37
-80
-81
-69
-78
-82
-81
-83
-52
-4
7
-9
5
64
125
113
21
-40
-14
7
-43
-85
-53
-31
-102
-122
28
157
207
390
476
72
-413
-419
-223
-209
-236
-209
-231
-256
-224
-206
-215
-194
-157
-117
-58
-6
29
98
193
245
244
220
201
192
129
-16
-129
-122
-87
-156
-240
-160
-96
-312
-496
-304
-49
-41
-120
-85
84
128
-201
-469
-223
79
30
-33
40
49
42
42
-24
27
212
287
409
664
516
-88
-379
-189
-25
-6
-8
-57
-59
35
46
-12
40
111
41
-23
77
214
259
296
375
434
461
486
470
352
167
36
-18
-129
-266
-249
-163
-204
-279
-261
-212
-173
-171
-245
-239
-44
94
-2
-107
-77
-79
-168
-185
-119
-112
-134
-119
-159
-153
72
245
246
389
414
-92
-509
-317
-101
-192
-191
-52
-56
-148
-151
-101
-78
-53
11
75
106
132
178
244
318
368
400
447
442
314
172
115
56
-41
-66
-46
-97
-140
-85
-44
-71
-59
-2
-18
-99
-98
31
130
74
-20
-19
5
-33
-57
-21
1
-22
-56
-73
-25
65
95
101
70
-190
-532
-550
-327
-203
-177
-149
-139
-120
-92
-101
-113
-109
-105
-73
-18
5
27
133
265
304
292
331
364
324
233
112
15
-9
-47
-142
-188
-156
-129
-116
-80
-42
-28
-20
3
28
51
86
92
37
-2
21
35
16
10
11
24
55
39
37
153
252
352
674
843
346
-291
-355
-152
-162
-226
-164
-121
-189
-239
-161
-62
-48
-42
-8
-8
-6
40
92
156
226
235
208
205
155
15
-113
-164
-182
-189
-183
-186
-194
-183
-169
-173
-185
-210
-222
-163
-68
-61
-129
-128
-44
-17
-80
-126
-112
-79
-49
-67
-132
-51
183
261
226
339
266
-242
-550
-312
-114
-232
-266
-100
20
27
-16
-51
-13
32
29
84
181
193
218
341
423
440
480
501
441
321
184
98
57
-21
-92
-80
-55
-73
-90
-113
-131
-60
29
2
-34
57
155
136
62
-5
-55
-57
-32
-57
-117
-122
-95
-98
-36
131
235
275
333
185
-219
-432
-303
-178
-188
-216
-245
-248
-183
-139
-144
-111
-71
-73
-37
43
73
91
182
283
319
318
311
284
222
107
-49
-155
-151
-107
-115
-154
-142
-86
-86
-158
-192
-141
-77
-37
5
43
60
57
24
-27
-32
28
57
9
-11
50
68
11
40
179
369
680
866
467
-215
-460
-310
-199
-166
-145
-151
-125
-106
-163
-174
-94
-74
-137
-161
-129
-74
-1
78
153
216
234
207
164
107
29
-55
-132
-172
-159
-145
-160
-166
-157
-175
-193
-141
-55
-40
-78
-50
26
24
-41
-62
-41
-57
-85
-58
0
23
-33
-114
-52
142
274
370
441
185
-294
-412
-162
-45
-99
-69
-18
-70
-99
-32
-6
-42
-12
34
11
39
146
204
249
357
453
493
463
362
294
278
201
89
33
4
-21
-24
-52
-126
-165
-123
-93
-132
-125
-18
38
-23
-76
-83
-128
-198
-188
-117
-117
-153
-96
-55
-107
-36
147
239
373
506
205
-335
-476
-305
-223
-189
-144
-184
-202
-118
-57
-64
-79
-80
-42
29
89
137
159
204
352
363
15
-326
-317
-139
23
110
47
-41
-35
-50
-98
-91
-74
-74
-29
29
15
-30
-20
36
102
133
80
29
74
110
54
0
26
106
126
49
64
208
276
409
687
555
-71
-388
-213
-129
-187
-112
-68
-187
-242
-179
-170
-213
-209
-177
-159
-128
-70
4
72
126
195
279
282
162
62
74
57
-77
-188
-188
-142
-98
-97
-151
-155
-88
-87
-162
-162
-72
-9
-4
-6
-8
-3
15
-65
-234
-228
-12
120
72
7
47
150
180
253
563
678
179
-336
-288
-90
-111
-114
-35
-39
-42
28
21
-56
-29
71
92
51
52
114
202
277
315
355
425
439
331
201
127
52
-53
-134
-165
-155
-150
-204
-265
-246
-198
-204
-241
-244
-165
-42
-23
-123
-141
-46
-49
-143
-124
-54
-97
-163
-160
-103
25
153
284
512
489
-57
-522
-431
-210
-160
-114
-108
-190
-169
-73
-59
-55
-61
-114
-8
113
-179
-456
-87
409
452
417
507
432
256
191
135
28
-39
-63
-73
-45
0
-7
-63
-93
-74
-54
-32
44
126
125
93
112
119
70
62
107
82
12
38
83
13
-3
146
221
236
407
369
-165
-573
-435
-240
-282
-313
-271
-266
-261
-226
-202
-178
-141
-117
-102
-54
16
55
82
159
239
270
285
274
189
106
82
18
-126
-212
-170
-118
-166
-250
-250
-187
-127
-64
-29
-72
-85
19
118
119
95
78
46
25
22
20
51
104
92
59
145
261
321
599
984
760
13
-317
-139
-101
-227
-224
-176
-152
-98
-100
-153
-121
-34
3
-4
-32
-41
45
167
187
198
356
416
114
-170
-82
30
-79
-153
-141
-192
-217
-165
-158
-195
-172
-88
-22
-26
-27
95
277
370
425
549
636
656
835
1118
982
312
-281
-447
-468
-543
-585
-569
-561
-590
-629
-626
-595
-613
-689
-772
-788
-687
-543
-468
-380
-162
48
123
186
299
331
263
188
121
76
79
69
36
61
94
55
30
62
84
92
82
33
6
30
64
85
50
-3
63
182
182
123
120
97
30
50
120
48
-74
-12
118
139
165
256
349
423
280
-145
-393
-213
12
43
51
81
28
-33
-6
7
-78
-133
-60
25
19
21
112
207
266
347
426
424
336
215
136
100
-6
-154
-180
-142
-225
-343
-326
-240
-199
-169
-122
-74
-29
-23
-45
-9
15
-45
8
216
370
567
803
586
-30
-320
-185
-106
-167
-178
-119
-60
-49
-73
-107
-147
-135
-73
-76
-103
-35
40
59
127
231
249
212
178
99
-19
-109
-177
-216
-201
-198
-245
-260
-232
-232
-240
-213
-186
-170
-145
-130
-134
-136
-132
-137
-162
-181
-142
-54
13
24
7
-14
-24
-24
-27
-8
27
-26
-101
39
248
217
219
437
339
-149
-335
-120
34
82
107
45
14
79
83
38
58
80
57
60
103
150
192
230
263
293
339
406
418
323
197
119
86
65
13
-73
-124
-115
-122
-163
-153
-59
-1
-48
-85
-45
22
108
111
-84
-255
-190
-99
-134
-165
-145
-129
-140
-162
-81
81
132
135
159
-80
-495
-543
-258
-135
-193
-191
-158
-164
-153
-140
-153
-106
-11
-23
-91
0
160
181
195
357
509
540
509
411
282
172
-15
-215
-238
-266
-406
-331
-66
-2
-81
-86
-78
-42
41
25
1
122
175
63
14
33
12
30
29
-53
-27
83
89
108
239
394
558
519
80
-294
-205
-21
-33
-46
-11
-43
-90
-79
-35
-23
-89
-120
-10
66
2
28
201
288
290
331
268
50
-101
-157
-262
-350
-326
-286
-312
-353
-348
-339
-365
-316
-168
-142
-253
-212
-3
84
5
-24
24
-8
-102
-83
4
-17
-30
64
44
-6
230
410
206
121
265
90
-203
-87
133
111
46
47
66
128
162
127
106
