# session 33
238
130
123
177
206
241
353
499
599
673
795
951
998
892
825
893
924
833
729
655
608
615
642
657
649
597
594
739
855
810
820
990
1164
1359
1566
1462
954
402
47
-143
-220
-244
-258
-229
-166
-172
-285
-403
-457
-520
-633
-710
-758
-865
-980
-1033
-1065
-1047
-944
-852
-771
-603
-413
-277
-150
-47
7
45
-77
-449
-740
-683
-508
-428
-348
-234
-155
-108
-109
-139
-94
7
40
16
22
45
42
35
41
42
49
81
104
126
176
171
79
16
5
-4
16
56
45
-8
-44
-39
-23
-38
-67
-58
-10
29
24
-12
-39
-58
-82
-92
-72
-58
-56
-12
32
-9
-3
167
329
446
616
510
-50
-459
-367
-209
-226
-217
-160
-169
-197
-184
-180
-202
-184
-133
-118
-123
-115
-94
-49
-38
-77
7
177
133
-1
151
442
528
490
494
482
412
328
260
213
168
105
63
65
68
57
75
93
54
29
61
59
19
25
57
70
48
-41
-132
-112
-25
0
-67
-132
-101
-39
-58
-37
138
296
326
248
-56
-462
-520
-252
-124
-184
-174
-119
-131
-134
-94
-91
-106
-88
-86
-121
-140
-141
-153
-149
-138
-135
-94
-28
25
123
243
283
284
281
210
126
55
-64
-113
-77
-172
-230
-72
-186
-621
-574
-36
189
69
37
95
170
258
237
135
102
141
164
123
80
122
148
89
73
83
58
165
368
486
655
738
278
-362
-431
-164
-129
-184
-127
-123
-155
-144
-236
-300
-128
-151
-598
-736
-270
65
-20
-113
-76
5
93
94
92
237
348
298
264
242
83
-73
-84
-97
-197
-285
-321
-308
-246
-222
-223
-129
-22
-6
123
482
867
1138
1285
1350
1535
1746
1435
643
123
-57
-452
-830
-649
-281
-256
-369
-365
-352
-402
-471
-543
-605
-634
-651
-721
-795
-775
-740
-772
-762
-680
-602
-442
-183
-10
71
204
297
235
165
193
225
196
148
124
128
109
51
34
81
90
37
11
20
6
-15
-13
-10
-30
-49
-41
-23
-27
-42
-46
-31
4
32
46
59
34
-40
-75
-56
-50
-32
3
-19
-75
-75
15
154
242
364
632
647
119
-347
-283
-99
-72
-35
-19
-47
49
185
195
182
202
170
137
174
201
182
165
154
162
215
258
281
333
350
282
263
331
322
204
104
43
-14
-42
-54
-90
-124
-128
-136
-143
-125
-108
-104
-83
-61
-55
-19
51
102
135
198
331
498
600
707
962
1104
740
119
-224
-311
-419
-504
-499
-526
-588
-583
-544
-551
-591
-632
-676
-692
-682
-739
-844
-872
-855
-878
-868
-796
-723
-575
-297
-35
108
224
361
429
393
361
389
388
337
328
365
361
311
274
270
274
269
259
242
212
176
133
113
143
130
20
-23
88
185
149
60
10
14
37
31
8
9
47
65
2
-23
149
362
445
500
417
-34
-473
-427
-186
-141
-157
-113
-120
-146
-105
-66
-99
-153
-158
-147
-189
-232
-183
-107
-123
-153
-85
9
66
158
274
322
335
352
322
274
246
137
-12
-41
-63
-132
-41
-63
-547
-817
-339
127
69
1
118
120
85
169
179
73
91
192
168
190
426
595
543
402
130
-212
-290
-119
3
41
50
-17
-75
-21
49
32
-18
-40
-51
-41
-5
-30
-102
-58
26
-37
-67
115
268
237
195
212
185
90
-24
-102
-129
-169
-229
-222
-177
-215
-308
-353
-337
-299
-281
-301
-291
-223
-202
-254
-234
-101
-24
-80
-98
39
127
-26
-194
-108
3
-72
-71
9
-142
-263
-41
163
213
365
525
672
883
707
74
-238
-47
79
27
19
42
46
37
10
18
54
49
21
-14
-63
-69
-46
-60
-55
-21
-30
-15
84
149
172
243
236
132
160
162
-180
-497
-362
-144
-194
-275
-239
-221
-251
-246
-186
-140
-153
-146
-81
-41
-33
-40
-116
-185
-154
-156
-224
-199
-130
-140
-130
-115
-165
-83
132
218
333
561
334
-325
-505
-171
-121
-222
-14
-62
-595
-636
26
390
234
163
236
220
209
262
277
253
246
258
280
329
401
451
472
468
413
348
324
247
95
21
32
-27
-108
-93
-75
-126
-117
-7
79
111
167
264
402
628
861
928
916
1018
1022
630
84
-227
-339
-424
-463
-432
-416
-457
-496
-481
-472
-560
-677
-685
-675
-816
-959
-927
-909
-1006
-1020
-955
-942
-853
-642
-470
-301
-50
148
254
406
635
905
1155
1325
1605
2007
1883
950
77
-91
-13
-103
-183
-181
-184
-175
-191
-258
-285
-294
-364
-418
-424
-485
-586
-591
-469
-323
-257
-219
-89
77
146
155
182
196
185
184
176
153
158
193
200
158
95
55
76
110
60
-7
25
70
22
-43
-37
1
-10
-62
-54
-4
-37
-77
-13
-6
-130
-142
-17
-25
-172
-203
-127
-125
-173
-144
-53
5
-17
-67
-49
12
22
-16
-47
-64
-56
-24
-17
-46
-65
-69
-83
-60
45
167
231
247
237
208
161
112
116
157
149
124
129
140
245
445
562
658
740
418
-179
-335
-70
11
-88
-86
-92
-168
-171
-141
-168
-187
-175
-174
-164
-147
-169
-190
-145
-98
-132
-176
-120
-25
7
21
80
106
52
12
16
-29
-112
-152
-175
-211
-216
-226
-286
-290
-208
-173
-172
-78
49
124
247
473
714
923
1100
1247
1379
1341
911
252
-206
-362
-411
-432
-404
-383
-390
-373
-336
-305
-280
-296
-370
-436
-463
-510
-589
-639
-638
-618
-598
-536
-388
-215
-78
73
225
279
304
421
497
456
587
952
1143
1168
1350
1306
653
-20
-219
-246
-288
-242
-213
-270
-261
-157
-131
-263
-409
-441
-440
-500
-562
-568
-566
-584
-574
-514
-426
-309
-181
-99
-62
-12
16
-30
-78
-56
-28
-58
-108
-119
-82
-44
-58
-83
-43
7
-20
-79
-72
-15
4
33
116
73
-47
76
147
-270
-540
-102
339
284
204
286
300
284
299
256
202
205
238
271
261
223
261
313
230
135
188
257
207
114
78
123
173
117
16
32
141
207
189
114
57
69
58
-5
17
72
-35
-182
-88
166
299
311
316
133
-324
-610
-409
-106
-91
-188
-148
-80
-155
-252
-193
-128
-223
-259
-116
-102
-264
-231
-1
64
-49
-56
112
257
241
201
269
291
220
260
280
111
101
145
-370
-911
-549
60
73
-19
111
93
1
37
21
-24
33
45
35
115
117
101
307
464
345
210
47
-252
-328
-131
-27
11
93
80
48
89
61
7
24
0
-21
20
-49
-100
41
-95
-571
-542
32
268
139
182
274
176
71
33
-80
-245
-335
-360
-404
-454
-441
-394
-371
-345
-312
-308
-275
-191
-177
-229
-206
-146
-165
-185
-142
-95
-36
33
22
-14
9
-19
-81
-25
-10
-131
-71
156
182
166
387
573
647
826
761
201
-196
-70
71
36
82
135
59
19
68
94
105
116
76
53
129
173
80
-11
36
132
142
94
100
186
271
286
257
238
216
148
65
-4
-89
-184
-215
-175
-156
-208
-254
-222
-161
-144
-148
-128
-77
-33
-37
-84
-147
-214
-246
-199
-150
-183
-205
-133
-108
-167
-97
72
156
328
551
288
-329
-515
-290
-217
-253
-176
-126
-138
-100
-55
-16
74
145
136
123
150
173
180
204
239
263
292
338
387
435
467
470
464
417
296
210
212
151
-9
-99
-87
-104
-158
-146
-60
11
21
43
200
497
769
890
934
1004
979
661
140
-276
-447
-489
-519
-551
-575
-581
-570
-570
-590
-612
-653
-714
-724
-688
-735
-859
-894
-826
-786
-755
-628
-449
-299
-154
-19
40
38
61
119
143
94
17
-11
32
85
100
140
166
40
-4
190
56
-479
-477
138
418
278
260
320
282
258
266
249
254
318
386
382
332
318
309
262
225
175
107
170
291
198
77
267
498
585
824
917
348
-271
-256
-53
-53
-67
-111
-137
-22
-196
-686
-676
-181
-31
-187
-180
-133
-172
-146
-89
-79
-36
55
127
156
177
237
257
131
10
61
66
-157
-325
-247
-180
-248
-267
-227
-235
-233
-191
-179
-162
-81
9
37
-29
-116
-72
3
-128
-281
-158
51
95
65
51
110
271
375
457
649
566
6
-353
-143
68
-30
-100
-17
-2
-74
-60
39
65
-30
-107
-72
-14
-24
-42
-17
30
78
100
127
219
297
280
248
229
159
65
-24
-143
-255
-286
-260
-239
-233
-230
-218
-184
-151
-159
-188
-176
-103
-6
56
91
152
231
362
585
731
790
1096
1517
1395
688
27
-325
-508
-529
-416
-375
-446
-467
-406
-333
-285
-298
-327
-300
-313
-446
-543
-511
-470
-488
-525
-543
-473
-317
-188
-95
44
170
192
190
241
259
171
71
47
44
48
115
124
-34
-128
15
143
84
26
62
89
100
124
108
67
67
68
12
-52
-79
-72
-39
-24
-40
-16
8
-31
30
222
326
423
595
398
-199
-477
-284
-173
-235
-219
-186
-214
-195
-154
-167
-163
-120
-111
-96
-28
-19
-41
73
145
24
120
376
36
-524
-194
563
673
441
424
391
245
168
114
45
24
17
9
39
70
61
38
18
37
130
181
83
-21
-5
27
16
0
-41
-38
67
69
-61
21
284
384
414
424
110
-304
-416
-475
-559
-365
-134
-198
-307
-267
-208
-195
-218
-247
-234
-195
-160
-129
-120
-132
-94
12
70
40
88
248
291
206
211
228
88
-40
-41
-66
-134
-160
-200
-266
-252
-138
-67
-144
-178
-40
-46
-278
-263
34
158
110
132
172
213
304
379
458
599
740
920
1224
1585
1878
1815
1105
152
-321
-335
-334
-350
-290
-268
-325
-390
-425
-411
-391
-441
-505
-521
-546
-599
-639
-683
-723
-711
-681
-659
-580
-442
-334
-274
-197
-109
-84
-120
-136
-123
-139
-156
-135
-133
-151
-118
-82
-108
-111
-45
12
52
98
94
45
36
57
47
30
54
98
105
35
-12
103
265
348
498
586
241
-201
-146
148
195
127
159
199
205
228
246
238
218
180
142
150
174
152
124
154
209
229
224
239
301
360
347
305
284
232
141
75
24
-32
-78
-121
-142
-112
-90
-106
-122
-132
-135
-107
-81
-82
-84
-116
-184
-213
-201
-197
-188
-187
-208
-189
-147
-129
-40
97
122
86
3
-292
-598
-547
-317
-258
-312
-316
-284
-256
-241
-246
-251
-224
-174
-148
-158
-151
-94
-23
11
13
63
182
237
202
267
442
507
439
369
293
209
161
116
76
79
57
12
55
143
138
75
79
136
161
162
178
178
158
174
215
265
375
545
697
801
921
1204
1682
1924
1384
347
-266
-342
-549
-826
-671
-427
-529
-625
-531
-543
-644
-652
-656
-729
-793
-819
-819
-842
-946
-1026
-962
-827
-717
-629
-553
-434
-231
-58
-10
-37
-68
-38
45
73
34
3
-3
25
53
25
27
94
97
78
198
359
401
382
379
373
357
341
321
305
326
376
347
262
338
523
597
735
944
684
53
-185
-28
12
-41
-33
-47
-54
-16
-17
-54
-70
-72
-83
-79
-25
-30
-141
-97
71
-71
-345
-184
172
233
172
187
148
67
18
-51
-138
-187
-204
-219
-242
-264
-266
-255
-231
-217
-240
-234
-142
-68
-92
-146
-152
-124
-130
-155
-130
-96
-94
-81
-127
-188
-10
258
277
265
321
-42
-639
-613
-75
181
117
111
143
131
142
160
158
167
161
124
126
192
243
226
197
223
286
325
328
333
336
311
293
267
173
79
66
51
-12
-59
-83
-93
-80
-86
-118
-122
-103
-84
-67
-76
-106
-125
-158
-211
-221
-180
-147
-144
-145
-115
-90
-97
-32
104
147
177
275
105
-365
-588
-424
-265
-220
-184
-205
-253
-201
-117
-120
-150
-158
-171
-145
-84
-86
-50
71
12
-55
254
278
-469
-755
62
660
455
305
372
269
161
146
60
32
123
109
-4
10
122
132
46
44
137
163
124
124
102
8
-19
43
42
-9
37
122
87
58
209
393
487
525
363
-63
-479
-664
-564
-283
-132
-187
-223
-210
-210
-172
-165
-230
-210
-112
-111
-164
-121
-40
-50
-84
-35
34
81
189
272
205
153
216
196
29
-109
-124
-92
-122
-188
-171
-127
-128
-88
-58
-111
-86
-41
-193
-281
-80
79
58
87
133
77
34
90
180
174
83
166
426
531
547
648
474
-25
-272
-175
-98
-42
44
45
36
63
12
-24
50
63
-2
39
126
100
38
53
92
102
108
122
152
205
242
222
155
71
-8
-81
-161
-213
-208
-198
-202
-179
-166
-207
-225
-185
-172
-175
-109
-18
8
23
125
258
369
542
770
964
1258
1641
1573
792
-87
-473
-505
-501
-530
-566
-554
-518
-585
-677
-603
-492
-509
-536
-519
-561
-619
-638
-688
-733
-700
-660
-619
-493
-322
-173
-11
135
188
194
206
195
167
145
93
44
76
115
75
44
64
38
-20
-2
66
81
43
64
204
361
414
419
514
686
826
976
1120
868
92
-596
-766
-713
-640
-456
-315
-354
-376
-315
-357
-482
-484
-387
-419
-575
-614
-533
-552
-642
-631
-569
-537
-455
-312
-207
-147
-76
16
122
232
290
280
288
338
348
341
401
464
454
449
465
438
423
458
442
384
397
435
401
350
369
441
454
360
301
365
384
277
214
237
225
209
234
211
193
301
421
563
879
978
443
-169
-219
-10
41
-10
-78
-132
-107
-69
-93
-122
-110
-74
-48
-75
-118
-66
36
24
-56
-22
95
124
75
83
153
164
77
-6
-30
-83
-202
-298
-318
-319
-357
-414
-426
-377
-365
-403
-354
-281
-341
-356
-294
-555
-959
-863
-477
-392
-470
-463
-490
-553
-556
-479
-280
-109
-151
