# session 12
-128
-310
-251
-20
176
232
206
262
336
165
-55
237
944
1304
1022
622
598
829
981
1012
995
864
629
430
283
169
217
367
399
444
577
381
-135
-335
-123
53
95
123
162
291
436
387
274
374
564
563
431
396
432
369
348
552
636
328
84
220
348
229
66
-42
-119
-159
-243
-402
-490
-403
-214
-32
118
262
384
442
442
422
400
346
215
29
-126
-219
-304
-414
-528
-645
-719
-681
-617
-553
-393
-331
-368
-72
107
-580
-1102
-397
405
366
166
41
-260
-285
110
336
254
184
142
45
-17
-40
-109
-193
-208
-170
-134
-96
-44
-8
12
49
76
45
19
103
208
120
-134
-282
-260
-255
-245
-84
67
9
-57
16
1
-88
120
595
925
996
897
572
81
-302
-454
-499
-557
-615
-583
-422
-184
50
187
180
110
30
-163
-460
-656
-695
-709
-725
-697
-659
-638
-601
-514
-382
-286
-279
-273
-209
-190
-191
-3
246
120
-197
-20
556
806
616
369
214
188
347
550
585
430
227
87
3
-61
-99
-111
-121
-138
-112
0
109
110
82
91
77
75
159
285
401
497
569
614
637
778
1051
947
262
-255
-112
137
-20
-364
-519
-432
-246
-133
-198
-340
-332
-168
-73
-124
-163
-53
166
353
439
505
656
852
942
864
713
581
418
131
-180
-296
-276
-367
-540
-649
-757
-858
-823
-747
-739
-649
-425
-228
-137
-229
-500
-552
-151
243
247
76
-28
-27
79
243
470
713
742
600
520
254
-349
-705
-527
-310
-309
-299
-228
-202
-210
-208
-193
-204
-258
-247
-84
100
139
89
119
284
493
557
442
378
436
395
292
302
144
-330
-587
-406
-316
-462
-403
-140
-56
-130
-160
-205
-267
-162
69
253
392
478
458
434
445
387
301
280
300
338
319
207
190
319
423
512
455
-62
-689
-794
-563
-496
-538
-461
-327
-365
-612
-670
-237
286
357
66
-153
-73
240
501
459
245
143
138
86
19
-12
-55
-113
-165
-216
-255
-278
-279
-219
-157
-208
-292
-240
-88
49
178
296
293
152
9
-74
-120
-61
83
92
-8
-40
-196
-524
-575
-297
-99
-18
43
17
-1
-49
-329
-574
-420
-123
-22
15
165
316
344
357
466
551
500
410
324
192
104
120
89
-35
-86
-16
68
146
262
304
67
-400
-749
-734
-534
-529
-691
-493
191
686
610
392
305
180
107
271
478
513
416
258
103
16
-60
-196
-310
-307
-231
-170
-161
-131
45
243
274
438
880
898
214
-335
-364
-384
-485
-389
-260
-326
-448
-381
-146
-56
-91
194
601
430
-104
-261
-103
-59
-77
3
88
112
127
117
30
-64
-72
-8
105
282
453
546
578
542
432
288
70
-205
-350
-347
-353
-381
-468
-649
-648
-366
-163
-78
96
177
191
402
428
63
-34
271
587
973
1067
342
-365
-183
262
357
334
263
35
-195
-374
-592
-738
-719
-681
-730
-763
-676
-570
-602
-695
-659
-537
-449
-326
-126
80
366
733
842
571
285
202
198
205
181
97
125
210
2
-312
-193
187
310
179
4
-169
-261
-241
-193
-144
-102
-49
89
221
267
393
586
669
745
738
331
-141
-119
120
99
-91
-303
-546
-707
-756
-772
-683
-496
-420
-413
-239
-12
-19
-134
-6
251
173
-189
-277
40
402
563
447
226
267
523
620
530
386
167
-47
-138
-185
-267
-313
-296
-280
-257
-191
-188
-294
-345
-293
-292
-323
-267
-173
-56
168
487
840
1087
1133
1225
1369
1010
219
-202
-134
-106
-293
-580
-755
-563
-195
-108
-276
-363
-321
-302
-330
-348
-364
-396
-375
-254
-90
66
217
382
554
689
752
802
893
1010
1139
1216
1229
1358
1609
1591
1112
382
-387
-994
-1229
-1184
-1114
-1158
-1302
-1270
-969
-997
-1512
-1491
-536
267
202
-304
-716
-762
-408
1
163
177
184
135
14
-73
-109
-197
-263
-152
-27
-84
-117
-6
-7
-140
-136
-32
-21
-19
88
183
190
195
204
155
154
229
182
65
-7
-340
-812
-644
83
426
265
194
277
196
-66
-272
-268
-125
26
159
276
398
544
652
733
869
941
837
680
489
237
139
200
205
300
434
93
-470
-483
-219
-328
-617
-783
-868
-840
-737
-605
-381
-339
-597
-609
-183
231
406
305
34
82
503
702
551
438
421
348
232
90
-64
-182
-325
-495
-512
-415
-439
-528
-467
-308
-216
-167
-57
120
334
598
803
758
521
305
160
114
174
206
167
75
-175
-401
-209
264
491
217
-387
-793
-622
-249
-196
-305
-242
-94
8
127
229
259
329
451
472
417
434
467
419
365
349
286
186
142
135
58
-139
-344
-372
-261
-272
-391
-389
-355
-394
-265
-132
-388
-500
-7
267
-66
-178
66
105
106
302
357
222
111
-54
-265
-308
-288
-368
-301
-36
60
58
232
167
-378
-724
-560
-391
-358
-203
5
135
233
247
146
45
28
102
198
205
192
287
323
106
-119
-46
151
179
120
176
281
264
135
-3
-124
-205
-177
-70
-5
25
153
363
438
345
364
578
650
408
113
-49
-189
-368
-461
-423
-390
-405
-379
-332
-265
-94
-34
-267
-412
-367
-643
-1061
-837
-139
314
451
360
2
-185
115
440
450
383
332
208
132
176
184
82
-3
43
143
139
65
70
115
82
26
61
187
321
355
218
-37
-222
-215
-140
-159
-196
-127
-17
4
-54
-63
-38
-174
-407
-358
-37
78
-127
-272
-206
-137
-85
74
188
149
186
311
271
210
382
546
462
284
112
-85
-193
-176
-227
-380
-408
-294
-269
-312
-282
-314
-465
-489
-328
-149
-8
52
68
212
243
-219
-669
-337
418
636
220
-89
78
335
362
307
283
193
65
30
57
38
-1
-35
-130
-229
-193
-129
-198
-230
-86
7
8
206
498
571
574
569
266
-106
-73
111
46
-87
-90
-48
-17
-77
-272
-323
-32
196
-10
-268
-137
132
195
141
121
154
248
312
315
408
556
522
392
436
548
466
271
183
154
28
-157
-292
-397
-498
-550
-600
-751
-916
-886
-684
-554
-529
-456
-352
-234
-89
-225
-609
-431
395
811
547
314
203
-8
31
401
584
416
177
-37
-208
-202
-91
-84
-136
-133
-149
-174
-139
-124
-120
3
157
198
239
388
502
503
591
786
749
426
172
102
40
-13
82
231
107
-331
-640
-545
-345
-314
-310
-193
-66
-68
-211
-382
-473
-467
-381
-241
-101
-16
10
91
307
454
451
644
897
516
-276
-580
-473
-547
-704
-745
-869
-1045
-1018
-823
-588
-355
-275
-401
-471
-438
-621
-839
-440
453
1078
1231
1087
676
305
378
683
764
589
365
196
86
13
-49
-104
-150
-204
-246
-231
-203
-167
-23
145
128
35
109
303
439
423
281
181
195
239
395
681
894
1186
1644
1534
562
-297
-487
-487
-453
-243
-156
-324
-417
-334
-252
-235
-280
-357
-358
-300
-286
-205
46
271
333
414
610
757
742
594
399
285
260
148
-39
-61
58
44
-189
-483
-663
-705
-761
-839
-676
-338
-294
-478
-305
175
396
269
12
-286
-403
-154
195
264
82
-16
70
119
120
171
-55
-669
-1039
-852
-615
-641
-659
-514
-370
-274
-104
97
163
91
-27
-150
-210
-153
-65
-11
63
156
210
296
439
415
144
-74
-61
-17
-115
-284
-364
-280
-122
-20
4
-7
7
72
159
310
543
704
762
852
885
753
686
744
608
312
197
130
-40
70
415
408
184
130
-82
-493
-569
-355
-215
-301
-790
-1216
-664
449
816
297
-254
-336
-79
113
66
-8
-26
-140
-292
-340
-371
-415
-368
-307
-360
-425
-416
-456
-593
-680
-577
-268
68
186
327
1054
2129
2630
2303
1623
920
367
94
-72
-296
-385
-279
-315
-577
-706
-617
-601
-712
-780
-775
-726
-628
-539
-479
-359
-143
87
283
474
673
831
894
845
747
716
702
524
228
53
-15
-141
-247
-226
-260
-518
-842
-958
-811
-607
-553
-591
-531
-405
-357
-265
49
389
502
425
184
-168
-267
32
323
373
375
365
234
87
8
-86
-179
-211
-229
-211
-158
-217
-270
-101
51
108
414
657
259
-267
-279
-185
-385
-587
-538
-325
-191
-268
-333
-319
-573
-964
-884
-427
-169
-141
-112
-81
-19
120
251
327
367
370
346
307
296
393
551
645
687
734
717
607
495
439
410
340
181
8
-75
-130
-231
-274
-215
-175
-148
-9
201
378
583
777
812
805
845
687
445
489
473
-11
-378
-135
239
319
269
204
73
-85
-253
-429
-520
-553
-692
-896
-954
-867
-777
-667
-498
-357
-226
-11
228
405
495
410
186
49
46
48
34
-38
-184
-192
-205
-670
-1060
-459
535
764
440
215
75
34
161
144
-83
-190
-164
-184
-167
-73
52
319
617
702
748
787
405
-167
-275
-142
-309
-606
-748
-834
-952
-1027
-971
-794
-664
-657
-573
-375
-327
-289
-14
-86
-613
-368
658
923
436
294
313
166
270
500
469
363
299
96
-194
-372
-407
-363
-260
-150
-97
-50
39
65
14
36
73
17
72
267
311
319
486
490
309
358
490
414
359
395
346
275
134
-131
-141
182
336
219
151
141
71
48
121
168
113
28
51
182
243
184
166
222
241
244
266
212
98
46
18
-87
-253
-402
-474
-510
-615
-733
-726
-650
-619
-582
-465
-340
-266
-212
-325
-710
-878
-330
490
830
613
174
-162
-72
415
750
715
759
886
507
-179
-395
-244
-246
-322
-307
-291
-246
-160
-147
-176
-165
-128
-25
202
449
545
462
342
320
391
471
519
547
530
491
555
590
296
-86
-123
-44
-183
-363
-457
-520
-455
-273
-181
-197
-180
-114
-47
20
104
197
256
255
248
256
191
81
6
-174
-423
-384
-174
-167
-144
-25
-291
-741
-667
-314
-363
-661
-754
-640
-423
-243
-399
-664
-414
146
379
398
366
38
-237
49
477
571
557
579
502
404
362
243
17
-177
-275
-341
-393
-392
-410
-495
-488
-347
-266
-240
-103
60
114
166
258
227
108
151
294
275
156
-6
-436
-807
-388
480
756
459
262
100
-275
-475
-250
-1
-35
-159
-170
-80
84
281
415
500
588
607
551
523
474
339
237
229
228
234
263
249
170
41
-138
-303
-333
-281
-345
-424
-246
-180
-617
-867
-522
-323
-332
1
223
57
165
508
536
432
425
315
135
46
-31
-104
-102
-137
-194
-81
98
200
372
427
6
-470
-441
-185
-78
-28
34
104
242
323
196
19
-45
-118
-176
-33
-5
-429
-623
31
741
698
373
316
375
393
377
257
48
-109
-158
-162
-132
-15
134
184
173
211
236
165
86
97
126
66
-47
-144
-265
-431
-562
-643
-689
-671
-714
-864
-763
-344
-105
-28
239
202
-441
-754
-239
325
366
66
-232
-242
19
224
263
264
235
134
22
-52
-78
-47
-36
-108
-151
-80
-3
34
75
64
19
53
105
119
220
325
185
-71
-162
-166
-197
-154
-82
-62
32
60
-230
-423
-120
184
99
-38
-69
-141
-152
-12
108
90
52
133
230
252
378
517
312
6
98
355
356
250
188
3
-246
-314
-295
-373
-397
-284
-262
-368
-391
-328
-262
-109
62
104
182
358
360
264
433
758
929
884
512
-100
-321
86
485
479
376
348
254
127
77
53
8
-35
-87
-151
-180
-171
-169
-151
-41
109
168
257
621
1031
1095
1085
1310
1197
349
-503
-726
-640
-604
-558
-506
-566
-687
-713
-663
-705
-852
-970
-1053
-1127
-1070
-852
-663
-627
-638
-537
-329
-129
59
310
538
596
550
487
328
122
59
71
-62
-286
-382
-342
-306
-348
-476
-591
-506
-256
-51
63
117
111
133
111
-116
-311
-232
-18
351
837
876
439
361
731
740
360
229
311
244
129
77
-6
-65
-63
-108
-156
-102
-36
-32
-16
37
115
245
346
383
549
832
891
689
538
469
322
191
158
56
-73
-84
-259
-668
-666
-131
119
-206
-517
-454
-157
122
182
32
-125
-157
-85
-6
35
112
265
413
471
476
575
758
814
790
800
489
-232
-705
-668
-613
-745
-884
-997
-1055
-962
-797
-695
-645
-503
-257
-265
-543
-407
75
11
-343
-177
95
62
203
520
606
576
562
412
190
61
6
-38
-80
-105
-91
-90
-190
-342
-400
-314
-192
-133
-68
95
231
208
171
235
216
78
34
42
-23
68
304
381
549
887
581
-353
-748
-515
-470
-533
-337
-145
-105
-86
-123
-197
-174
-104
-64
13
161
326
475
576
614
627
643
648
597
462
306
177
18
-148
-274
-440
-621
-637
-535
-500
-519
-490
-415
-335
-264
-190
-122
-66
59
305
544
531
168
-228
-199
181
464
515
428
286
256
306
326
534
763
358
-407
-583
-256
-118
-166
-123
-54
-40
3
161
352
339
119
-37
-72
-121
-125
2
161
274
331
304
216
94
-89
-263
-304
-222
-155
-220
-381
-487
-477
-424
-370
-317
-281
-251
-194
-103
32
242
462
513
393
332
347
223
2
-139
-240
-301
-293
-355
-401
-281
-261
-351
-207
-134
-485
-678
-419
-236
-224
-167
-297
-591
-654
-415
94
713
798
212
-167
105
459
544
603
694
632
487
446
470
406
255
139
62
-51
-142
-175
-212
-219
-196
-230
-198
-14
96
74
117
179
137
109
148
122
6
-89
-88
-62
-164
-293
-153
102
35
-169
-63
144
178
226
192
-174
-491
-415
-220
-83
57
131
157
240
306
278
223
233
327
317
79
-118
-99
-108
-251
-336
-313
-205
-14
101
96
121
73
-81
-84
-146
-498
-527
-120
-46
-144
148
302
81
139
463
559
508
487
405
265
140
48
-1
-18
