# session 50
38
-39
12
77
27
-3
64
36
-58
23
216
435
683
581
1
-397
-309
-201
-238
-217
-189
-222
-233
-226
-236
-235
-234
-236
-206
-155
-101
-30
56
147
222
259
273
261
180
60
-34
-107
-151
-146
-149
-183
-189
-184
-191
-134
-35
-49
-144
-130
-19
9
-56
-82
-63
-85
-120
-94
-37
-19
-68
-101
28
216
245
248
328
152
-277
-436
-256
-123
-115
-117
-123
-90
-19
-13
-42
5
66
47
9
34
104
172
234
316
395
428
446
460
399
282
151
-5
-66
-26
-118
-197
-63
-243
-836
-909
-340
-60
-195
-189
-60
-69
-118
-93
-93
-141
-134
-85
-55
-19
-56
-144
-38
158
208
367
556
174
-480
-571
-281
-177
-180
-162
-201
-181
-75
-63
-78
19
81
89
198
260
266
473
499
-4
-198
354
695
450
272
252
120
49
92
44
-31
-14
-7
-59
-70
-2
62
72
100
206
288
249
176
159
132
63
25
28
62
108
59
6
124
238
301
549
608
54
-452
-330
-60
-80
-214
-262
-206
-138
-161
-222
-235
-217
-190
-165
-144
-95
-28
33
108
176
188
155
112
73
15
-99
-199
-208
-195
-206
-183
-162
-205
-238
-187
-132
-163
-192
-105
-8
-34
-104
-126
-128
-112
-74
-71
-77
-8
51
-1
-3
123
164
196
471
574
87
-384
-295
-84
-98
-110
-55
-45
-40
-37
-59
-19
58
31
-43
1
114
108
-1
-6
142
258
239
190
178
135
39
-41
-84
-135
-192
-220
-256
-323
-329
-244
-210
-256
-236
-134
-57
-26
-43
-87
-77
-41
-64
-106
-112
-83
-43
-48
-30
76
170
376
722
573
-178
-528
-220
-61
-159
-95
-14
-49
2
51
-5
49
124
25
85
261
-73
-522
-174
477
604
541
602
537
385
309
243
182
122
58
67
79
17
30
125
125
57
56
138
259
323
264
212
250
262
217
193
186
215
286
282
262
384
497
499
558
501
73
-318
-290
-118
-55
-91
-155
-66
-111
-886
-1861
-1925
-1324
-956
-815
-632
-498
-386
-241
-176
-153
-54
61
89
19
-48
-25
-35
-174
-260
-195
-142
-160
-149
-113
-106
-95
-51
-18
6
73
136
122
98
132
160
154
154
146
138
166
133
50
140
336
446
725
1107
854
60
-271
-52
37
-34
17
74
34
20
40
7
-27
27
80
45
21
53
74
137
285
351
284
285
328
148
-137
-173
-77
-150
-288
-303
-282
-290
-261
-198
-170
-175
-164
-113
-57
-54
-95
-110
-107
-152
-186
-135
-88
-93
-95
-116
-100
76
223
244
433
575
132
-454
-458
-167
-72
-100
-111
-60
-27
-180
-298
-214
-297
-452
-170
213
197
131
268
349
373
471
508
456
425
340
168
63
37
-37
-106
-56
20
-19
-98
-67
28
37
-3
34
127
167
96
-28
-84
-31
75
147
68
-41
81
198
-39
-235
-9
272
291
100
-223
-423
-311
-151
-144
-151
-119
-105
-92
-87
-91
-57
-39
-92
-114
-49
16
55
106
168
235
267
235
222
239
163
35
-29
-93
-168
-153
-143
-192
-159
-116
-176
-150
-93
-261
-342
-41
195
89
-17
13
6
-34
-17
10
-19
-39
46
18
-438
-998
-992
-475
-79
-7
-15
40
146
208
125
28
67
104
63
89
164
178
207
302
376
437
538
617
639
649
608
435
205
44
-56
-153
-240
-285
-272
-228
-211
-226
-208
-146
-111
-137
-153
-115
-91
-100
-61
-29
-125
-220
-148
-57
-133
-230
-175
-109
-132
-62
83
133
282
508
247
-387
-558
-254
-105
-145
-140
-146
-160
-117
-90
-54
34
64
48
97
122
91
165
305
347
358
409
413
367
309
189
56
38
67
5
-59
-2
45
-13
-39
-14
-55
-57
75
132
60
65
100
30
4
66
77
37
-69
-102
225
465
37
-391
-223
-148
-407
-374
-153
-198
-265
-147
-94
-153
-139
-73
-75
-104
-85
-62
-79
-63
25
99
111
152
267
337
277
174
106
35
-54
-110
-134
-156
-155
-134
-151
-174
-159
-185
-204
-100
-131
-423
-457
-64
181
113
78
76
14
21
56
18
32
89
43
36
188
290
368
600
606
119
-286
-221
-53
-13
-7
-55
-115
-50
32
4
-29
-7
-1
19
81
103
94
138
209
255
283
282
225
138
38
-74
-159
-187
-197
-210
-203
-199
-216
-198
-152
-185
-256
-205
-62
-14
-63
-78
-73
-102
-100
-70
-107
-126
-36
-7
-64
31
201
244
408
684
473
-170
-454
-279
-157
-160
-110
-58
-51
-40
-29
-36
-26
7
26
35
92
174
197
194
249
296
270
265
267
156
38
52
66
4
3
39
-36
-130
-101
-36
-26
-26
-27
-18
50
100
51
5
11
-23
-94
-126
-138
-152
-147
-162
-191
-96
74
90
6
-33
-172
-393
-387
-199
-130
-163
-145
-132
-155
-109
-33
-60
-108
-49
15
9
32
96
131
191
314
381
365
365
316
166
121
107
-219
-559
-381
-25
-4
-105
-72
-20
-6
-14
-31
35
173
244
240
284
439
633
712
692
874
1280
1317
680
-15
-239
-291
-435
-456
-371
-433
-556
-552
-504
-514
-552
-575
-583
-629
-716
-754
-721
-628
-429
-224
-147
-42
171
220
35
-72
4
45
-30
-79
-30
36
52
50
78
121
116
56
18
47
66
19
-19
24
110
157
159
130
56
15
80
114
54
69
132
85
100
290
402
426
469
231
-278
-446
-184
-5
-11
-5
-22
-63
-24
38
40
43
83
114
124
135
157
205
268
307
339
384
375
295
230
177
93
39
10
-60
-101
-70
-71
-100
-77
-33
-15
-24
-44
-13
60
41
-69
-124
-119
-144
-187
-215
-218
-177
-159
-178
-79
93
118
123
205
26
-387
-498
-291
-186
-203
-173
-154
-178
-160
-115
-102
-89
-44
-10
7
31
60
117
223
311
341
319
218
168
261
125
-364
-541
-190
27
-88
-138
-99
-123
-116
-65
-59
-53
8
99
160
124
34
5
36
57
44
9
25
99
94
42
83
188
426
779
699
41
-415
-306
-138
-167
-209
-205
-173
-114
-108
-173
-196
-132
-97
-157
-176
-65
47
98
156
229
294
315
231
118
63
-19
-125
-156
-176
-217
-205
-225
-294
-248
-182
-268
-293
-107
23
-30
-53
17
17
-46
-30
30
8
-30
-3
-13
-32
122
306
282
250
291
29
-421
-442
-124
-46
-154
-97
5
-35
-81
-60
-39
8
57
42
56
141
196
225
298
385
450
494
492
387
207
123
173
142
-6
-39
37
27
-21
19
64
28
-6
5
9
8
19
-14
-81
-109
-110
-131
-156
-180
-181
-122
-92
-119
-24
153
205
257
331
69
-378
-445
-254
-242
-289
-215
-175
-197
-164
-137
-154
-122
-52
-33
-51
-39
38
143
197
231
305
314
218
166
162
95
31
25
-14
-71
-67
-55
-89
-120
-101
-50
-15
-3
23
79
140
138
51
5
76
115
25
-46
12
64
-2
-17
120
204
264
546
707
285
-268
-361
-213
-164
-148
-114
-109
-89
-55
-82
-152
-171
-137
-143
-200
-195
-104
-15
57
133
163
164
171
90
-88
-197
-216
-272
-335
-293
-220
-258
-335
-269
-111
-101
-239
-281
-152
-23
4
-8
-5
-24
-63
-64
-63
-76
0
42
-176
-387
-271
-65
111
456
645
259
-232
-256
-68
-14
0
15
4
50
84
17
21
125
111
32
88
188
222
309
475
570
542
517
567
554
392
230
152
88
47
52
17
-52
-71
-74
-108
-132
-134
-132
-92
-28
-19
-67
-103
-113
-122
-108
-79
-91
-94
-43
-74
-157
-33
163
147
194
404
234
-285
-456
-262
-174
-196
-188
-202
-198
-148
-149
-174
-145
-121
-114
-73
-45
-33
50
174
247
301
351
336
263
186
97
-12
-94
-113
-96
-87
-95
-95
-88
-85
-66
-50
-76
-65
42
118
123
153
132
3
-43
27
12
-52
-14
3
-78
-46
93
163
332
561
318
-267
-395
-98
-37
-213
-258
-210
-221
-244
-231
-204
-166
-129
-97
-44
9
34
70
134
175
199
259
305
232
103
61
59
-45
-176
-190
-160
-181
-164
-106
-146
-197
-108
-39
-83
-59
7
49
147
-15
-553
-667
-124
163
-22
-33
121
42
-74
56
212
276
498
686
316
-288
-382
-119
-42
-83
-35
-17
-80
-93
-14
73
73
5
14
131
187
148
178
311
422
463
497
517
433
288
166
-55
-361
-419
-227
-145
-208
-245
-255
-225
-174
-224
-267
-139
-9
-22
-24
12
-53
-139
-113
-76
-115
-127
-89
-127
-173
-19
182
173
231
509
406
-228
-554
-272
-29
-80
-125
-89
-75
-76
-99
-144
-134
-65
-11
18
75
153
211
261
340
417
442
422
373
280
156
68
34
-4
-55
-78
-88
-109
-105
-71
-40
-19
-10
3
62
135
147
125
120
81
-5
-30
25
33
-9
10
14
-69
-55
78
126
141
147
-138
-575
-644
-409
-307
-330
-293
-247
-240
-220
-163
-95
-79
-131
-145
-72
-5
27
89
176
247
308
337
312
275
238
135
-2
-69
-93
-130
-143
-140
-159
-153
-110
-71
-46
-43
-31
45
119
111
95
103
60
-6
-9
21
26
54
99
48
-22
86
219
263
543
895
605
-108
-379
-240
-148
-85
-65
-187
-223
-95
-57
-117
-109
-81
-85
-69
-17
65
135
144
169
235
224
170
171
106
-84
-195
-165
-174
-250
-241
-153
-146
-223
-210
-102
-104
-227
-216
-52
-1
-92
-98
-27
-62
-150
-130
-62
-55
-56
-32
-38
4
150
249
309
416
271
-232
-509
-268
-39
-201
-401
-283
-47
36
38
39
-17
-39
65
159
139
146
272
375
396
451
503
461
421
357
170
35
28
-25
-78
-28
-15
-71
-70
-38
-27
-20
-38
-63
-36
14
45
47
-4
-86
-135
-128
-103
-119
-168
-169
-152
-171
-93
80
152
208
319
130
-335
-484
-263
-159
-222
-212
-163
-169
-167
-132
-94
-70
-83
-89
-25
40
51
88
196
314
373
339
275
255
199
52
-67
-104
-117
-98
-69
-105
-147
-122
-108
-129
-99
-35
-7
20
75
109
111
110
75
8
21
106
92
26
71
87
2
86
267
290
460
773
511
-186
-407
-204
-145
-165
-145
-207
-229
-145
-141
-209
-190
-132
-130
-138
-102
-40
31
105
174
237
278
262
203
147
86
-15
-128
-178
-142
-108
-153
-218
-197
-97
-23
-34
-58
-10
95
211
345
496
608
651
748
963
1018
677
148
-335
-693
-727
-471
-331
-406
-445
-426
-470
-533
-543
-547
-593
-637
-607
-534
-490
-440
-303
-87
115
239
298
330
316
236
146
95
75
83
105
91
41
31
96
151
114
61
82
74
-15
-7
50
-127
-374
-337
-176
-121
-71
-35
-80
-85
-56
-110
-161
-110
-64
-108
-128
-50
-21
-38
118
362
513
724
855
486
-40
-97
88
88
33
55
42
1
-1
15
36
46
32
45
86
80
76
158
257
298
321
347
339
281
192
109
28
-81
-182
-203
-164
-127
-111
-124
-157
-161
-114
-54
-32
-29
38
148
135
1
-40
39
55
-7
-29
-16
-34
-67
-44
30
97
235
457
403
-74
-458
-422
-300
-317
-318
-262
-243
-245
-234
-223
-202
-167
-139
-100
-30
54
136
214
269
294
305
314
310
254
138
34
-9
-33
-68
-87
-79
-75
-111
-170
-158
-78
-62
-116
-125
-112
-123
-66
36
-8
-152
-141
-9
16
-19
36
70
-6
-8
104
129
186
496
629
173
-321
-307
-139
-149
-125
-7
-4
-93
-92
-14
19
7
-4
-42
-87
-59
18
69
105
138
148
167
200
195
144
55
-51
-93
-73
-106
-196
-244
-243
-226
-190
-162
-171
-185
-158
-86
-26
-20
-28
-21
-50
-105
-111
-110
-147
-128
-50
-66
-103
37
230
352
552
614
155
-408
-453
-207
-117
-133
-110
-86
-86
-63
1
0
-120
-205
-225
-253
-123
191
356
342
426
543
481
366
373
352
162
4
38
69
-31
-88
-35
-30
-94
-97
-51
-40
-24
24
59
102
161
144
60
9
7
33
57
25
3
57
86
98
203
306
342
346
108
-348
-511
-314
-212
-256
-234
-201
-195
-147
-131
-174
-145
-70
-65
-56
22
56
36
103
234
286
265
266
265
195
94
3
-83
-129
-129
-154
-187
-172
-182
-242
-232
-146
-111
-137
-143
-112
-46
51
87
15
-39
-14
-9
-44
-54
-25
12
3
-8
106
246
349
672
1004
684
-43
-319
-170
-115
-142
-98
-79
-112
-115
-106
-126
-137
-95
-63
-88
-70
43
101
60
97
237
302
266
219
148
38
-58
-125
-178
-208
-223
-238
-248
-250
-233
-178
-127
-139
-145
-75
-19
-54
-106
-118
-120
-138
-182
-192
-99
-5
-76
-217
-163
71
225
302
461
446
2
-417
-385
-213
-194
-165
-88
-105
-164
-176
-168
-124
-31
15
-11
10
101
166
197
258
347
427
464
430
355
274
169
68
27
-1
-52
-71
-66
-75
-51
-19
-56
-85
-17
74
111
104
89
105
127
101
57
52
66
67
68
79
94
179
410
666
774
746
514
-19
-486
-504
-349
-358
-388
-336
-304
-288
-298
-354
-334
-275
-350
-426
-372
-355
-377
-275
-174
-196
-140
45
108
32
22
54
18
-10
5
-43
-119
-100
-41
-64
-110
-70
-25
-84
-127
-1
186
252
209
163
126
75
67
140
196
210
258
295
352
574
783
860
1105
1263
673
-164
-296
-38
-61
-193
-192
-182
-188
-169
-174
-190
-190
-193
-195
-189
-191
-200
-198
-180
-134
-54
16
14
-24
-40
-83
-186
-274
-303
-303
-286
-260
-260
-262
-219
-151
-117
-139
-167
-135
-35
