# session 37
4
0
-19
7
45
11
-22
35
106
123
113
85
49
62
113
101
48
86
113
3
32
328
579
778
976
711
62
-151
100
183
96
120
146
86
71
111
94
47
82
142
106
37
68
163
202
176
191
253
237
174
205
232
109
-31
-72
-103
-170
-219
-239
-238
-224
-220
-207
-165
-127
-110
-109
-149
-193
-179
-172
-219
-207
-132
-118
-115
-93
-146
-140
40
134
130
243
165
-301
-567
-376
-242
-315
-289
-222
-281
-297
-203
-173
-206
-188
-154
-128
-53
40
103
179
282
372
454
544
579
516
405
305
219
126
42
3
-20
-64
-70
-20
-24
-74
-51
31
103
154
138
46
-12
-2
-8
-45
-64
-45
-26
-82
-145
-42
146
265
424
522
195
-307
-393
-179
-110
-170
-187
-182
-189
-196
-204
-191
-152
-132
-138
-102
-15
32
23
54
125
144
123
132
164
147
30
-99
-120
-124
-203
-221
-163
-206
-278
-218
-155
-180
-143
-50
-3
52
58
-53
-24
85
-213
-620
-407
126
276
142
102
234
421
523
614
664
345
-163
-279
-93
-29
-65
-82
-97
-91
-98
-124
-69
9
-23
-98
-106
-63
2
84
160
225
285
346
399
367
225
130
93
-148
-472
-429
-154
-115
-229
-234
-189
-175
-157
-107
-31
14
25
56
27
-83
-119
-74
-102
-179
-168
-109
-124
-116
61
256
374
566
620
201
-279
-296
-120
-118
-147
-68
-8
-44
-60
16
23
-103
-105
101
264
292
309
346
382
427
471
520
542
469
371
335
265
144
110
123
56
6
41
37
-18
-43
-37
-5
41
52
50
57
29
-18
-22
24
107
216
325
400
452
614
978
1237
945
202
-438
-704
-753
-770
-784
-756
-711
-732
-804
-822
-807
-845
-922
-1000
-1064
-1083
-1099
-1148
-1099
-906
-725
-580
-394
-268
-229
-119
9
2
-40
-34
-68
-97
-21
58
72
118
203
244
292
413
519
540
529
508
464
431
412
388
374
361
353
362
332
312
414
509
608
970
1204
693
-27
-116
98
67
-5
66
99
36
-47
-86
-28
47
34
8
20
16
48
95
33
23
218
356
288
238
246
153
7
-60
-73
-100
-150
-183
-186
-178
-159
-143
-170
-179
-96
-35
-105
-166
-87
4
-7
-9
99
278
475
621
727
986
1373
1414
828
3
-469
-492
-473
-559
-492
-428
-719
-962
-700
-376
-406
-525
-538
-566
-636
-686
-706
-694
-647
-553
-401
-223
-54
67
114
129
137
89
20
22
69
74
22
-32
-11
68
82
27
43
141
191
188
222
194
32
10
132
-103
-508
-331
145
131
-68
110
356
387
433
378
-56
-433
-275
-21
-120
-220
-82
-56
-199
-168
-30
-108
-244
-133
38
24
-24
59
209
329
377
406
505
587
488
304
261
234
37
-61
-22
-357
-841
-627
1
163
8
35
120
124
176
249
232
166
150
228
336
376
430
623
822
934
1195
1662
1894
1486
595
-184
-443
-389
-424
-525
-482
-390
-419
-494
-539
-595
-647
-677
-736
-812
-846
-843
-816
-758
-675
-562
-414
-273
-186
-141
-97
-69
-76
-89
-102
-121
-104
-72
-113
-180
-152
-91
-131
-201
-147
-6
61
24
-11
-21
-55
-59
-9
0
-6
28
-33
-101
106
357
360
421
565
312
-114
-94
169
226
197
230
224
189
192
196
176
156
139
119
126
179
209
178
181
277
370
391
382
365
299
187
112
89
35
-62
-126
-142
-154
-162
-159
-146
-109
-67
-71
-81
-45
-34
-99
-149
-121
-74
-79
-131
-145
-101
-92
-71
79
196
146
89
-11
-304
-486
-314
-143
-211
-266
-181
-134
-189
-231
-188
-147
-185
-177
-72
-101
-276
-242
24
191
235
334
436
426
342
249
143
38
-10
7
27
16
-22
-63
-63
-26
-10
-13
4
46
102
138
114
73
66
56
17
-9
22
72
33
-39
81
284
329
451
657
347
-324
-468
-153
-66
-192
-199
-97
-80
-173
-99
57
-269
-764
-528
85
174
-21
45
213
257
251
284
373
418
313
150
54
-26
-133
-176
-149
-204
-318
-310
-236
-262
-297
-235
-175
-163
-132
-84
-82
-139
-154
-79
-65
-75
105
276
250
304
236
-346
-740
-347
89
55
2
70
49
37
108
137
101
70
81
127
152
161
205
227
198
255
412
462
354
266
254
193
61
-22
-40
-101
-169
-127
-69
-120
-172
-140
-116
-120
-92
-87
-150
-154
-28
68
11
-94
-125
-120
-138
-149
-123
-78
-30
-13
-28
33
167
231
327
505
356
-190
-515
-408
-258
-205
-205
-290
-280
-103
-145
-464
-523
-214
-17
-69
-110
-38
58
120
234
376
221
-124
-14
456
578
390
321
293
182
125
114
60
45
99
92
4
1
129
204
150
111
138
121
50
5
-39
-87
-39
28
-56
-105
66
197
226
422
501
65
-400
-386
-211
-185
-182
-168
-206
-227
-203
-190
-189
-181
-174
-157
-117
-68
-21
45
131
191
210
219
220
175
84
-9
-90
-169
-219
-237
-259
-286
-294
-263
-192
-152
-205
-241
-122
32
28
-34
11
-3
-114
-1
94
-336
-679
-248
239
225
255
473
603
743
666
108
-288
-112
57
-23
-18
53
45
70
94
26
0
51
54
12
-3
49
183
263
197
188
322
393
368
353
267
117
20
-80
-139
-80
-223
-603
-607
-209
-80
-245
-244
-127
-104
-79
-29
-59
-110
-94
-66
-78
-147
-233
-188
-83
-158
-213
9
203
262
409
301
-278
-606
-342
-111
-193
-231
-136
-116
-196
-215
-94
-15
-106
-90
36
-217
-603
-322
321
508
425
505
561
475
407
355
275
202
129
68
51
24
-16
10
37
-30
-64
31
110
112
138
168
137
83
16
-49
-33
15
-16
-45
-4
-2
-12
119
315
370
201
-132
-392
-363
-210
-190
-225
-179
-133
-140
-132
-102
-83
-68
-65
-91
-115
-87
-24
5
17
80
149
193
278
303
152
27
58
44
-89
-191
-187
-117
-102
-141
-65
46
59
186
317
133
122
703
1201
1246
1322
1422
1128
586
165
-57
-131
-175
-286
-374
-374
-387
-431
-455
-511
-594
-600
-597
-671
-710
-662
-591
-506
-413
-284
-80
64
46
-27
-91
-113
-37
6
-90
-128
-35
-32
-145
-179
-126
-109
-134
-153
-145
-109
-97
-113
-98
-84
-113
-108
-67
-60
-43
-24
-93
-135
-83
-120
-209
-167
-124
-173
-177
-139
-68
67
146
255
470
324
-262
-546
-296
-77
-157
-241
-93
-43
-430
-692
-285
155
99
17
146
170
105
158
277
369
399
363
374
468
499
422
323
218
141
133
105
34
24
49
30
12
12
13
66
166
222
214
172
117
107
157
156
94
105
120
-50
-177
76
436
470
351
362
269
-75
-278
-110
113
135
100
138
157
124
123
134
124
174
222
145
108
256
396
419
481
630
727
716
690
685
613
472
386
354
297
265
289
281
276
367
457
457
458
504
576
674
669
552
569
545
-12
-1004
-2013
-2753
-2805
-2329
-2265
-2569
-2280
-1504
-878
-306
5
-437
-1016
-975
-703
-632
-543
-389
-327
-290
-206
-125
-86
-106
-110
-25
37
17
42
132
187
164
-14
-323
-495
-412
-261
-152
-47
31
53
78
130
145
109
101
153
203
235
271
305
366
452
459
397
401
440
392
334
388
498
510
399
381
565
697
716
836
853
527
282
364
364
158
34
-36
-210
-383
-446
-416
-301
-163
-109
-101
-47
23
80
156
238
295
319
324
369
411
278
76
84
190
125
-27
-83
-51
-23
-41
-40
-11
-57
-50
109
87
-174
-199
19
46
-70
-61
-34
-105
-125
-29
0
-66
28
270
354
296
212
-85
-463
-467
-231
-201
-290
-269
-224
-215
-195
-200
-213
-158
-96
-97
-88
-46
-14
66
175
191
240
415
426
268
274
160
-352
-568
-175
75
-49
-78
-28
-84
-88
-38
-70
-77
0
51
85
112
62
21
50
9
-65
-13
65
39
-37
-45
107
276
274
307
405
129
-368
-427
-192
-174
-193
-96
-160
-257
-152
-233
-585
-575
-179
-18
-96
-67
-25
-56
35
216
284
270
295
302
228
132
30
-111
-230
-254
-267
-327
-319
-228
-216
-275
-230
-121
-99
-90
20
86
-15
-107
-90
-112
-126
-40
-55
-100
43
-22
-426
-408
212
681
647
290
-96
-158
39
107
58
93
143
134
113
97
103
127
132
140
171
183
170
183
246
330
386
385
345
292
242
189
112
30
-29
-59
-44
-43
-132
-188
-134
-186
-351
-308
-79
13
-43
-84
-104
-113
-108
-118
-111
-67
-37
-1
47
30
61
275
461
544
747
802
291
-325
-443
-321
-324
-310
-232
-268
-349
-309
-240
-256
-299
-302
-239
-196
-252
-193
-24
-219
-572
-316
256
373
265
306
273
168
190
205
139
118
114
84
78
68
46
69
113
166
261
303
284
410
628
652
568
680
925
994
724
261
-47
-132
-289
-538
-588
-457
-380
-367
-349
-375
-444
-491
-543
-624
-665
-652
-644
-618
-541
-455
-357
-201
-41
18
1
38
119
80
-70
-143
-130
-134
-105
-28
-33
-123
-166
-137
-103
-107
-124
-81
-15
-51
-71
55
103
60
199
138
-470
-759
-181
340
263
183
302
265
183
357
552
552
722
1022
708
-59
-253
78
131
-32
12
95
24
-25
32
73
73
75
67
79
120
115
119
222
319
360
420
416
384
451
254
-342
-569
-199
-4
-120
-105
-111
-279
-260
-99
-138
-229
-124
17
40
32
44
38
8
19
159
392
531
557
733
1150
1438
1167
417
-261
-503
-474
-472
-543
-589
-541
-468
-509
-603
-608
-659
-830
-851
-684
-619
-670
-655
-598
-531
-393
-226
-90
36
144
202
206
159
105
110
133
100
67
102
125
71
36
109
194
154
54
79
226
302
223
138
168
193
73
-65
-64
-8
19
42
19
-2
125
242
175
121
64
-237
-488
-342
-122
-119
-156
-155
-185
-183
-137
-142
-199
-201
-106
-36
-94
-134
5
165
177
192
337
445
386
295
284
259
137
3
-39
-10
-7
-34
-5
75
129
170
211
212
213
262
273
207
165
176
162
117
87
66
59
74
54
22
98
214
275
491
789
598
-49
-387
-254
-159
-222
-221
-189
-231
-254
-192
-161
-221
-259
-211
-166
-170
-160
-102
-17
66
112
119
129
146
130
64
-24
-98
-157
-212
-224
-205
-239
-295
-277
-234
-230
-238
-226
-153
-65
-107
-186
-122
-85
-202
-231
-132
-127
-151
-110
-116
-76
107
207
209
276
195
-95
-190
-26
82
92
91
59
55
107
124
93
76
65
38
43
108
162
154
182
283
344
368
423
430
375
331
238
95
28
4
-34
-32
-66
-164
-153
-96
-128
-60
-21
-385
-689
-375
17
-3
-85
-66
-106
-139
-115
-75
-15
-34
-94
44
237
239
278
331
-25
-494
-472
-252
-273
-286
-143
-107
-200
-227
-176
-133
-107
-72
-35
-25
-7
53
127
240
390
404
345
430
343
-145
-380
-29
233
101
-14
13
13
-13
-20
-10
9
-8
-12
71
149
164
181
156
47
-2
67
100
42
9
66
111
81
132
297
376
435
557
356
-186
-412
-216
-122
-200
-206
-179
-182
-156
-123
-128
-143
-151
-163
-160
-130
-83
-23
33
90
192
290
277
195
131
41
-94
-194
-236
-260
-291
-311
-288
-264
-281
-260
-183
-167
-201
-151
-34
12
-49
-104
-81
-63
-76
-45
-16
-12
79
180
188
259
390
465
644
768
384
-158
-201
7
0
-60
-4
7
-48
-27
12
-49
-59
87
136
-1
-37
70
91
88
198
270
232
214
201
140
125
122
-2
-157
-197
-181
-196
-228
-243
-227
-197
-201
-232
-232
-180
-110
-74
-80
-76
-58
-71
-80
-78
-118
-125
-81
-116
-106
76
135
104
352
438
-110
-556
-378
-180
-242
-226
-149
-161
-156
-144
-175
-136
-39
4
33
96
156
229
322
380
410
456
481
458
426
382
291
188
105
28
-12
5
11
-22
-15
33
26
-17
4
45
39
78
150
84
-64
-96
-48
-63
-103
-82
-50
-67
-51
61
171
247
314
172
-259
-545
-407
-186
-186
-272
-274
-227
-194
-167
-158
-169
-111
-24
-86
-193
-129
-37
-50
-1
126
181
207
244
210
138
74
-29
-137
-193
-229
-233
-201
-222
-286
-258
-91
14
-120
-184
78
70
-497
-687
-134
230
115
91
162
97
107
205
173
195
396
483
490
613
453
-85
-306
-106
-32
-67
3
1
-53
21
87
56
58
93
79
58
87
138
178
217
244
243
338
479
275
-174
-215
82
75
-152
-175
-120
-184
-216
-164
-166
-177
-89
-62
-153
-80
116
46
-160
-96
26
-130
-284
-170
-39
-56
-90
-98
-39
134
219
185
250
182
-264
-546
-279
0
-107
-183
39
33
-433
-609
-145
239
190
143
233
256
239
283
359
425
467
489
480
427
375
333
232
115
85
65
-17
-35
32
24
-44
-40
-33
-84
-75
14
59
52
60
57
-8
-88
-110
-110
-162
-194
-135
-114
-179
-135
5
22
-19
-24
-211
-527
-563
-339
-238
-291
-286
-240
-269
-315
-293
-267
-292
-301
-239
-141
-95
-139
-155
-45
94
158
179
187
181
152
53
-96
-169
-145
-136
-145
-91
-10
18
31
73
100
91
83
123
217
281
225
116
69
51
27
33
32
28
86
72
-44
32
245
307
474
781
556
-145
-427
-215
-123
-211
-207
-142
-135
-151
-147
-139
-126
-82
-39
-42
-41
24
101
139
178
250
318
360
383
360
279
224
215
153
47
39
105
101
42
19
30
