# session 61
-5
-34
-14
9
-8
-32
-30
-25
-41
-63
-73
-84
-92
-76
-49
-38
-38
-44
-53
-42
-16
-12
-26
-42
-52
-33
2
-4
-36
-36
-48
-80
-53
-18
-74
-120
-47
56
107
111
70
17
19
36
7
-14
4
12
22
53
51
32
52
45
34
162
324
389
504
533
153
-290
-291
-110
-118
-166
-136
-132
-153
-147
-138
-132
-128
-138
-145
-135
-127
-127
-121
-100
-64
-24
11
47
96
155
192
191
183
172
126
48
-27
-84
-123
-157
-196
-212
-204
-222
-260
-259
-220
-189
-167
-139
-114
-96
-84
-78
-72
-59
-31
2
47
146
305
480
663
827
929
1091
1380
1470
1068
434
-12
-194
-243
-254
-271
-299
-315
-318
-327
-346
-373
-403
-430
-466
-514
-554
-573
-589
-617
-626
-576
-482
-375
-241
-80
64
164
233
253
217
169
129
88
74
88
77
51
57
68
61
72
100
112
118
133
139
137
148
161
159
154
159
160
160
170
174
159
155
168
167
147
132
130
133
129
122
119
109
94
118
182
212
170
99
39
-11
-58
-103
-137
-155
-171
-186
-186
-202
-240
-242
-238
-276
-236
-84
41
226
489
363
-237
-608
-480
-337
-383
-411
-382
-374
-383
-382
-356
-326
-337
-369
-359
-306
-268
-281
-303
-253
-145
-76
-53
11
148
283
338
317
302
321
288
181
107
97
74
40
32
8
-12
31
56
21
59
141
144
185
345
511
714
982
1198
1426
1646
1448
786
213
-8
-81
-111
-116
-179
-250
-229
-191
-220
-260
-271
-317
-402
-453
-465
-511
-587
-620
-589
-521
-415
-275
-124
25
147
213
226
203
148
74
13
-21
-46
-83
-113
-111
-91
-90
-104
-109
-98
-83
-81
-83
-80
-80
-80
-69
-55
-41
-26
-19
-29
-46
-51
-37
-27
-33
-24
5
33
64
96
98
83
76
60
43
58
70
35
0
7
21
23
45
69
36
-23
-15
49
77
61
46
20
-18
-35
-39
-53
-60
-57
-54
-41
-41
-62
-49
-36
-77
-31
133
250
379
531
327
-188
-396
-227
-137
-182
-179
-158
-148
-123
-130
-154
-135
-119
-130
-104
-63
-73
-90
-50
10
42
71
134
202
249
293
321
289
230
193
149
75
-3
-81
-149
-177
-171
-168
-172
-168
-157
-141
-125
-117
-117
-117
-113
-103
-99
-105
-108
-97
-89
-82
-3
162
324
484
692
841
931
1189
1498
1379
787
204
-87
-177
-193
-201
-225
-240
-233
-238
-260
-281
-310
-349
-378
-404
-435
-456
-468
-497
-527
-515
-454
-368
-267
-156
-46
52
127
161
152
120
78
38
16
0
-24
-39
-31
-25
-35
-34
-16
-9
-16
-15
-9
-12
-19
-25
-29
-30
-32
-39
-43
-38
-32
-29
-28
-24
-16
-17
-18
-2
13
7
-3
-6
-12
-13
32
114
144
98
65
65
45
23
22
9
-7
-3
-2
-2
-3
-26
-28
-13
-43
-10
169
302
379
517
396
-112
-401
-226
-90
-162
-173
-111
-108
-138
-162
-168
-141
-115
-122
-142
-150
-115
-62
-60
-70
-12
80
150
218
284
328
369
400
367
276
199
141
51
-53
-103
-111
-124
-136
-138
-137
-113
-70
-52
-51
-5
109
247
423
706
1002
1193
1417
1700
1670
1177
567
129
-116
-217
-273
-355
-419
-447
-493
-553
-592
-631
-689
-739
-779
-843
-916
-960
-988
-1004
-964
-854
-721
-564
-371
-192
-65
23
71
65
41
36
34
25
33
56
69
78
92
96
101
112
106
92
104
121
96
71
94
111
86
79
102
90
58
70
95
88
74
70
71
86
116
136
130
116
116
119
112
104
102
97
92
97
107
103
88
80
73
51
37
70
129
157
152
149
140
111
87
71
56
53
46
25
32
53
45
42
43
11
51
194
322
504
703
501
-65
-349
-226
-134
-176
-191
-189
-199
-196
-200
-216
-204
-183
-184
-194
-198
-203
-194
-157
-115
-82
-50
-14
30
77
106
111
100
72
25
-40
-120
-201
-261
-296
-312
-312
-292
-262
-244
-239
-220
-181
-152
-132
-98
-62
-41
-22
1
19
46
93
168
290
455
676
920
1029
1020
1174
1397
1206
601
86
-150
-255
-289
-270
-273
-303
-302
-279
-296
-339
-340
-329
-381
-458
-491
-519
-571
-599
-575
-530
-483
-396
-246
-85
34
152
269
298
249
226
213
150
88
63
44
36
34
13
-2
8
11
18
45
52
32
25
32
40
56
65
61
54
47
58
87
81
44
49
71
48
21
27
12
-25
-27
-10
-23
-44
-22
39
84
97
105
92
49
36
43
2
-45
-33
-15
-27
-44
-68
-76
-69
-100
-94
26
138
236
376
240
-265
-553
-390
-239
-279
-287
-236
-202
-174
-178
-208
-198
-158
-136
-122
-97
-61
-25
-4
22
82
148
190
237
304
361
391
397
373
313
244
180
95
-11
-79
-97
-106
-119
-121
-116
-113
-106
-81
-50
-26
47
180
314
523
832
1050
1195
1396
1327
752
163
-45
-105
-196
-235
-258
-317
-341
-338
-373
-422
-449
-474
-510
-550
-595
-637
-669
-689
-674
-604
-503
-388
-235
-59
73
139
170
173
144
95
49
27
29
24
4
-8
1
15
13
11
38
54
25
16
45
41
27
67
101
78
46
35
37
51
60
41
20
32
53
48
39
33
-7
-60
-65
-50
-80
-131
-145
-136
-134
-133
-120
-108
-111
-116
-90
-46
-25
-9
16
11
11
58
61
49
187
375
478
610
602
174
-244
-187
-14
-57
-83
-15
-17
-54
-68
-87
-72
-31
-42
-61
-32
-20
-30
1
43
49
77
154
219
270
342
393
393
366
317
241
171
120
56
-19
-65
-69
-73
-95
-111
-123
-132
-114
-97
-116
-118
-84
-80
-103
-92
-70
-86
-104
-90
-90
-113
-111
-89
-91
-102
-106
-103
-92
-93
-124
-130
-67
5
29
25
7
-27
-45
-45
-63
-89
-95
-93
-99
-107
-107
-83
-70
-104
-66
115
272
416
665
642
99
-342
-261
-112
-167
-187
-135
-145
-165
-148
-147
-154
-141
-132
-134
-125
-109
-92
-71
-43
-2
63
138
209
283
346
382
393
372
313
235
152
64
-3
-36
-67
-106
-110
-82
-78
-94
-75
-39
-49
-80
-64
-19
-9
-13
48
156
270
462
742
966
1138
1336
1328
896
312
-77
-275
-372
-395
-405
-431
-435
-426
-434
-450
-464
-482
-503
-536
-585
-635
-678
-717
-741
-735
-690
-592
-435
-251
-70
91
204
249
231
181
134
97
60
35
33
31
27
39
51
49
52
63
61
60
74
79
62
57
73
84
81
79
76
73
82
91
90
104
135
137
117
118
131
127
110
95
77
52
35
35
28
23
65
128
143
113
77
43
8
-18
-41
-61
-68
-68
-67
-60
-58
-61
-35
-19
-57
-20
135
249
354
486
309
-184
-400
-218
-103
-151
-147
-114
-110
-91
-95
-133
-113
-54
-47
-69
-61
-53
-54
-25
16
41
88
161
212
255
321
373
366
319
261
193
114
30
-40
-78
-97
-123
-146
-145
-135
-134
-140
-142
-137
-125
-117
-114
-98
-56
1
94
286
543
747
883
952
834
580
404
213
-149
-422
-405
-348
-394
-406
-362
-344
-354
-370
-360
-313
-295
-334
-363
-352
-322
-276
-220
-188
-188
-174
-124
-72
-41
-14
10
25
29
10
-16
-14
-6
-30
-39
-4
7
-24
-21
9
-7
-35
-22
-12
-33
-40
-27
-11
4
5
4
28
56
61
64
73
72
68
78
92
96
90
81
75
72
70
70
66
69
79
57
16
39
128
182
162
118
84
73
70
33
-16
-21
-16
-30
-24
-18
-49
-61
-53
-62
-2
118
201
359
525
286
-214
-355
-172
-116
-166
-139
-119
-143
-128
-103
-120
-134
-120
-110
-113
-108
-91
-69
-46
-18
23
74
128
186
240
280
306
307
270
220
170
106
50
6
-59
-119
-124
-110
-133
-161
-144
-114
-120
-140
-124
-78
-57
-81
-105
-88
-55
-43
-28
15
57
71
61
35
12
3
-6
-18
-27
-32
-31
-28
-23
-21
-36
-38
-14
-30
-57
18
126
197
337
359
-11
-404
-365
-163
-137
-153
-108
-102
-122
-113
-101
-98
-81
-51
-27
-16
-5
22
70
109
124
151
220
303
371
422
443
449
449
380
231
115
69
-13
-136
-181
-152
-153
-181
-186
-179
-168
-148
-151
-169
-153
-94
-5
110
237
407
644
841
989
1242
1421
1092
377
-147
-314
-367
-404
-413
-439
-468
-452
-433
-456
-503
-544
-566
-576
-616
-688
-741
-765
-785
-783
-730
-640
-522
-357
-144
62
198
266
298
281
219
175
168
152
123
101
88
92
107
107
102
117
133
119
94
105
141
141
103
91
108
112
105
102
95
85
85
75
51
47
56
45
32
36
37
40
61
74
65
74
101
89
44
48
117
169
167
141
108
77
57
40
12
-10
-18
-10
-3
-21
-39
-12
-19
-93
-42
159
284
383
515
317
-204
-437
-285
-201
-238
-222
-209
-223
-202
-192
-207
-192
-175
-177
-159
-133
-122
-98
-59
-27
11
67
121
173
232
271
282
294
294
239
143
57
-8
-70
-122
-155
-177
-191
-192
-187
-187
-174
-149
-137
-129
-100
-70
-59
-42
9
109
287
529
747
890
945
836
609
560
693
544
41
-311
-338
-330
-366
-346
-320
-333
-334
-325
-337
-349
-349
-348
-354
-359
-345
-323
-314
-302
-283
-285
-280
-239
-206
-188
-144
-100
-87
-70
-39
-26
-23
-12
4
23
34
37
68
141
244
398
542
624
816
1188
1449
1427
1190
720
155
-150
-201
-262
-317
-289
-280
-314
-329
-347
-375
-387
-427
-507
-553
-569
-622
-665
-633
-567
-479
-328
-147
-10
88
184
275
327
314
256
198
143
80
42
43
40
25
21
14
4
7
4
-17
-26
-26
-43
-41
-4
-9
-61
-68
-28
-15
-14
-3
-23
-57
-41
-4
6
9
19
11
5
25
40
38
42
45
34
41
57
33
-5
8
44
31
-25
-47
-1
52
51
15
-2
19
51
64
49
18
15
57
74
39
10
-3
-15
2
38
37
-7
-49
-63
-32
41
105
104
58
29
40
42
6
-19
-14
-29
-47
-22
-11
-19
1
-15
-31
111
297
398
551
553
95
-360
-321
-146
-167
-189
-141
-139
-172
-226
-284
-270
-224
-222
-226
-211
-203
-168
-102
-64
-39
22
89
131
183
252
291
288
267
234
189
142
90
35
-9
-46
-78
-89
-88
-89
-76
-28
41
117
256
538
863
1067
1289
1681
1870
1419
554
-157
-466
-493
-438
-406
-400
-413
-455
-504
-531
-553
-590
-629
-663
-701
-734
-751
-755
-732
-669
-578
-452
-286
-130
-20
75
154
167
132
110
98
65
42
54
74
78
69
54
59
83
75
40
40
56
35
7
20
32
6
-17
-12
-11
-25
-33
-35
-36
-37
-41
-39
-21
-2
2
1
10
20
21
18
23
32
33
31
24
19
35
61
62
49
45
35
20
15
12
11
26
60
97
118
103
55
11
-5
-9
-9
-1
-10
-34
-35
-15
-1
-17
-50
1
151
272
375
454
240
-209
-374
-188
-64
-87
-84
-68
-80
-71
-52
-53
-59
-55
-47
-37
-29
-15
2
21
47
82
117
158
208
255
291
314
315
295
261
219
170
104
27
-28
-56
-78
-93
-97
-100
-101
-95
-86
-79
-82
-89
-86
-82
-69
-37
-15
8
97
223
358
595
857
949
1043
1339
1446
995
328
-116
-334
-432
-435
-423
-453
-485
-488
-492
-514
-533
-548
-578
-617
-650
-687
-718
-726
-725
-716
-673
-587
-470
-336
-185
-28
98
156
153
120
87
71
57
33
23
26
17
6
18
43
50
32
21
25
16
3
20
41
26
4
8
16
12
10
14
16
33
63
60
37
50
64
53
72
92
57
53
146
224
224
220
221
174
118
116
141
123
65
25
42
79
66
27
35
31
-20
58
264
404
538
631
318
-221
-356
-151
-83
-127
-109
-101
-122
-117
-112
-103
-67
-52
-74
-85
-73
-61
-48
-18
26
79
135
190
247
318
377
397
397
384
308
192
118
68
-17
-88
-102
-112
-154
-183
-181
-176
-180
-182
-173
-164
-158
-146
-132
-121
-103
-88
-107
-126
-77
11
54
45
31
17
-7
-26
-40
-66
-91
-91
-90
-98
-92
-87
-76
-42
-52
-91
-9
159
295
415
355
-47
-399
-360
-208
-187
-184
-178
-208
-189
-137
-152
-191
-166
-117
-112
-119
-90
-49
-16
22
69
120
183
252
319
392
440
435
401
359
281
169
72
7
-46
-92
-124
-146
-156
-148
-138
-147
-155
-141
-130
-129
-115
-98
-104
-118
-106
-65
-7
32
31
15
0
-29
-51
-47
-56
-89
-103
-93
-92
-96
-95
-91
-53
-6
-25
-26
86
222
443
794
807
247
-238
-233
-134
-170
-169
-140
-159
-157
-134
-139
-139
-124
-127
-133
-121
-101
-78
-53
-25
19
86
155
212
265
318
356
368
349
296
214
124
47
-10
-46
-60
-65
-76
-85
-78
-72
-85
-89
-56
-19
19
105
208
314
534
803
940
1065
1229
1060
493
-2
-219
-317
-361
-367
-391
-408
-407
-433
-464
-458
-452
-476
-510
-541
-579
-619
-639
-632
-602
-547
-453
-323
-167
-7
131
225
263
243
191
140
101
70
55
45
18
0
22
43
33
33
60
70
42
11
14
47
70
55
30
24
16
-5
6
48
58
30
21
26
6
-4
37
70
52
46
69
64
58
86
80
42
55
73
19
-16
40
122
169
165
106
59
58
47
10
-3
-4
-18
-19
0
5
-4
-2
9
10
