# session 4
-476
1018
2673
4096
4927
5276
5223
4663
3859
3256
2752
1980
1058
410
96
-335
-1293
-2410
-2865
-2493
-1708
-740
97
296
48
127
667
1215
1612
1819
1608
1062
551
248
331
991
1855
2336
2474
2625
2767
2660
2158
1342
698
688
1104
1475
1777
2223
2890
3705
4344
4206
2894
789
-1059
-1880
-1745
-1090
-348
-1
-161
-351
-263
-162
-102
293
965
1610
2464
3196
2464
364
-1213
-1616
-1773
-1932
-1871
-2035
-2613
-3032
-3101
-3218
-3395
-3231
-2651
-1858
-882
260
1321
2073
2570
2997
3420
3774
4000
4057
3923
3629
3216
2688
2118
1626
1213
804
442
237
181
118
-51
-133
119
457
349
-236
-817
-1087
-1105
-1029
-965
-972
-1093
-1365
-1781
-2273
-2739
-3034
-3061
-2882
-2642
-2470
-2521
-2910
-3489
-3955
-4144
-3991
-3530
-3091
-2923
-2698
-2103
-1420
-975
-713
-544
-405
-180
39
124
320
819
1316
1659
2147
2660
2614
2043
1568
1260
667
-161
-723
-958
-1209
-1484
-1618
-1782
-1940
-1540
-601
27
-11
-193
-44
512
1121
1083
241
-668
-1036
-831
-177
479
487
-25
-245
131
813
1689
2681
3300
3168
2527
1705
743
-91
-358
-437
-1142
-2112
-2236
-1559
-1044
-1107
-1579
-2132
-2360
-2129
-1557
-622
556
1525
2033
2276
2523
2847
3181
3472
3743
4042
4375
4687
4852
4754
4409
3956
3491
3022
2595
2253
1898
1516
1341
1430
1572
1728
1819
1443
606
-92
-414
-647
-901
-1086
-1207
-1277
-1329
-1512
-1868
-2286
-2713
-3070
-3156
-2990
-2810
-2693
-2589
-2525
-2506
-2511
-2616
-2868
-3146
-3258
-3112
-2741
-2270
-1868
-1576
-1272
-978
-884
-1030
-1334
-1666
-1726
-1433
-1149
-978
-598
2
575
1140
1592
1677
1714
1902
1261
-752
-2637
-2900
-2119
-1482
-1134
-758
-294
114
271
186
132
359
977
1915
2925
3800
4295
4041
3114
2152
1518
1077
794
735
777
835
978
1120
1051
733
247
-337
-945
-1532
-1880
-1586
-849
-551
-1029
-1692
-1933
-1741
-1685
-2222
-2952
-3407
-3777
-3855
-2909
-1191
275
1282
2295
3342
4064
4426
4715
5030
5234
5279
5166
4822
4272
3688
3211
2834
2450
1979
1455
1014
752
611
642
1146
2181
3285
4073
4538
4612
4070
2943
1601
400
-658
-1748
-2715
-3166
-3099
-2942
-2995
-3239
-3509
-3610
-3455
-3191
-3049
-3032
-2949
-2774
-2653
-2630
-2652
-2705
-2743
-2668
-2490
-2345
-2289
-2242
-2171
-2074
-1845
-1441
-1039
-836
-932
-1215
-1214
-625
117
299
-423
-2011
-3857
-4850
-4603
-3936
-3416
-2767
-2007
-1547
-1393
-1432
-1737
-2073
-2044
-1606
-796
409
1616
2286
2470
2384
1920
1349
1187
1224
1100
1133
1540
2024
2430
2760
2774
2235
1324
522
149
134
199
148
-5
-141
-280
-517
-773
-940
-1091
-1199
-1112
-941
-828
-547
68
782
1369
1825
2197
2557
2955
3306
3540
3750
3978
4101
4027
3780
3351
2768
2249
1971
1823
1644
1486
1448
1474
1436
1293
1138
1099
1135
987
534
27
-316
-556
-650
-510
-479
-899
-1453
-1665
-1539
-1265
-911
-604
-460
-395
-363
-456
-657
-860
-1068
-1244
-1235
-1052
-875
-765
-686
-635
-523
-198
267
582
619
664
1134
1999
2793
3281
3621
4040
4650
5157
5015
4287
3543
2831
1858
875
408
468
673
881
1205
1609
1993
2377
2575
2230
1557
1257
1332
1043
254
-310
-161
468
1016
1088
809
445
-314
-1637
-2607
-2470
-1870
-1507
-1288
-1644
-3288
-5431
-6773
-7648
-8908
-10193
-11287
-12896
-14521
-14559
-13184
-11834
-10544
-8732
-6793
-5330
-4680
-4975
-5502
-5075
-3473
-1747
-970
-973
-937
-883
-1236
-1537
-1012
313
1743
2636
2876
2580
1586
251
-106
1093
3210
5919
8628
9800
9337
8788
8148
6168
3375
1268
-163
-1488
-2005
-763
1866
4861
7508
9087
9337
9433
10798
13594
17133
19562
17925
11655
3925
-2438
-7099
-10418
-12955
-15469
-17725
-18819
-18429
-16771
-14412
-12146
-10374
-9156
-8461
-7981
-7535
-7268
-7053
-6732
-6486
-6355
-6381
-6596
-6592
-6662
-7403
-7487
-5675
-2188
4751
15391
22964
23261
21705
21470
18620
12923
8514
6102
4668
4893
7209
11174
15362
17364
16891
16099
15828
15392
14799
14380
14002
13518
13069
12789
12387
11849
11703
11428
10651
10672
10637
9266
9648
10486
7316
7860
12746
-1276
-35807
-56440
-53030
-48388
-49453
-48660
-46663
-45035
-44564
-44993
-36694
-15157
8064
24305
34225
37528
35838
34209
34104
33720
32040
31074
31877
30003
27407
31024
29309
12908
4940
17446
26187
22487
21640
24497
24908
23462
20912
22920
24829
4257
-33452
-53278
-49317
-44102
-46183
-47684
-39018
-23863
-21871
-35574
-43323
-39653
-37677
-38547
-37002
-35609
-35423
-34200
-33230
-32935
-31591
-30933
-31396
-28645
-23984
-24293
-28019
-28085
-25164
-23571
-23270
-23895
-24864
-23406
-22088
-23928
-22084
-18530
-24461
-22347
10334
45033
47940
38215
38993
40588
37442
36561
36671
35003
34017
33592
32423
31467
30840
29927
29070
28380
27583
26789
26088
25377
24645
23921
23238
22616
22029
21492
20939
20302
19755
19243
18388
17180
15214
11653
7704
5482
4652
5135
8743
13772
15792
14937
14312
14193
13671
13177
12893
12482
12063
11725
11341
10976
10639
10271
9955
9634
9244
8984
8694
8173
8012
7843
5686
1383
-2880
-5932
-7255
-6095
-4002
-2985
-1161
3306
7016
6743
5595
6577
5328
-2302
-12135
-18143
-18850
-17633
-23145
-38646
-52323
-54826
-53110
-53591
-53176
-51135
-50109
-49448
-48158
-47105
-46260
-45180
-44228
-43437
-42532
-41667
-40892
-40019
-39215
-38545
-37625
-36710
-36133
-33890
-27089
-16446
-6007
1365
5898
9457
13556
18021
21388
22739
22561
21381
18714
14941
11598
8147
4247
2387
576
-4155
-1617
16151
33626
36016
32054
31634
31626
30018
28565
26595
23767
20954
18322
16766
17129
17893
17393
17017
18772
21026
21088
19844
19214
18808
18057
17435
16955
16356
15801
15335
14837
14353
13916
13473
13042
12652
12275
11902
11554
11234
10921
10623
10360
10075
9774
9557
9362
9131
8996
8817
8513
8489
8433
7970
8047
8197
7306
7587
8504
6437
6545
10635
3483
-16378
-25555
-17525
-9640
-11807
-23085
-35436
-36527
-31644
-33874
-32849
-21149
-17946
-23192
-11639
10207
15001
6009
-671
-5401
-8871
-7924
-6539
-6996
-7144
-9017
-12528
-13349
-12432
-11392
-9284
-8007
-3056
10356
15423
-323
-16219
-16438
-14526
-18414
-17156
-6194
4536
6201
1928
-1085
-2606
-3852
-1692
4271
9211
6972
-3541
-9812
-3883
-5856
-26687
-35807
-16605
1622
2138
2104
8209
11624
14344
20379
20015
7616
-3319
-2534
-203
-2700
-607
2156
-11171
-32360
-38852
-33853
-32546
-33257
-31150
-29752
-28431
-23843
-19151
-15918
-11045
-7381
-5586
7392
34255
53571
54315
50404
50532
50129
48380
47357
46573
45953
43595
36601
27415
20134
14453
8497
1635
-5429
-10689
-13681
-15817
-16731
-16106
-16550
-19183
-21937
-23628
-23844
-22460
-21674
-21674
-18205
-11095
-5768
-3475
-1231
940
1793
2533
4112
5924
7436
8054
7113
4808
1855
-937
-2961
-4736
-6701
-7082
-4050
898
4827
6939
8044
8766
9518
10182
9788
7805
4973
2550
1321
832
-144
-1594
-1889
-383
1302
1826
2117
3390
5124
6316
6832
6717
5919
4838
3938
3250
2780
2595
2592
2725
2913
2767
2070
1065
-134
-1638
-3265
-4604
-5456
-5861
-5893
-5691
-5588
-5717
-5654
-5097
-4357
-3618
-2714
-1857
-1346
-792
455
2555
5124
7637
9962
12168
13845
14664
15170
15947
16784
17113
16445
14639
12076
9067
5548
1638
-2374
-6446
-10331
-13148
-14207
-13941
-13377
-12960
-12538
-12062
-11619
-11191
-10750
-10326
-9917
-9517
-9140
-8781
-8428
-8093
-7781
-7483
-7197
-6925
-6663
-6412
-6171
-5940
-5721
-5514
-5316
-5124
-4947
-4788
-4641
-4498
-4360
-4232
-4108
-3991
-3884
-3785
-3692
-3610
-3533
-3454
-3384
-3324
-3263
-3210
-3166
-3112
-3071
-3049
-2973
-2857
-2839
-2934
-3008
-2993
-2971
-3018
-3022
-2941
-3002
-3068
-2915
-3015
-3224
-2897
-3024
-3506
-2532
-2369
-4082
-2588
-1260
-6282
-2361
23189
48558
51429
42388
41430
47219
37275
1648
-33588
-42619
-35338
-33507
-39251
-34569
-7266
24845
39181
40157
36725
27329
19011
20471
26707
31931
35827
36126
31987
26730
22014
17213
12602
8599
4989
2235
468
-1755
-4238
-5334
-7996
-15340
-20499
-16652
-11223
-11852
-12262
-9560
-12514
-20148
-21657
-16743
-8000
5502
13238
7435
180
-2839
-10209
-20232
-24677
-22787
-18245
-16786
-18481
-16989
-14223
-13414
-8608
-1865
-2864
-5705
2193
14806
18712
17616
19976
18462
7015
-3445
-4439
-1448
-1703
-6903
-12330
-11367
-6424
-4913
-6460
-7150
-7372
-7867
-7705
-6901
-5857
-4864
-4298
-3550
-1962
1
2021
3724
3923
2819
2458
3575
4800
5074
4731
4569
4830
5075
5001
4827
4713
4576
4356
4003
3616
3292
2674
1744
1126
595
-112
42
388
-1008
-2276
-1884
-4062
-9982
-13218
-10603
-5763
-1709
855
1918
2437
2667
1799
173
-1209
-2159
-2670
-2604
-2073
-1355
-682
164
1536
2927
3561
3607
3548
3315
2925
2857
3294
4061
5542
8455
12507
16122
17702
17181
15317
11026
3305
-3950
-5924
-4457
-4001
-4135
-2658
-603
-26
-1069
-2832
-4938
-7479
-10029
-11933
-13305
-14239
-14033
-12506
-10484
-8428
-6138
-3752
-1774
-284
1008
2084
2781
3233
3456
3239
2740
2263
1631
682
-238
-846
-1152
-1010
-389
164
264
312
612
757
562
521
891
1334
1651
2021
2572
3237
3910
4477
4962
5608
6560
7638
8528
8881
8378
7154
5841
4874
4234
3939
4050
4223
4178
4184
4129
3278
1774
713
367
75
-398
-1029
-2348
-4638
-6897
-7805
-7370
-6692
-6484
-6592
-6569
-6238
-5794
-5424
-4995
-4299
-3246
-1852
-448
535
1265
2230
3332
4035
4058
3420
2342
1222
261
-642
-1328
-1621
-2277
-4073
-6128
-7023
-6854
-6433
-5805
-4830
-3843
-3139
-2780
-2757
-2920
-3230
-3762
-3993
-3173
-1637
-395
217
286
-290
-1266
-1936
-1883
-1225
-464
-202
-346
-215
78
-246
-982
-1164
-474
788
2047
2623
2808
3626
4947
5731
5636
4883
4081
4212
5181
6245
7903
9882
9682
6942
4796
4568
4426
3368
1830
-34
-1745
-2475
-2547
-2740
-2754
-2166
-1401
-661
400
1613
2486
3098
3680
4089
4308
4501
4428
3786
2889
2251
2033
2190
2559
2909
3092
2876
2084
1093
369
-136
-450
-563
-959
-1796
-2423
-2792
-3653
-4802
-5038
-4062
-2830
-2055
-1663
-1521
-1630
-1823
-1958
-2135
-2438
-2781
-3050
-3216
-3292
-3311
-3376
-3608
-3993
-4354
-4533
-4589
-4768
-5169
-5645
-6156
-6672
-6873
-6893
-7500
-8453
-8462
-7423
-6373
-5495
-4415
-3396
-2719
-2193
-1773
-1596
-1525
-1274
-732
4
729
1315
1842
2329
2424
1739
488
-470
-330
992
2939
4896
6485
7420
7425
6449
5049
4357
4940
6005
6709
7279
7903
8173
8129
8300
8798
9171
9022
8646
8328
7140
4465
1816
633
336
301
795
1495
1802
2037
2675
3402
3627
3200
2493
2085
2181
2233
1606
626
105
38
-100
-322
-316
-34
255
191
-239
-624
-795
-934
-1030
-1068
-1389
-2081
-2652
-2824
-2909
-3307
-4019
-4610
-4852
-5146
-5571
-5778
-6630
-9355
-12741
-14387
-14040
-12918
-11411
-9476
-7575
-6091
-4901
-3886
-3114
-2448
-1650
-737
304
1516
2437
2640
2600
2854
3071
2886
2508
2078
1495
901
591
626
821
925
767
355
-135
-540
-815
-865
-591
-129
537
1852
3757
5374
6339
6780
6020
4014
3079
4711
6683
6454
4698
3410
3304
3689
3381
2247
1484
1515
1619
1789
2171
1967
1251
1155
1221
235
-949
-905
-53
637
1118
1724
2577
3187
2713
1304
-154
-1573
-2992
-3654
-3456
-3404
-3897
-4349
-4325
-3979
-3616
-3252
-2784
-2355
-2059
-1923
-2075
-1699
500
3466
4550
3837
3942
5029
3584
-1899
-6935
-6686
-2711
399
1206
694
-461
-1783
-2728
-3115
-3182
-3438
-4143
-4847
-4963
-4496
-3662
-2510
-1386
-761
-403
159
672
688
315
-91
-255
-82
184
241
149
126
223
393
553
544
335
142
78
-39
-104
621
2401
4121
4892
5837
8403
11526
12369
9670
5376
2670
2580
3500
3901
3692
3120
2237
1320
784
785
1170
1607
1666
1062
25
-966
-1854
-2727
-3331
-3644
-3976
-4259
-4416
-4786
-5199
-5078
-4697
-4660
-4854
-5149
-5688
-6104
-5982
-5525
-4799
-3716
-2654
-1700
-800
-620
-484
1491
3755
3664
3891
6922
8211
3978
-2199
-5948
-6923
-5975
-3668
-977
1161
2293
2496
2272
1926
1496
1201
1002
447
-359
-764
-687
-464
-117
311
537
503
350
58
-383
-863
-1441
-2171
-2704
-2753
-2584
-2520
-2532
-2464
-2174
-1707
-1399
-1393
-1261
-212
2166
5028
7121
8936
12142
16100
17050
12587
5723
1779
1990
3334
3461
2533
1375
267
-796
-1565
-1625
-1145
-754
-602
-527
-821
-1672
-2357
-2178
-1820
-2507
-3856
-4206
-3353
-2858
-3247
-3365
-2713
-2102
-2069
-2435
-3122
-4102
-4812
-4703
-3934
-2779
-1518
-516
1064
3680
4463
2104
1154
3516
3608
-1440
-7002
-8855
-7088
-3361
453
2830
3426
2796
1816
1121
760
614
549
275
-222
-587
-676
-610
-447
-276
-285
-615
-1267
-2040
-2557
-2617
-2433
-2304
-2279
-2313
-2338
-2115
-1761
-1974
-2699
-2976
-2797
-2338
-228
3378
5709
7432
12473
18630
18526
11608
4593
1033
-87
633
2025
1718
-12
-908
-623
9
777
1387
1528
1312
705
-76
-398
-582
-1513
-2868
-3762
-4026
-3629
-2659
-1874
-1651
-1599
-1807
-2557
-3389
-4001
-4712
-5443
-5483
-4452
-3084
-1946
428
4552
6932
5539
3445
2125
-946
-5858
-9357
-9509
-6720
-2690
413
1667
1753
1425
960
643
694
934
1041
972
911
999
1353
2037
2774
3038
2572
1588
560
-89
-299
-387
-654
-1104
-1608
-2159
-2811
-3261
-2861
-2001
-2336
-3194
-706
5097
7956
6294
7474
14058
17504
12430
4756
887
89
-134
56
552
371
-479
-923
-700
-591
-821
-887
-888
-1394
-2206
-2721
-3086
-3712
-4171
-3815
-2968
-2337
-1926
-1615
-1903
-3082
-4628
-5862
-6455
-6483
-6324
-5848
-4499
-2585
-270
3379
7629
10332
11218
9455
3075
-4922
-9064
-9410
-8277
-5448
-1744
604
1363
1085
-56
-829
-178
1038
1702
2089
2845
3668
3789
3297
2929
2764
2418
1963
1578
1218
914
392
-840
-2352
-3284
-3933
-5099
-6365
-6645
-6139
-6114
-6047
-3682
-138
456
107
6452
18204
23310
16685
6931
2373
2370
3154
3012
1969
990
768
777
483
134
-219
-888
-1683
-2153
-2339
-2492
-2670
-2959
-3321
-3446
-3310
-3211
-3229
-3423
-3980
-4742
-5224
-5132
-4733
-4299
-2998
-452
1216
1131
2335
5840
8189
7822
6223
3465
-965
-5683
-8443
-7798
-4464
-946
1347
2776
3511
3209
2068
977
650
814
795
616
571
480
260
197
232
-19
-546
-1101
-1781
-2649
-3276
-3597
-4226
-5224
-6139
-7122
-8177
-8647
-8178
-6216
-2593
237
1010
4394
13690
22526
22420
14135
5339
1329
1663
3000
3099
2280
1626
1273
992
868
771
413
8
-212
-613
-1334
-1905
-2196
-2517
-2870
-3053
-3009
-2872
-3116
-3965
-4864
-5408
-5486
-4496
-2257
245
1636
1349
1938
6377
10477
8436
4363
3618
2300
-2364
-6459
-8093
-7809
-4894
-520
2670
4327
5068
4729
3616
2649
2168
1845
1512
1245
805
-25
-888
-1538
-2292
-3373
-4497
-5285
-6006
-7262
-8553
-8925
-8782
-8466
-7413
-6936
-9015
-11565
-10407
-4799
2430
8371
13301
19529
24506
21645
11809
3695
1368
2009
3126
3612
2499
691
-181
-340
-538
-591
-568
-941
-1487
-1716
-1642
-1391
-1050
-907
-1051
-1130
-945
-791
-1006
-1515
-1836
-1445
-424
382
417
294
1037
2626
3733
3156
1316
-457
-2086
-4934
-9193
-12576
-12827
-10134
-6245
-2764
-177
