# session 25
-73
-93
-60
16
38
-35
-104
-97
-73
-78
-100
-124
-152
-281
-542
-693
-667
-707
-643
-205
6
-500
-1014
-984
-827
-787
-737
-726
-676
-582
-757
-982
-758
-447
-569
-811
-775
-579
-421
-299
-83
240
457
469
412
349
265
195
133
42
-42
-53
-29
-73
-171
-191
-131
-86
-65
-38
25
179
330
307
177
131
166
179
172
160
128
169
270
195
41
178
471
591
575
362
-81
-281
-76
106
118
83
48
202
540
678
569
517
518
442
403
439
438
450
536
592
598
638
676
666
651
600
475
387
381
317
166
106
137
50
-83
-77
-178
-484
-497
-156
-70
-292
-363
-338
-463
-529
-401
-372
-557
-635
-468
-384
-550
-577
-259
10
86
223
183
-292
-623
-424
-199
-230
-224
-120
-62
-3
77
64
-9
-10
36
48
111
234
237
203
323
257
-167
-271
185
456
282
134
124
77
34
35
39
20
-59
-123
-53
61
96
97
95
91
114
82
-75
-201
-215
-261
-352
-350
-257
-172
-167
-218
-188
-93
-16
165
272
-117
-647
-667
-442
-422
-430
-377
-435
-490
-396
-305
-311
-319
-282
-230
-164
-108
-70
8
110
168
266
422
438
311
241
192
109
140
203
91
-36
2
57
33
20
44
79
103
88
110
227
297
246
208
180
89
98
240
248
127
114
132
76
111
187
193
442
833
635
-29
-255
-33
33
-26
40
111
85
35
13
17
31
63
134
187
172
160
205
291
374
398
374
388
415
352
241
173
112
29
-44
-132
-262
-417
-570
-629
-522
-386
-358
-363
-334
-299
-246
-220
-304
-402
-397
-349
-313
-275
-227
-174
-187
-217
-40
206
267
434
681
333
-382
-533
-265
-190
-169
-51
-10
19
63
13
-7
-69
-427
-693
-390
38
83
23
122
222
306
442
499
431
347
237
105
63
53
-24
-32
54
18
-102
-80
14
9
-18
20
71
134
211
200
106
93
189
273
314
282
178
201
272
-5
-351
-107
450
594
259
-219
-502
-402
-222
-307
-462
-465
-464
-506
-449
-340
-298
-267
-220
-226
-211
-85
48
104
150
239
337
378
359
343
321
236
113
-27
-160
-183
-148
-201
-218
-116
-111
-120
5
-235
-880
-891
-104
328
114
2
114
110
65
109
133
128
160
132
56
149
345
419
551
766
544
-76
-341
-160
-82
-169
-161
-103
-82
-37
-11
-41
7
124
118
32
37
58
25
74
183
189
176
258
290
181
42
-68
-156
-172
-112
-63
-50
-43
-48
-55
-24
12
12
23
70
101
77
13
-40
-72
-90
-30
47
-34
-93
81
193
181
346
334
-199
-567
-343
-104
-123
-98
-38
-134
-283
-264
-78
48
-11
-83
-51
-37
-72
-26
86
138
150
208
276
278
213
112
31
-11
-87
-161
-122
-64
-88
-87
-68
-120
-125
-62
-94
-122
25
183
191
164
159
118
87
89
21
-74
-32
56
-19
-167
-233
-274
-234
-37
107
139
210
75
-377
-590
-357
-181
-225
-245
-253
-297
-265
-227
-272
-254
-177
-189
-180
-41
68
94
146
222
332
492
536
409
309
264
161
64
13
-23
7
-12
-154
-108
-34
-495
-929
-480
178
280
363
737
970
1054
1221
1418
1544
1358
682
-20
-253
-255
-343
-391
-362
-417
-515
-530
-504
-511
-556
-641
-724
-735
-697
-668
-587
-384
-137
46
159
245
286
217
93
91
185
127
-81
-178
-124
-76
-84
-105
-85
-14
49
135
312
475
582
776
1036
1151
965
460
-114
-397
-386
-296
-207
-190
-275
-329
-328
-379
-438
-440
-438
-469
-533
-595
-561
-456
-364
-238
-68
60
154
209
184
221
411
499
328
130
107
164
161
109
101
139
151
132
112
85
71
98
135
142
104
23
-20
24
59
2
-86
-122
-81
-18
-21
-41
24
76
-13
-102
-39
54
50
-1
-32
-42
-38
-35
-41
-53
-101
-190
-216
-95
50
140
301
383
41
-441
-488
-234
-124
-158
-156
-95
-52
-85
-131
-122
-96
-64
-32
-82
-167
-128
37
185
257
318
396
428
414
391
304
176
116
38
-120
-224
-362
-640
-666
-269
25
-23
-77
-16
51
136
198
155
87
93
118
71
24
69
86
48
150
309
326
377
416
63
-407
-413
-160
-87
-89
-2
80
84
48
37
58
54
35
31
8
20
88
72
32
187
405
406
274
226
183
-9
-173
-131
-139
-310
-282
-81
-126
-273
-204
-128
-170
-153
-135
-196
-171
-77
-60
-49
-8
-55
-130
-72
36
5
-102
-80
12
-18
-12
201
324
295
380
150
-696
-1123
-527
59
38
-14
91
80
27
44
70
104
104
41
52
166
214
198
256
334
327
333
422
433
270
95
35
1
-88
-144
-104
-68
-113
-194
-251
-231
-159
-194
-255
-100
-6
-272
-426
-175
-25
-166
-228
-182
-217
-232
-145
-101
-119
-32
125
196
273
343
116
-277
-363
-192
-121
-149
-125
-66
-62
-117
-125
-72
-73
-115
-105
-73
-40
44
149
207
238
282
354
440
418
247
167
290
322
141
23
48
38
6
36
50
41
92
147
156
240
448
638
726
797
961
1215
1384
1211
647
-4
-388
-467
-440
-406
-380
-432
-534
-554
-518
-563
-668
-702
-646
-638
-719
-703
-570
-553
-581
-375
-83
-1
-23
24
55
-8
-73
-81
-75
-75
-45
-4
-3
-13
-5
-10
-21
-12
-20
-44
-63
-114
-137
-74
-72
-173
-177
-45
69
104
73
19
-6
5
46
64
55
151
177
-19
89
397
-68
-686
-144
521
89
-318
40
255
78
61
185
189
130
134
166
115
60
155
252
166
92
233
413
430
394
463
523
430
318
327
322
196
84
69
53
-22
-102
-133
-108
-87
-149
-251
-262
-151
-29
-12
-105
-204
-240
-230
-209
-191
-176
-149
-139
-180
-127
94
205
136
195
242
-100
-459
-374
-192
-236
-227
-64
-31
-154
-169
-22
84
6
-103
-35
5
-127
14
343
6
-783
-984
-567
26
600
680
261
72
178
138
42
56
43
9
25
34
30
49
70
110
189
249
236
172
104
40
3
19
32
26
32
-27
-79
70
225
247
492
768
391
-282
-411
-195
-199
-337
-354
-252
-128
-100
-195
-288
-288
-251
-226
-171
-64
28
77
137
210
244
266
296
256
158
94
17
-113
-170
-138
-161
-254
-269
-163
-194
-630
-1096
-904
-225
199
298
343
252
187
290
-99
-1085
-1425
-658
143
333
288
349
477
523
541
631
515
82
-163
-23
89
37
28
73
92
98
103
98
97
132
191
198
155
180
293
374
377
392
480
579
605
521
363
252
198
70
-64
-95
-248
-525
-474
-94
98
-24
-207
-296
-210
-15
52
-39
-101
-74
-63
-100
-99
-32
-9
-98
-190
-96
135
214
254
560
667
140
-343
-392
-645
-1198
-1420
-1129
-501
113
116
-438
-711
-346
202
199
-713
-1581
-1135
-6
433
432
639
680
414
297
318
224
141
163
151
101
96
81
40
58
111
112
87
87
123
210
264
185
88
73
47
57
230
394
377
311
268
237
331
460
462
572
719
220
-741
-969
-329
103
9
-88
-105
-209
-267
-220
-177
-129
-67
-43
-13
51
62
41
98
186
198
192
236
234
124
20
-26
-105
-186
-186
-296
-613
-730
-401
-45
7
-22
23
15
33
199
90
-728
-1695
-1731
-745
200
413
286
253
212
186
340
470
482
684
911
591
-22
-193
-18
30
23
102
110
50
64
102
107
137
155
115
114
169
180
173
217
290
366
393
373
381
263
-12
-46
-66
-690
-1153
-534
166
-2
-299
-200
-104
-92
-1
67
61
86
125
78
-19
-51
-42
-46
-8
35
16
13
17
-20
144
476
247
-754
-1528
-1316
-582
-71
32
-33
11
53
-77
12
253
-371
-1652
-1954
-1139
-420
43
492
571
431
531
652
591
613
722
672
524
428
314
160
128
218
226
131
93
129
128
86
92
176
268
282
227
189
195
176
109
82
113
107
104
152
101
52
294
481
42
-734
-1111
-842
-278
15
-85
-162
-54
20
16
7
-4
25
63
20
-2
116
191
75
34
248
402
349
348
369
272
275
204
-483
-1389
-1518
-837
-146
117
132
136
97
38
177
313
-190
-1252
-1837
-1280
-154
507
455
283
350
407
338
381
521
549
630
907
1111
1273
1587
1499
647
-137
-242
-134
-189
-250
-245
-237
-239
-235
-219
-242
-316
-360
-369
-379
-380
-453
-608
-618
-395
-191
-191
-187
20
-62
-899
-1531
-896
105
224
-85
-73
60
84
103
110
94
136
197
205
199
205
179
125
102
136
178
160
112
120
99
3
127
397
77
-764
-1012
-481
-114
-151
-88
58
3
-21
190
190
-410
-1216
-1520
-1020
-93
529
583
450
410
414
444
524
629
704
684
586
492
414
327
253
217
199
168
124
99
99
89
68
72
88
99
161
263
273
175
82
36
69
160
135
56
126
119
-33
-52
-240
-603
-182
672
480
-344
-453
-129
-72
-97
-60
-98
-144
-122
-94
-106
-138
-150
-140
-134
-123
-96
-77
-24
87
133
115
173
165
-9
-16
48
-427
-1099
-971
-231
107
-49
-40
161
-82
-928
-1668
-1561
-670
206
459
331
266
248
189
185
206
197
219
203
118
181
382
464
506
569
313
-170
-285
-47
45
-40
-51
5
22
16
26
48
62
75
77
44
36
94
127
128
186
233
185
171
256
302
232
103
-39
-160
-205
-177
-148
-147
-147
-141
-142
-132
-101
-54
12
75
84
43
3
-15
-25
-27
-31
-40
-18
-19
-79
-39
94
125
252
564
457
-183
-520
-318
-170
-219
-232
-206
-155
-72
-47
-43
18
51
30
45
65
37
36
97
156
209
278
319
292
229
155
58
-36
-75
-82
-101
-98
-76
-106
-141
-98
-52
-75
-84
-24
42
66
54
27
-2
-35
-43
-6
19
3
-14
-40
-37
60
132
189
419
512
72
-414
-397
-212
-206
-220
-202
-218
-186
-124
-120
-111
-58
-31
-27
2
45
87
127
150
181
243
290
287
262
221
139
46
-13
-71
-130
-127
-96
-112
-101
-35
-63
-177
-168
-31
36
-10
-69
-85
-46
-17
-79
-117
-15
55
20
47
67
35
230
357
-168
-761
-630
-299
-314
-302
-163
-165
-180
-95
-78
-102
-61
-43
-64
-35
-15
-44
-16
72
127
177
234
236
243
287
251
150
104
60
-61
-168
-188
-158
-125
-113
-121
-117
-92
-64
-43
-4
110
266
307
221
220
373
534
648
729
744
851
1216
1469
1089
311
-196
-303
-309
-339
-357
-362
-367
-383
-415
-444
-473
-513
-541
-567
-621
-673
-674
-624
-532
-408
-269
-122
29
155
213
184
131
126
129
92
101
166
135
38
72
165
134
63
55
65
135
277
367
434
632
948
1205
1281
1214
1072
738
128
-457
-689
-693
-696
-639
-515
-490
-547
-570
-595
-655
-703
-745
-800
-818
-799
-798
-782
-694
-566
-427
-259
-96
13
99
182
212
204
228
258
244
250
306
335
346
394
421
393
412
478
473
431
480
558
523
438
450
499
465
417
377
296
331
417
147
-249
-211
-23
-123
-227
-156
-152
-240
-240
-125
-46
-51
-9
-22
-332
-651
-569
-368
-394
-429
-373
-429
-374
64
455
462
436
447
173
-198
-279
-143
36
193
225
164
138
157
173
138
21
-111
-206
-293
-352
-365
-387
-412
-400
-385
-379
-330
-257
-199
-115
-4
48
49
72
68
-12
-80
-98
-122
-112
-73
-124
-158
-5
108
50
92
107
-253
-589
-445
-174
-96
-86
-109
-100
35
22
-203
-187
98
207
148
208
329
367
392
466
564
658
699
628
498
417
371
282
174
133
166
181
112
30
47
134
182
152
86
69
137
199
149
63
73
109
25
-106
-101
10
25
-84
-100
18
2
-224
-367
-291
-221
-299
-368
-293
-178
-151
-172
-170
-152
-140
-131
-124
-121
-124
-124
-106
-73
-41
-7
49
124
180
194
188
174
123
37
-35
-74
-108
-147
-168
-173
-172
-155
-148
-168
-158
-108
-108
-149
-111
6
67
19
-39
-37
-28
-56
-70
-36
17
33
-3
22
166
278
361
531
504
88
-228
-120
44
12
-45
-39
-32
-34
-23
-3
6
-9
-26
-18
5
28
56
100
157
209
240
239
216
182
127
47
-19
-41
-56
-85
-84
-48
-32
-41
-44
-37
-14
26
41
37
75
126
122
98
93
80
69
79
77
93
139
111
65
173
297
329
494
621
280
-194
-268
-193
-308
-425
-410
-377
-356
-327
-322
-332
-328
-318
-304
-270
-222
-181
-145
-94
-38
-4
12
24
15
-32
-101
-163
-196
-211
-224
-209
-162
-154
-191
-175
-89
-35
-44
-47
-19
13
51
82
65
19
-3
-2
7
10
-11
-23
-19
-24
34
162
212
192
153
-60
-357
-371
-158
-41
-21
-2
12
57
103
79
48
61
80
101
117
114
135
203
283
350
383
390
404
389
290
147
49
24
11
-43
-88
-73
-56
-87
-108
-85
-58
-49
-55
-72
-68
-12
69
98
29
-75
-92
-29
-12
-63
-67
2
12
-16
113
319
375
373
338
35
-338
-328
-103
-59
-116
-87
-34
-15
-18
-25
20
93
94
50
54
82
115
188
261
284
306
341
331
267
191
122
59
1
-43
-62
-68
-73
-65
-57
-74
-74
-41
-37
-80
-98
-46
29
48
0
-53
-83
-108
-121
-121
-135
-127
-93
-132
-174
-55
87
124
202
191
-160
-509
-476
-323
-316
-331
-295
-277
-277
-281
-292
-271
-209
-165
-160
-138
-87
-38
