# session 67
6
16
25
35
50
64
64
64
80
94
94
94
100
98
121
238
468
748
995
1159
1267
1310
1202
1099
1251
1290
703
-68
-332
-280
-319
-370
-352
-354
-356
-338
-346
-361
-363
-383
-402
-408
-443
-500
-519
-504
-503
-527
-556
-569
-550
-499
-431
-355
-267
-168
-74
3
68
122
153
163
170
173
164
155
153
144
134
138
141
135
138
145
143
143
141
131
134
149
143
124
114
97
78
84
90
74
55
45
43
53
55
27
-3
2
28
37
27
44
96
113
71
32
21
6
-17
-32
-51
-70
-66
-56
-62
-64
-55
-68
-82
-72
-97
-120
-23
119
225
367
365
-7
-373
-327
-145
-134
-159
-129
-127
-141
-134
-138
-147
-138
-126
-121
-105
-84
-78
-74
-47
-10
16
30
49
104
188
247
278
326
368
347
290
244
192
107
15
-47
-84
-108
-114
-109
-111
-107
-93
-92
-82
-45
-28
-44
-48
-37
-38
-40
-23
12
54
101
166
284
492
760
970
1081
1231
1433
1394
928
287
-153
-306
-328
-353
-393
-408
-396
-395
-417
-436
-443
-448
-466
-504
-538
-557
-592
-641
-657
-649
-653
-651
-620
-557
-438
-278
-137
-21
96
179
207
206
180
115
57
48
50
29
12
25
45
44
25
8
9
12
6
14
29
18
1
12
30
25
10
21
52
52
23
25
44
29
3
5
9
1
-2
-4
-5
4
0
-24
-26
0
-3
-33
2
106
161
129
95
90
70
31
9
2
-7
-12
-12
-16
-23
-47
-70
-42
-31
-85
-33
156
291
431
585
369
-146
-332
-154
-82
-135
-123
-105
-119
-105
-93
-104
-101
-91
-86
-69
-49
-41
-27
-5
7
22
68
120
148
180
239
289
310
332
349
336
298
237
154
81
27
-29
-79
-106
-115
-117
-120
-125
-123
-110
-94
-82
-84
-83
-42
55
231
502
805
1129
1487
1651
1512
1491
1674
1346
366
-369
-476
-467
-572
-605
-586
-616
-644
-647
-658
-672
-686
-710
-733
-752
-782
-820
-854
-878
-891
-888
-871
-833
-764
-663
-554
-445
-321
-190
-90
-30
9
36
57
73
81
97
117
118
138
198
261
384
638
906
1096
1274
1349
1146
775
467
272
141
21
-117
-215
-234
-225
-216
-199
-197
-216
-226
-222
-222
-233
-252
-270
-285
-311
-341
-362
-376
-383
-369
-330
-275
-206
-127
-49
20
69
102
133
153
168
214
264
260
227
214
199
169
149
122
80
64
65
49
49
71
59
21
14
34
47
34
13
17
16
4
78
216
350
564
671
301
-232
-330
-157
-137
-181
-149
-133
-141
-129
-128
-132
-121
-123
-135
-132
-126
-121
-102
-72
-45
-8
47
104
154
206
253
280
289
281
243
172
82
-11
-92
-143
-162
-162
-158
-163
-162
-141
-118
-119
-135
-134
-118
-110
-107
-81
-31
28
100
204
394
653
847
983
1187
1281
966
395
-24
-203
-278
-309
-312
-318
-331
-347
-363
-372
-377
-390
-409
-437
-477
-519
-560
-604
-640
-658
-656
-625
-556
-450
-316
-183
-65
53
152
185
175
179
222
339
501
581
725
1196
1663
1669
1454
1232
705
-9
-378
-398
-393
-399
-375
-375
-387
-375
-367
-381
-405
-420
-417
-410
-411
-406
-400
-415
-418
-361
-263
-172
-88
-1
65
86
74
46
10
-14
-18
-24
-40
-47
-46
-46
-24
38
104
130
114
80
51
35
29
11
-11
-15
-14
-24
-13
6
-18
-42
-14
14
6
-15
-3
45
38
2
125
332
438
562
616
245
-249
-283
-80
-74
-116
-60
-58
-103
-87
-65
-84
-80
-45
-36
-41
-16
17
28
39
69
127
204
248
253
269
298
307
308
301
263
199
132
68
10
-41
-80
-91
-90
-103
-109
-94
-90
-98
-87
-74
-83
-82
-65
-68
-87
-86
-67
-72
-106
-118
-69
11
52
29
-15
-30
-25
-38
-61
-67
-63
-71
-71
-53
-58
-89
-81
-44
-44
-72
-106
-121
-56
65
251
552
632
157
-391
-428
-226
-209
-267
-240
-196
-187
-197
-209
-199
-174
-159
-145
-119
-100
-99
-84
-47
-16
9
56
117
159
192
236
271
275
264
246
192
115
54
-7
-76
-104
-103
-122
-132
-110
-100
-108
-96
-70
-60
-57
-46
-30
-7
53
150
226
320
556
826
953
1111
1389
1368
870
326
35
-105
-174
-191
-226
-272
-283
-282
-296
-320
-348
-372
-399
-432
-454
-481
-533
-570
-566
-564
-566
-513
-410
-306
-196
-65
56
144
186
164
126
124
102
39
24
50
36
25
59
79
62
52
54
62
72
68
56
54
60
73
83
77
67
63
60
67
77
73
53
29
19
17
-4
-11
20
11
-49
-51
-14
-37
-80
-92
-108
-127
-125
-125
-131
-125
-116
-110
-99
-68
-3
66
73
32
17
29
15
-19
-36
-37
-33
-30
-37
-41
-26
-26
-43
-25
-19
-59
-2
177
353
583
753
450
-144
-337
-151
-96
-153
-107
-87
-150
-147
-89
-86
-104
-102
-111
-112
-71
-45
-66
-71
-32
5
33
97
185
249
295
347
378
372
368
365
319
247
186
125
66
29
-4
-30
-23
-14
-33
-51
-45
-42
-44
-30
-17
-36
-56
-51
-58
-76
-65
-58
-78
-81
-77
-94
-76
-4
30
8
7
19
-8
-46
-61
-75
-96
-104
-101
-99
-102
-107
-102
-106
-122
-105
-88
-112
-63
98
269
503
683
377
-229
-406
-182
-117
-195
-162
-139
-200
-213
-180
-183
-195
-177
-151
-133
-123
-117
-97
-68
-48
-16
32
72
119
187
246
288
330
350
333
290
214
108
16
-54
-114
-140
-138
-151
-173
-174
-174
-181
-171
-152
-143
-134
-115
-100
-107
-118
-96
-75
-98
-104
-58
-55
-98
-62
35
76
60
37
26
41
58
48
46
68
83
102
121
106
95
115
111
96
105
69
40
139
266
407
691
773
287
-238
-247
-77
-91
-117
-77
-80
-93
-78
-79
-85
-78
-75
-72
-67
-67
-52
-25
-13
-10
12
50
88
119
161
226
280
299
304
284
218
142
93
36
-38
-86
-96
-94
-90
-91
-98
-97
-89
-86
-84
-79
-80
-89
-97
-101
-109
-116
-115
-117
-120
-117
-124
-123
-78
-21
-18
-55
-82
-95
-105
-114
-122
-125
-126
-118
-104
-106
-118
-100
-87
-109
-100
-79
-116
-84
76
219
417
668
499
-113
-428
-257
-134
-191
-188
-146
-148
-142
-138
-153
-140
-120
-138
-155
-125
-74
-60
-83
-75
-21
18
50
115
180
221
278
336
351
333
305
251
166
69
-6
-44
-62
-76
-72
-41
2
41
88
217
483
768
928
1103
1433
1598
1210
456
-144
-388
-436
-447
-447
-438
-432
-404
-337
-296
-324
-378
-418
-461
-505
-542
-585
-622
-625
-610
-587
-515
-390
-264
-152
-22
106
177
192
190
175
148
129
117
96
76
75
90
107
110
104
108
124
124
98
74
79
91
73
47
46
49
42
47
63
66
58
61
66
55
43
44
40
25
20
25
24
21
20
14
16
27
29
18
13
20
17
-2
-14
-14
-24
-40
-43
-41
-44
-46
-45
-43
-28
-18
-39
-61
-45
-29
-50
-67
-50
-40
-53
-36
36
88
62
23
25
10
-37
-48
-46
-79
-85
-50
-46
-58
-42
-33
-38
-58
-82
6
193
309
404
496
273
-192
-349
-166
-76
-126
-131
-124
-143
-136
-124
-135
-140
-140
-155
-162
-134
-98
-107
-140
-118
-45
0
19
63
114
146
184
242
283
289
289
281
216
123
75
22
-81
-136
-117
-121
-154
-173
-190
-186
-143
-132
-165
-152
-112
-117
-102
-1
136
318
559
737
812
816
641
387
367
406
125
-201
-207
-133
-199
-245
-228
-241
-250
-231
-230
-231
-218
-225
-245
-242
-230
-231
-229
-209
-172
-126
-83
-47
-3
52
87
89
83
76
51
21
4
-13
-31
-35
-42
-59
-54
-38
-32
-12
22
57
120
224
390
651
923
1135
1387
1644
1600
1116
446
-87
-358
-436
-458
-486
-497
-480
-467
-491
-526
-539
-544
-574
-624
-662
-696
-759
-825
-837
-806
-777
-733
-632
-480
-308
-138
20
153
242
285
318
343
307
219
144
100
62
33
16
-3
-18
-15
-9
-4
6
18
30
35
42
73
89
44
30
74
60
47
175
309
387
548
559
160
-219
-176
-26
-39
-55
-18
-21
-26
-6
-8
-20
-6
0
-10
2
31
45
44
53
92
151
188
207
253
313
345
350
334
283
213
147
78
9
-31
-44
-64
-90
-94
-88
-90
-88
-78
-72
-69
-65
-67
-63
-45
-31
-27
-26
-30
-37
-40
-56
-60
-4
63
75
68
73
76
114
194
270
375
532
652
790
1074
1267
1014
442
-39
-272
-351
-388
-416
-418
-405
-411
-424
-424
-426
-442
-457
-472
-489
-509
-537
-571
-590
-591
-601
-610
-575
-504
-432
-336
-198
-51
75
170
223
230
211
177
128
84
58
37
20
12
0
-8
16
46
43
33
42
54
64
73
71
70
85
92
72
52
57
71
66
45
36
43
40
22
11
34
88
138
146
106
55
44
76
81
38
3
-6
-4
19
37
22
14
18
20
54
51
-20
40
252
396
544
709
475
-85
-305
-127
-37
-92
-94
-57
-41
-39
-51
-56
-47
-48
-46
-30
-31
-37
-8
19
2
17
95
134
130
198
295
296
274
339
390
325
216
138
73
-4
-76
-120
-148
-174
-178
-168
-179
-187
-180
-188
-191
-172
-177
-196
-192
-188
-203
-201
-177
-164
-175
-169
-96
-11
-2
-38
-40
-28
-44
-63
-66
-77
-85
-59
-39
-63
-74
-41
-40
-85
-95
-99
-130
-57
128
316
592
826
554
-79
-362
-231
-160
-215
-200
-135
-120
-144
-150
-113
-94
-142
-167
-112
-79
-99
-88
-61
-52
-2
60
63
87
168
210
233
301
324
266
222
189
99
5
-26
-29
-49
-79
-83
-59
-48
-57
-44
-26
-30
-26
-27
-55
-33
26
7
-50
-45
-33
-56
-49
-7
27
60
77
67
67
75
48
10
5
10
-9
-16
-2
-11
-16
23
29
-14
4
37
-15
-4
145
245
380
693
734
230
-220
-207
-87
-102
-121
-111
-105
-92
-91
-97
-80
-63
-63
-58
-50
-43
-46
-61
-48
4
36
46
83
130
154
175
205
229
237
226
187
126
63
19
-13
-50
-80
-83
-80
-91
-102
-109
-119
-130
-149
-171
-174
-166
-176
-183
-166
-157
-165
-156
-137
-133
-118
-69
-16
0
-20
-40
-46
-68
-101
-99
-92
-133
-161
-126
-106
-140
-152
-142
-155
-144
-117
-156
-148
-9
97
193
400
382
-54
-368
-246
-77
-62
-32
19
12
4
24
34
30
25
19
14
13
19
31
38
50
89
138
162
176
216
267
298
321
346
346
312
264
210
133
41
-26
-61
-83
-93
-98
-118
-125
-98
-84
-106
-98
-43
-2
29
105
248
477
725
881
1087
1472
1592
1004
156
-251
-252
-241
-290
-312
-325
-355
-377
-380
-390
-413
-416
-409
-437
-482
-506
-524
-551
-569
-578
-565
-500
-404
-312
-202
-58
72
153
192
179
120
72
59
43
15
-3
-1
9
11
4
9
24
19
9
29
41
14
4
25
7
-27
-12
0
-33
-55
-53
-56
-50
-34
-39
-49
-42
-38
-40
-26
-10
-22
-38
-20
14
27
25
33
48
51
49
56
64
59
47
39
42
47
48
46
43
34
25
23
19
2
-5
41
125
168
141
106
94
73
42
26
13
-4
-16
-25
-24
-6
-12
-32
-19
-24
-55
23
181
293
490
706
477
-89
-319
-163
-81
-125
-131
-126
-136
-125
-115
-124
-130
-124
-110
-104
-104
-100
-93
-89
-80
-65
-44
-9
36
76
113
151
187
209
205
181
148
99
37
-22
-71
-110
-140
-160
-166
-160
-155
-152
-135
-98
-68
-35
55
173
275
474
805
1069
1244
1474
1512
1016
260
-219
-350
-369
-364
-309
-253
-269
-333
-375
-391
-413
-439
-476
-534
-573
-579
-596
-625
-615
-574
-541
-494
-400
-273
-142
-23
71
127
133
100
72
73
68
41
22
32
53
66
71
82
97
103
99
101
108
103
96
93
78
58
51
47
35
32
38
38
34
34
37
43
44
32
19
18
15
0
-5
15
27
7
-13
-12
-4
-5
-8
-13
-14
-13
-13
-14
-11
-4
-5
-12
-9
8
19
18
22
32
35
24
31
77
130
147
128
94
57
30
10
-17
-39
-40
-29
-33
-48
-50
-53
-68
-64
-74
-122
-96
28
144
273
325
40
-376
-440
-254
-190
-212
-185
-170
-181
-169
-153
-148
-140
-144
-150
-130
-100
-90
-86
-70
-45
-20
15
66
108
135
184
249
285
296
307
302
274
237
179
90
8
-37
-58
-75
-84
-90
-104
-109
-91
-65
-39
-6
58
170
328
600
1068
1592
1979
2241
2234
1618
597
-134
-336
-317
-301
-306
-342
-396
-437
-466
-493
-521
-556
-594
-626
-662
-699
-723
-742
-785
-832
-841
-824
-801
-739
-620
-469
-314
-182
-88
-17
39
68
72
72
87
113
117
100
95
108
121
132
143
146
148
161
176
183
180
174
173
182
195
198
184
164
159
160
133
97
92
98
81
59
50
30
1
-10
-11
-23
-37
-42
-44
-45
-44
-49
-60
-64
-56
-52
-53
-50
-48
-56
-65
-66
-64
-69
-78
-86
-93
-102
-85
-24
40
57
32
-1
-23
-29
-28
-44
-69
-71
-58
-64
-68
-48
-44
-56
-52
-64
-67
29
175
299
397
279
-136
-418
-294
-104
-96
-120
-95
-82
-72
-50
-32
-20
-18
-21
-12
5
19
35
57
78
94
116
150
192
234
279
324
363
390
403
405
389
349
299
246
178
107
54
