# session 5
340
-87
-536
-964
-1392
-1763
-1708
-1084
-438
-337
-962
-2125
-3071
-3421
-3718
-3823
-2755
-2
4353
9165
13339
17665
21047
19342
12963
7200
3993
2363
2582
3698
3456
2218
1547
1131
372
-201
-491
-1248
-2425
-2902
-2407
-2009
-2013
-1586
-769
-298
-150
-244
-1104
-2824
-4723
-6090
-6274
-4543
-1275
1662
3892
6877
8547
4748
-1608
-3951
-3784
-5867
-7688
-6032
-3867
-2819
-469
2853
4477
4167
2945
1286
-2
-310
-90
-119
-615
-1164
-1565
-2297
-3404
-4098
-4168
-4264
-4457
-3929
-2439
-815
236
253
-1100
-3116
-5380
-7953
-7989
-4135
-1942
-2446
3141
15480
23105
21167
14641
7611
2664
1742
2840
2832
1658
532
-249
-748
-909
-916
-1181
-1726
-2134
-2221
-2185
-2176
-2142
-1997
-1846
-1877
-2136
-2856
-4347
-6019
-6730
-5801
-2841
909
2342
2341
5281
8101
4013
-2335
-2601
-524
-2161
-4534
-4626
-4131
-3290
-1264
671
1272
785
-244
-1320
-1906
-1876
-1557
-1073
-462
-477
-1635
-2980
-3644
-4104
-4718
-5163
-5311
-5049
-4062
-2482
-1179
-1236
-2576
-3997
-5182
-5675
-3377
768
1781
86
3135
12841
21112
20807
13433
5642
2736
4607
6701
5799
3028
709
-474
-865
-1026
-1461
-2062
-2462
-2711
-2691
-1961
-1002
-708
-711
-513
-813
-1755
-2741
-3945
-4691
-3498
-1626
-795
440
2446
4214
8141
13212
10911
630
-5934
-4386
-3044
-5935
-7655
-4745
114
3768
5312
4900
3611
2841
2711
2754
3131
3816
4376
4869
5389
5392
4557
3628
3417
3429
2853
1833
84
-2873
-5483
-6568
-7885
-9952
-10260
-8588
-7958
-8863
-8391
-6255
-5096
-3114
3864
11839
12828
7413
1234
-3532
-5542
-3343
577
2463
1866
183
-1486
-2393
-2558
-2656
-2935
-3059
-2819
-2360
-1863
-1422
-1224
-1384
-1772
-2370
-3201
-3940
-4491
-5116
-4991
-2837
256
2249
3893
6564
9152
11020
12711
11824
5223
-4330
-9971
-9259
-6533
-5674
-4888
-1894
1308
2675
2978
2779
2076
1758
2166
2754
3491
4331
4763
4930
5371
5935
6279
6298
5623
4186
2384
54
-2472
-4175
-6165
-9318
-10490
-8345
-6260
-5180
-4694
-7015
-8548
-1370
10687
16074
13111
7287
1063
-3366
-2983
443
2460
2230
1281
-4
-1414
-2263
-2682
-3037
-3120
-3025
-3109
-3127
-2813
-2454
-2215
-2039
-2195
-2782
-3530
-4536
-5128
-3246
805
3494
3627
3118
2945
4613
9267
11624
6370
-1443
-4950
-5486
-5783
-5511
-4924
-3799
-1242
1340
2559
2850
2308
1411
1484
2512
3910
5729
7309
7901
8096
8459
8687
8705
8498
7372
4973
2168
-141
-2480
-6457
-12004
-15344
-13645
-10300
-8945
-7879
-7328
-9488
-8804
-271
8915
12031
11318
7323
-296
-5411
-3972
32
2680
3790
3455
1833
49
-1222
-2174
-2867
-3162
-3180
-3130
-3033
-2921
-2884
-2821
-2561
-2266
-2277
-2679
-3520
-4766
-5051
-2440
1847
4009
3516
3137
3592
4738
7854
10325
6681
-1022
-5205
-5116
-5725
-7425
-6732
-3706
-1172
445
1922
2335
1507
1228
2047
2831
3273
3943
5036
6258
7280
8270
9451
10281
10319
9711
7889
4165
-459
-4452
-7326
-9175
-10450
-11480
-11521
-10015
-8312
-8067
-8037
-5063
607
5332
8029
9639
8715
4405
-191
-1689
-75
1898
1987
900
31
-1029
-2494
-3385
-3487
-3354
-3173
-3038
-2984
-2794
-2538
-2413
-2199
-1824
-1703
-2093
-2964
-4011
-4101
-2259
475
2405
3483
4414
6094
9240
10781
6197
-1436
-4912
-4614
-5166
-6374
-6302
-5093
-2848
-44
1970
2912
3109
2785
2633
2837
3121
4096
5917
7430
8449
9894
11462
12360
13115
13951
13697
11935
9098
4609
-1600
-7455
-11295
-13621
-15208
-15814
-15073
-13443
-11736
-9758
-6274
-652
5721
9692
9158
5383
781
-3219
-4725
-2767
-79
546
39
-42
-82
-638
-1499
-2351
-2981
-3344
-3505
-3483
-3346
-3134
-2819
-2732
-3299
-4251
-5187
-6205
-6756
-5558
-2659
303
1819
1850
2192
3763
4909
6053
8973
9457
3744
-2514
-4934
-6192
-5904
-2858
-1390
-2483
-1852
390
1261
1041
771
405
476
1248
2191
3249
4503
5649
6821
8212
9233
9623
9849
9447
7422
4347
1329
-1553
-3761
-4972
-7315
-11391
-13295
-11749
-10671
-10517
-8599
-6782
-5325
1625
12822
18605
16867
12147
5611
11
490
4687
6179
4746
3188
1416
-927
-2665
-3456
-3990
-4377
-4350
-4088
-3851
-3557
-3189
-2887
-2643
-2497
-2548
-2869
-3874
-5509
-6293
-4943
-2040
657
1680
1433
1494
1994
3074
5439
5942
1793
-1681
63
1851
-865
-4640
-5619
-4147
-1941
-33
1250
1559
791
50
524
2009
3545
4525
5082
5728
6837
8671
10957
12515
12572
11606
10354
9442
8918
6621
25
-8804
-14457
-15534
-15333
-15112
-13441
-11203
-9857
-8093
-6351
-6915
-6273
310
8076
10106
8034
5453
2251
-353
-176
1564
2695
2961
2509
1300
-162
-1321
-2104
-2688
-3170
-3409
-3292
-3005
-2741
-2491
-2284
-2219
-2310
-2552
-2853
-3120
-3635
-4273
-3645
-1159
1355
2187
1720
1286
1967
3421
4674
6615
8462
5259
-2616
-6673
-4584
-3699
-6917
-9087
-7259
-4027
-2274
-2132
-1997
-835
686
1860
3258
5017
6042
6056
6039
6373
6740
7440
9029
11050
12343
12538
11975
9962
5493
-26
-4353
-8176
-12731
-15559
-13915
-9878
-7128
-5822
-4740
-4115
-3401
-1989
-1702
-1834
2190
9272
12473
10237
6524
3397
1372
1082
1801
2466
2825
2494
1292
-221
-1627
-2871
-3757
-4053
-3733
-2999
-2289
-1962
-1917
-1857
-1783
-1789
-1728
-1568
-1462
-1279
-988
-848
-395
870
1847
1384
302
38
920
2313
3766
5560
6405
3200
-2953
-6117
-4770
-3963
-6167
-7837
-6044
-2569
-428
-151
-696
-1320
-1535
-1069
-115
1030
2020
2655
3386
4544
5692
6600
7541
8485
9257
9750
9392
7661
4906
1460
-2818
-7212
-10464
-12442
-13084
-11793
-9800
-8575
-7059
-6053
-7689
-6986
1918
12781
16109
12817
8269
4278
1443
669
1811
3471
3996
3277
2345
1301
-84
-1348
-2338
-3200
-3649
-3609
-3463
-3382
-3267
-3030
-2708
-2521
-2613
-2869
-3039
-3001
-3169
-3668
-3043
-318
2321
2312
782
563
1933
3611
5928
8562
7918
2573
-2762
-3995
-3263
-4111
-5692
-4938
-2009
118
343
-123
-498
-573
-106
705
1543
2354
3090
3810
4525
4960
5095
5279
5538
5509
4956
4040
2881
885
-2057
-4424
-5913
-8444
-11247
-11273
-9492
-8292
-7050
-7259
-9894
-6963
6098
17623
17258
10509
4817
669
-812
1680
4687
5107
4185
3280
1995
472
-677
-1534
-2235
-2581
-2616
-2549
-2360
-2077
-1907
-1846
-1764
-1833
-2170
-2500
-2849
-3559
-3823
-2125
688
1838
1260
1158
1674
3053
6775
9122
4967
-1147
-2144
-382
-899
-3432
-5492
-5012
-2135
122
450
256
-127
-780
-713
113
876
1606
2485
3127
3292
3141
3014
3198
3595
3903
4120
4292
4188
3809
3251
1618
-1980
-6266
-9365
-11135
-11447
-9920
-8144
-6956
-5079
-4144
-5275
-2327
7422
14865
13766
8922
4552
810
-563
1150
3255
4091
4050
3208
1730
357
-686
-1629
-2412
-2853
-2965
-2925
-2967
-3166
-3415
-3637
-3817
-3982
-4206
-4557
-5031
-5271
-4434
-1979
1479
4250
4683
3216
2163
2445
3770
6437
7976
4551
-805
-2142
-790
-950
-2698
-4609
-4944
-2469
169
200
-747
-960
-1126
-1126
-196
1152
2200
2837
3111
3268
3477
3614
3890
4492
4929
5075
5271
4857
3251
1192
-1434
-5431
-9076
-9920
-8638
-7106
-5987
-6037
-6988
-6459
-4871
-4750
-2271
7013
15977
16199
11163
6322
1742
-833
636
3277
4368
4293
3277
1554
208
-647
-1550
-2269
-2561
-2709
-2756
-2507
-2090
-1773
-1758
-2330
-3494
-4642
-5266
-5378
-4794
-3352
-1975
-1522
-1159
-182
477
525
976
1996
3255
4837
5537
3256
-1180
-3540
-1873
25
-1200
-2874
-2164
-1179
-1731
-2344
-2171
-1860
-1447
-721
72
886
1992
3367
4512
5023
5121
5373
5807
5589
4132
2165
671
-578
-2214
-3722
-3871
-2557
-1279
-1090
-1127
-941
-2665
-6780
-8487
-5638
-3930
-4240
1718
13039
17514
12750
7005
3146
240
375
3282
5106
4633
3325
1990
809
-319
-1762
-3239
-4129
-4473
-4568
-4357
-3867
-3455
-3374
-3604
-4001
-4296
-4281
-4075
-3663
-2609
-1043
-25
-116
-680
-1092
-1276
-1119
-768
-157
2141
5825
6940
4167
977
-1362
-3913
-5416
-5326
-5098
-4227
-2102
-574
-674
-1393
-1516
-273
1743
2984
3478
4406
5632
6335
6639
6945
7218
7512
7761
7322
5970
4381
2717
484
-1782
-3290
-5132
-8256
-10694
-10520
-9055
-8311
-8106
-7122
-5480
-4750
-4242
-2173
-1555
-3799
-1087
9095
15635
13070
8196
4449
1085
944
4525
7151
6689
4950
3145
1349
-278
-1649
-2698
-3259
-3367
-3216
-2962
-2763
-2700
-2683
-2691
-2846
-3073
-3284
-3732
-4170
-3537
-1735
-126
442
258
-35
2
-97
-453
79
1012
1567
4445
9101
8612
1978
-3727
-5639
-5941
-5545
-4739
-3602
-1905
-1010
-1676
-2101
-1171
121
836
1150
1889
3465
5176
6244
6759
7015
7049
7023
7187
7441
7351
6592
5244
3427
786
-2903
-6688
-9184
-10084
-9926
-9370
-8665
-7162
-5270
-4646
-4051
-2231
-2855
-4970
89
10865
15155
11424
7532
4687
1713
1581
3896
4634
3551
2459
1244
-274
-1627
-2964
-4332
-5159
-5147
-4605
-4013
-3485
-2856
-2333
-2312
-2788
-3675
-4739
-5185
-4578
-3199
-1269
423
664
-69
-256
216
476
470
1665
4814
6767
4253
-417
-3386
-4225
-3791
-3372
-4108
-4238
-2267
-563
-945
-2052
-2509
-1861
86
2421
3865
4562
5502
6725
7422
7515
7611
7565
6817
5614
4462
3400
2404
1515
716
-189
-1888
-4501
-6647
-7309
-6935
-6197
-6089
-6987
-6940
-5943
-7002
-6801
1812
13718
16691
11453
6830
3807
801
833
3765
5115
4212
3308
2440
958
-556
-1762
-2873
-3767
-4174
-4128
-3825
-3389
-2944
-2698
-2745
-3049
-3588
-4195
-4577
-4582
-3865
-2017
409
2187
2604
1621
216
-180
-18
-85
1287
3704
3247
488
-533
-996
-3158
-4818
-5310
-5924
-4930
-1784
287
251
21
207
554
1367
2439
3355
4341
5408
6147
6628
7169
7647
7747
7355
6480
5268
4197
3461
2214
-31
-2212
-4147
-7170
-10295
-10859
-9364
-8179
-7836
-8010
-7673
-5508
-3751
-4453
-2634
5296
12743
13325
9061
3560
-659
-512
3108
5497
5220
4146
2930
1415
43
-1047
-2013
-2693
-2948
-2908
-2749
-2592
-2397
-2110
-1936
-2147
-2737
-3554
-4337
-4488
-3485
-1665
145
1681
2880
3005
1752
505
395
693
1439
3774
5639
3719
-339
-2927
-3956
-4240
-3487
-2198
-1142
-621
-1066
-2250
-3139
-2979
-1676
58
1315
2148
2982
3605
3900
4349
5121
5899
6609
7149
6963
5792
4009
2067
417
-884
-2385
-3964
-5198
-6715
-8180
-8074
-7113
-6601
-5832
-5076
-4622
-3159
-2941
-5228
-2347
8594
16515
14984
9968
5383
1391
756
3399
4983
4345
3180
1694
-34
-1147
-1718
-2252
-2664
-2894
-3060
-3092
-2906
-2628
-2527
-2690
-2965
-3455
-4227
-4498
-3622
-2255
-1098
-56
568
389
58
12
-128
-137
384
1340
2981
4670
4378
1660
-2029
-5066
-5494
-2977
-246
715
526
-5
-532
-842
-1048
-833
278
1738
2707
3253
3954
4975
5863
6272
6398
6280
5621
4574
3617
2853
1976
585
-1316
-3238
-4989
-6513
-7209
-7033
-6883
-6802
-6478
-6731
-7041
-5618
-4186
-4810
-3934
786
5719
9123
11474
10204
5202
1314
1008
2735
4450
4713
3597
2275
969
-608
-2069
-2990
-3404
-3512
-3385
-2881
-2116
-1549
-1351
-1462
-1854
-2251
-2555
-3093
-3646
-3485
-2311
-226
2020
2959
2113
622
-266
-257
-116
-6
1651
4146
3503
-37
-1753
-1288
-1867
-3325
-3545
-2265
-527
423
117
-671
-1066
-719
284
1369
2105
2675
3340
3983
4361
4593
5039
5702
6407
7289
8119
8082
7054
5696
4133
2110
-615
-4737
-9732
-12758
-12351
-10377
-8767
-8074
-7671
-6034
-4784
-6416
-5550
2828
10820
11092
8456
6241
2133
-1274
-603
1110
1360
1543
1655
608
-639
-1091
-1298
-1560
-1675
-1851
-2086
-1996
-1660
-1436
-1403
-1458
-1486
-1597
-1991
-2382
-2362
-2152
-1827
-591
1663
3141
2493
1381
1919
3274
4618
7117
8544
4334
-2780
-5707
-4574
-3952
-4207
-3564
-1932
-92
852
356
-753
-1645
-2027
-1599
-551
467
1200
1815
2444
3069
3744
4664
5874
7284
8451
8296
6705
5393
4933
3958
2436
986
-1734
-6128
-9769
-10994
-10397
-9097
-7686
-5988
-4845
-5697
-5661
-842
5156
7033
6367
5327
2718
-301
-1057
114
1531
2323
2253
1608
597
-628
-1498
-1861
-2133
-2300
-2114
-1759
-1546
-1497
-1430
-1232
-1004
-906
-982
-1069
-978
-990
-1303
-978
618
1858
1117
-76
585
2185
3110
4687
6550
4384
-1222
-3778
-2605
-2549
-3531
-2617
-851
-186
3
387
322
-444
-1076
-856
-87
539
844
1078
1393
1708
1956
2249
2716
3288
3788
4066
3969
3354
2247
867
-736
-2781
-5033
-6527
-6639
-5790
-4664
-3545
-2579
-1859
-1051
485
2808
4999
5924
5047
2845
923
628
1304
1509
1270
1228
1043
349
-451
-1104
-1693
-2062
-2114
-2020
-1848
-1606
-1419
-1297
-1080
-698
-364
-287
-293
-304
-628
-1129
-1157
-422
985
2394
2677
2292
2879
4070
4522
4136
2135
-1830
-4784
-5070
-5165
-5787
-5026
-3170
-1568
-374
-56
-833
-1709
-2205
-2457
-2088
-996
175
999
1593
2149
2664
3174
3945
5055
6279
7524
8444
8233
6804
4877
2508
-858
-5022
-8641
-10248
-9716
-8295
-7185
-6517
-5516
-4251
-3981
-3335
1180
7974
11666
11529
10035
7531
4425
2413
1855
1986
2055
1345
-17
-1190
-1896
-2407
-2853
-3145
-3137
-2843
-2406
-1861
-1288
-928
-809
-825
-1087
-1578
-1955
-2079
-1986
-1458
-491
239
235
-39
188
1101
2310
3492
4633
4954
3031
-230
-2075
-2533
-3366
-3901
-3362
-2775
-1945
-442
108
-795
-1489
-1433
-1132
-444
553
1431
2287
3078
3498
3806
4163
4250
4360
4880
5148
4706
3863
2461
514
-1405
-3755
-6663
-8250
-7873
-7145
-6439
-5456
-4784
-3985
-3248
-3911
-2919
3593
11013
12751
10127
6781
3187
510
740
2855
4067
3502
2196
891
-307
-1188
-1749
-2247
-2621
-2727
-2725
-2779
-2875
-2919
-2908
-2993
-3225
-3461
-3556
-3506
-3510
-3593
-3186
-1933
-334
1176
2377
2845
3460
5755
7725
5511
264
-3333
-4187
-4335
-4431
-3934
-2898
-1718
-709
-257
-638
-1523
-2145
-2112
-1540
-620
408
1275
1955
2542
2992
3186
3061
2791
2645
2480
1939
981
-591
-3045
-5633
-7369
-8253
-8237
-7170
-5790
-4646
-4075
-4327
-3521
-1453
-2274
-3914
1878
11634
14085
10344
7838
6167
3953
3647
4862
5188
4641
3708
2032
-16
-1638
-2545
-2790
-2586
-2167
-1746
-1576
-1553
-1325
-1098
-1304
-1644
-1614
-1219
-609
-38
405
1477
3179
3651
2348
1251
1442
2255
2988
3579
5369
8245
7589
1841
-2741
-2895
-2688
-3652
-3407
-1965
-608
410
501
-468
-1343
-1370
-731
253
1353
2461
3449
4046
4200
4234
4451
4740
4774
4572
4367
4021
3375
2634
1734
242
-1972
-4566
-6687
-7501
-7218
-6287
-4747
-3504
-2926
-1756
-937
-1797
-117
6638
11920
11032
7649
4380
1105
276
2537
4216
3805
2941
1985
517
-920
-2037
-3005
-3615
-3765
-3710
-3560
-3290
-2952
-2652
-2435
-2236
-2194
-2461
-2616
-2445
-2376
-2011
-772
-30
-907
-1855
-1670
-1112
-321
636
758
891
1755
440
-3336
-4791
-3633
-4104
-5778
-6027
-5531
-4951
-4074
-3922
-4513
-4613
-4306
-3959
-3107
-1959
-1234
-883
-525
-139
118
180
164
245
458
673
607
111
-744
-2088
-3723
-4713
-5200
-6424
-7775
-7812
-7048
-5600
-3077
-1723
-2140
-1570
-1443
-3199
-36
10119
17156
16442
13511
9896
4517
1398
2662
4408
4043
2798
1836
1243
922
599
156
-140
-115
201
747
1396
2025
2499
2553
2269
2208
2396
2330
2339
2991
