# session 42
-88
610
781
594
498
386
85
-25
174
302
324
414
457
423
457
492
430
411
480
486
463
530
559
532
664
760
317
-793
-2210
-3190
-3049
-1979
-673
544
1398
1554
1297
1172
1151
987
773
665
636
627
636
678
749
808
806
737
629
535
510
539
522
441
429
481
405
325
487
634
597
776
1029
594
-361
-870
-749
-577
-617
-670
-602
-489
-423
-399
-366
-307
-278
-305
-316
-253
-177
-140
-92
4
86
84
10
-84
-166
-231
-307
-382
-398
-371
-373
-393
-401
-429
-435
-370
-338
-365
-319
-229
-210
-205
-184
-215
-250
-228
-216
-232
-215
-171
-175
-205
-118
45
96
147
301
187
-246
-380
-105
45
-17
-16
20
10
22
36
15
13
39
70
93
79
83
168
261
325
401
401
314
324
361
173
-60
-23
76
-45
-173
-106
-27
-66
-85
-11
58
50
15
34
100
141
116
44
-15
-19
-8
-8
35
153
313
437
461
547
896
1187
900
214
-270
-444
-511
-474
-373
-401
-539
-581
-498
-450
-529
-631
-625
-592
-663
-754
-737
-658
-568
-461
-345
-167
67
160
132
223
239
-76
-265
9
281
257
179
149
142
212
259
215
200
219
232
315
396
348
283
275
220
182
249
244
140
160
276
359
518
696
775
983
1148
679
-68
-235
-37
-64
-152
-88
-66
-159
-252
-276
-233
-206
-228
-238
-246
-243
-171
-97
-63
25
133
150
141
131
40
-54
-77
-132
-204
-202
-217
-284
-272
-219
-223
-186
-99
-110
-174
-122
5
46
-24
-88
-60
-30
-81
-81
-3
-113
-391
-390
-7
326
357
361
543
538
105
-257
-176
-14
-36
-54
-4
-3
-22
6
24
-22
-46
22
71
42
60
141
168
200
288
305
271
296
275
152
72
22
-108
-211
-201
-208
-277
-287
-239
-237
-270
-277
-277
-268
-207
-132
-118
-152
-172
-160
-140
-135
-152
-162
-128
-112
-178
-167
26
158
192
385
457
-2
-473
-383
-151
-176
-194
-109
-107
-138
-115
-112
-102
-28
32
48
82
152
254
348
380
397
456
485
441
382
322
224
118
58
37
9
-38
-52
-18
11
12
38
80
62
4
16
84
98
67
63
45
-26
-74
-61
-49
-53
-21
13
4
57
211
233
-27
-336
-444
-391
-299
-228
-207
-228
-239
-214
-174
-140
-112
-99
-92
-66
-46
-29
38
100
87
126
288
389
331
248
209
152
61
-44
-136
-156
-130
-154
-202
-186
-154
-133
-44
1
-130
-168
-47
-265
-679
-492
84
251
158
193
207
245
416
465
499
826
1109
1189
1427
1422
637
-167
-268
-178
-272
-284
-230
-273
-288
-234
-236
-294
-339
-340
-330
-392
-466
-409
-309
-315
-306
-165
-30
-9
-50
-87
-67
-30
-81
-161
-174
-184
-232
-233
-158
-105
-149
-182
-107
-35
-43
-39
-15
-32
-59
-70
-74
-74
-91
-86
-10
14
-51
24
219
286
342
446
179
-381
-498
-150
-49
-188
-35
60
-443
-828
-382
170
171
78
177
204
169
238
348
425
478
509
532
556
530
413
265
167
112
69
44
-1
-76
-68
28
34
-71
-122
-89
-45
2
47
60
49
46
43
38
75
123
122
142
128
-146
-497
-502
-293
-226
-240
-200
-175
-171
-141
-127
-132
-120
-124
-137
-102
-51
-15
69
175
206
220
278
274
188
112
37
-56
-100
-107
-129
-157
-179
-175
-126
-85
-66
-26
5
9
40
88
92
56
9
-20
2
49
74
90
108
89
46
48
76
60
62
139
143
45
86
269
418
632
802
490
-98
-298
-154
-102
-142
-128
-106
-124
-122
-53
-43
-154
-121
-5
-259
-567
-291
130
129
86
234
263
194
177
46
-178
-260
-239
-260
-273
-255
-285
-321
-297
-291
-332
-292
-179
-166
-240
-198
-30
26
-94
-171
-120
-78
-89
-97
-80
-56
-51
32
231
306
238
229
-24
-634
-796
-259
113
8
-72
22
95
98
55
45
115
115
38
123
300
284
226
372
507
498
549
622
530
419
410
328
121
-15
-3
32
14
-4
2
-9
-31
-61
-123
-153
-110
-52
4
10
-105
-180
-87
-50
-148
-130
63
223
280
381
625
900
1124
1295
1106
354
-375
-538
-478
-556
-588
-523
-530
-556
-510
-498
-573
-621
-581
-546
-589
-669
-674
-556
-478
-505
-323
-6
-208
-705
-526
119
294
115
112
176
148
137
135
114
152
225
252
267
376
573
726
823
1016
1284
1476
1575
1434
839
178
-21
-42
-285
-491
-468
-418
-402
-376
-400
-460
-498
-549
-618
-660
-677
-681
-639
-533
-376
-223
-119
-45
29
84
106
98
56
9
-3
-15
-76
-144
-153
-122
-111
-125
-122
-115
-123
-92
-43
-90
-152
-80
-6
-66
-104
-19
65
102
122
88
13
-18
35
129
169
126
108
146
192
287
390
423
533
669
424
-76
-236
-68
9
-13
14
32
24
41
60
67
82
75
63
99
128
108
139
230
279
300
346
351
294
240
197
141
60
-44
-117
-130
-141
-148
-125
-163
-256
-237
-139
-133
-190
-191
-159
-161
-202
-250
-238
-136
-77
-170
-227
-128
-125
-216
-69
194
280
341
312
-130
-587
-522
-260
-206
-195
-126
-145
-193
-102
-4
-76
-87
87
72
-32
195
118
-660
-844
90
738
582
476
528
350
150
110
73
24
3
-42
-48
8
1
-26
23
-8
-99
5
148
63
-9
108
124
-22
-58
29
54
30
19
13
91
240
309
361
421
190
-295
-568
-529
-394
-240
-141
-158
-195
-193
-181
-164
-136
-100
-71
-43
13
65
74
96
177
275
318
267
185
154
124
37
-70
-158
-177
-109
-78
-146
-189
-141
-88
-112
-151
-70
32
-7
36
171
-112
-607
-464
98
238
69
86
173
121
83
195
327
443
702
868
508
-52
-194
-55
-40
-94
-56
20
40
-9
-49
-32
-22
-42
-27
6
5
9
55
128
217
273
246
205
199
143
7
-120
-201
-248
-259
-265
-308
-350
-318
-239
-210
-242
-247
-181
-100
-79
-120
-156
-165
-186
-201
-169
-152
-165
-129
-87
-78
-1
85
138
374
569
199
-373
-435
-207
-148
-147
-94
-81
-66
-12
46
109
143
133
153
203
232
256
293
325
359
398
423
421
386
323
237
146
111
112
19
-105
-49
66
-25
-149
-41
91
-20
-181
-102
82
83
-38
-79
-69
-90
-102
-90
-64
-15
-39
-148
-119
70
147
59
-105
-403
-655
-563
-309
-215
-204
-161
-149
-176
-213
-228
-163
-104
-158
-184
-88
-32
-52
13
153
246
309
380
412
378
287
163
44
-64
-124
-91
-113
-220
-142
-48
-363
-636
-304
93
86
68
183
192
144
106
47
70
134
86
38
118
157
74
107
304
407
434
512
339
-143
-367
-180
-25
-39
-74
-111
-95
16
74
26
32
90
13
-85
58
174
-80
-256
78
441
389
226
224
217
58
-115
-139
-124
-199
-220
-156
-197
-282
-236
-165
-171
-157
-80
28
178
339
447
547
699
908
1222
1467
1161
330
-312
-465
-468
-475
-448
-467
-477
-436
-544
-740
-705
-539
-536
-618
-634
-648
-665
-596
-452
-283
-110
38
155
251
288
234
170
175
156
58
27
100
115
74
96
109
62
74
125
80
1
7
33
10
-27
-44
-20
56
112
72
-18
-66
-57
-30
-37
-103
-147
-109
-98
-119
7
194
262
369
446
101
-391
-429
-214
-169
-194
-181
-199
-194
-151
-120
-75
-45
-72
-88
-49
37
147
201
211
276
383
463
489
442
362
311
253
176
135
112
77
69
83
71
46
29
28
49
76
107
159
179
124
65
40
25
38
53
37
51
83
81
152
283
320
402
577
404
-154
-457
-335
-211
-183
-148
-222
-250
-24
-103
-810
-1172
-622
-88
-123
-189
-66
24
113
222
255
265
275
213
117
48
-38
-144
-215
-257
-276
-254
-256
-306
-264
-132
-112
-202
-206
-104
-30
-38
-70
-83
-132
-194
-132
-66
-81
106
202
-347
-716
-80
577
569
516
383
-112
-297
3
139
55
50
47
25
87
135
86
60
153
241
179
110
231
396
434
488
628
660
576
557
519
267
-20
-43
16
-161
-306
-155
-322
-1063
-1305
-746
-601
-943
-651
12
133
-22
-22
-51
-109
-50
9
-46
-90
23
104
-74
-162
126
313
232
341
379
-125
-550
-372
-145
-199
-210
-123
-118
-131
-81
-35
-23
-16
2
38
74
91
128
206
280
335
397
444
434
377
301
214
123
43
4
18
20
-20
-28
4
0
8
79
109
94
177
285
219
81
73
115
69
10
23
84
136
146
213
439
669
843
1060
977
303
-356
-441
-314
-331
-341
-313
-357
-404
-412
-436
-449
-429
-428
-444
-432
-406
-391
-377
-348
-294
-222
-175
-163
-154
-147
-151
-149
-165
-203
-189
-136
-156
-226
-229
-172
-109
-69
-91
-104
11
138
128
83
98
115
163
250
246
182
197
195
142
247
399
400
566
881
635
-86
-335
-52
64
-32
2
75
4
-72
-19
59
51
-5
-61
-93
-35
97
153
109
111
202
290
315
274
206
130
44
-33
-106
-189
-224
-205
-230
-276
-244
-190
-193
-181
-112
-53
-33
-43
-94
-142
-152
-162
-164
-147
-153
-143
-133
-198
-160
74
217
296
490
351
-247
-536
-312
-151
-165
-136
-67
13
-10
-150
-89
7
-364
-688
-268
273
298
240
379
468
518
601
585
488
394
289
224
180
41
-60
22
67
-64
-134
-47
34
55
25
-48
-4
182
225
61
-26
22
26
-7
-3
-13
-20
-11
-70
-101
-53
-274
-827
-1141
-981
-714
-499
-242
-55
-50
-84
-34
28
34
33
73
135
168
163
192
285
395
535
724
877
914
837
683
496
274
40
-106
-152
-194
-256
-285
-279
-267
-212
-127
-169
-274
-167
-121
-513
-724
-242
186
65
-52
40
6
-76
-11
31
-43
-134
-361
-884
-1445
-1631
-1358
-829
-297
22
110
159
259
292
240
244
310
313
273
283
348
456
588
702
837
1020
1136
1124
1053
926
690
420
220
64
-105
-250
-332
-378
-397
-378
-356
-346
-310
-260
-227
-216
-239
-262
-209
-132
-154
-245
-293
-287
-260
-196
-111
-48
15
146
366
594
755
969
1261
1154
365
-436
-581
-402
-396
-435
-371
-341
-341
-282
-260
-317
-357
-387
-454
-483
-435
-399
-420
-420
-341
-231
-128
-8
103
172
279
437
572
753
991
1160
1400
1760
1686
961
202
-214
-452
-523
-425
-374
-423
-476
-531
-577
-603
-660
-722
-707
-641
-578
-499
-374
-224
-96
-20
12
18
3
-30
-45
-12
31
14
-64
-101
-29
41
-13
-91
-65
-16
-43
-87
-78
-48
-39
-54
-64
-27
37
51
23
28
80
114
89
94
168
136
35
150
177
-306
-648
-220
292
275
172
281
323
243
217
213
181
196
222
202
209
204
149
234
429
500
558
592
246
-232
-238
42
88
-33
-26
67
54
-35
-36
33
66
-6
-144
-34
181
-282
-935
-373
542
49
-763
-289
397
242
31
130
74
-87
-158
-233
-251
-157
-128
-189
-176
-114
-115
-105
-7
63
8
-62
-23
40
-14
-97
-105
-110
-39
90
-32
-102
329
388
-452
-820
-207
57
-252
-216
47
49
-12
14
38
78
115
113
107
92
97
147
153
155
276
359
295
325
474
459
324
283
245
110
-6
-75
-150
-172
-124
-113
-160
-182
-180
-206
-234
-225
-189
-137
-98
-123
-196
-224
-176
-136
-151
-153
-104
-76
-107
-104
7
92
89
225
406
132
-397
-458
-204
-211
-301
-196
-134
-190
-191
-159
-137
-66
-19
-53
-50
35
126
217
318
382
408
450
489
464
372
274
209
141
58
13
8
-7
-23
-16
-16
-13
12
23
40
99
115
77
84
74
-14
-32
22
-38
-143
-108
-41
-63
-9
139
170
199
382
308
-206
-504
-308
-183
-288
-246
-118
-168
-249
-201
-152
-173
-175
-91
32
58
-32
-39
112
235
260
310
357
290
174
90
-5
-118
-195
-218
-189
-147
-165
-210
-192
-140
-120
-136
-136
-24
109
42
-25
93
-141
-779
-806
-116
215
72
107
195
106
176
401
504
587
566
150
-269
-204
9
7
-27
-17
-45
-6
82
55
-1
43
86
88
117
133
137
239
388
464
486
487
452
349
171
66
15
-320
-741
-621
-206
-165
-328
-291
-201
-219
-242
-213
-140
-42
2
-27
-62
-82
-117
-137
-138
-176
-190
-122
-138
-218
-84
110
117
287
581
268
-422
-517
-150
-75
-231
-204
-58
-75
-162
-37
8
-388
-620
-191
228
200
185
307
329
372
500
518
468
466
402
262
178
140
83
35
-5
-53
-71
-49
1
35
-27
-104
-30
89
64
-4
3
7
-45
-94
-85
-49
-78
-125
-81
-48
-94
-62
63
166
194
-30
-478
-653
-418
-229
-230
-194
-125
-122
-129
-100
-71
-103
-162
-116
-14
-26
-50
62
163
178
239
318
316
287
249
180
128
58
-80
-163
-117
-90
-137
-124
-22
45
43
47
92
138
162
186
201
172
116
83
74
73
70
64
84
98
73
120
245
338
565
885
673
-60
-394
-164
-68
-214
-209
-85
-81
-184
-241
-182
-77
-50
-95
-111
-68
1
85
161
179
181
236
275
209
80
-39
-144
-218
-226
-209
-257
-321
-271
-199
-260
-322
-265
-240
-259
-161
-61
-129
-227
-204
-166
-199
-214
-174
-146
-141
-144
-118
37
219
251
272
283
-39
-501
-500
-141
-101
-436
-511
-158
86
30
4
62
33
3
87
171
161
172
292
401
409
433
515
516
389
230
118
54
24
-1
-72
-154
-136
-89
-147
-180
-77
-18
-51
-7
85
101
71
