# session 57
131
162
175
129
41
-16
-20
-7
1
12
47
111
167
198
242
239
156
170
257
152
33
158
164
-27
59
239
126
133
310
103
-66
493
1117
1149
1002
742
152
-27
462
372
-728
-1551
-1246
-267
576
756
471
349
314
-170
-857
-1058
-771
-447
-207
105
497
764
827
901
1030
936
655
489
357
128
10
-21
-115
-96
-62
-267
-355
-236
-401
-559
-151
350
444
224
-264
-666
-480
-127
-204
-349
-209
-170
-355
-361
-233
-348
-558
-537
-434
-438
-438
-388
-332
-252
-178
-91
84
262
422
594
441
-142
-501
-344
-231
-358
-352
-222
-229
-287
-254
-213
-217
-218
-204
-170
-125
-114
-112
-55
29
88
143
203
248
246
164
26
-85
-151
-210
-250
-253
-246
-231
-186
-149
-160
-183
-165
-134
-132
-133
-107
-96
-111
-97
-75
-75
-27
69
89
57
74
62
2
32
74
3
-5
86
56
24
178
273
207
205
327
541
662
317
-169
-44
404
384
70
-4
57
34
12
22
12
35
84
73
53
122
210
234
253
337
450
499
481
487
502
395
207
96
43
-32
-91
-119
-147
-153
-137
-134
-143
-163
-186
-170
-133
-137
-162
-152
-132
-142
-138
-73
4
34
22
-2
-22
-27
-21
-9
-4
-27
-50
-19
4
-24
23
149
258
502
812
645
30
-290
-175
-107
-161
-143
-112
-129
-120
-94
-93
-95
-85
-66
-33
4
23
36
82
157
201
210
230
253
234
180
117
50
-19
-84
-135
-169
-184
-172
-152
-152
-142
-98
-61
12
231
497
662
853
1091
982
420
-94
-285
-388
-509
-520
-463
-463
-501
-539
-575
-596
-633
-719
-779
-770
-760
-742
-651
-513
-357
-192
-79
-24
48
114
101
46
4
-29
-26
18
30
11
74
217
298
282
249
232
212
192
168
134
99
70
42
27
19
3
-11
-16
-17
-17
-15
-17
-22
-20
-14
-6
1
1
-1
1
-7
-33
-33
24
89
107
95
84
62
24
-12
-41
-68
-88
-98
-111
-116
-93
-102
-147
-65
131
252
402
586
348
-240
-456
-263
-185
-198
-78
27
31
52
83
84
169
387
551
509
399
390
427
426
433
473
526
576
562
465
389
348
234
79
-14
-72
-108
-103
-131
-177
-146
-121
-182
-187
-103
-110
-199
-203
-166
-182
-147
-35
7
-27
-28
-26
-88
-146
-133
-108
-128
-158
-161
-159
-157
-144
-163
-175
-49
146
281
377
290
-119
-454
-380
-217
-231
-256
-221
-212
-211
-203
-210
-200
-172
-161
-143
-97
-56
-18
40
104
161
228
289
303
266
211
146
48
-68
-143
-170
-200
-230
-213
-180
-177
-178
-165
-158
-149
-123
-105
-130
-175
-173
-111
-48
-20
-4
11
13
-2
-38
-75
-90
-85
-40
47
107
135
176
179
157
217
294
367
589
698
306
-191
-239
-79
-76
-104
-70
-70
-82
-57
-48
-57
-40
-5
21
35
50
82
130
178
229
284
328
358
356
297
222
164
71
-53
-121
-125
-127
-141
-138
-118
-111
-126
-130
-97
-64
-82
-118
-103
-42
14
42
47
37
24
18
23
20
-3
-22
-16
-7
-8
-15
-24
-12
-7
-37
-10
97
166
241
326
140
-268
-407
-240
-145
-160
-137
-122
-140
-132
-110
-97
-85
-92
-101
-54
21
52
65
111
157
204
296
356
326
305
284
169
49
-2
-64
-127
-144
-168
-180
-137
-127
-164
-165
-138
-122
-100
-103
-142
-129
-28
57
51
6
1
42
43
-47
-115
-64
-13
-59
-102
-81
-45
-19
-46
-96
-3
191
272
298
291
12
-355
-342
-118
-95
-145
-71
-11
-45
-78
-71
-53
-44
-46
-25
23
62
85
125
186
256
328
386
420
434
403
294
150
43
-17
-58
-102
-150
-160
-126
-117
-145
-139
-104
-89
-80
-56
-41
-66
-125
-140
-55
47
79
77
80
64
23
-17
-43
-64
-71
-61
-71
-97
-79
-59
-95
-58
74
174
338
539
350
-170
-384
-224
-145
-189
-173
-144
-150
-142
-122
-105
-86
-76
-66
-32
1
26
77
134
161
195
265
307
288
262
248
193
77
-25
-48
-33
-52
-91
-97
-87
-98
-102
-79
-71
-78
-69
-71
-93
-82
-39
-4
33
67
56
23
19
15
-20
-46
-45
-52
-60
-50
-54
-54
-27
-41
-55
49
161
201
287
266
-79
-382
-295
-111
-87
-87
-55
-61
-69
-53
-42
-38
-37
-31
-16
-17
-10
55
130
155
182
261
331
347
340
306
210
92
10
-50
-112
-153
-164
-161
-147
-123
-96
-74
-70
-73
-66
-53
-55
-69
-89
-98
-52
36
74
32
5
16
-16
-75
-70
-50
-83
-90
-54
-80
-103
-29
-14
-91
-25
165
296
398
323
-115
-469
-329
-112
-171
-229
-127
-69
-104
-112
-84
-57
-39
-49
-51
18
84
69
74
188
339
431
459
483
517
477
335
189
93
11
-52
-87
-128
-159
-151
-143
-156
-151
-127
-106
-83
-70
-78
-75
-67
-88
-110
-69
14
64
63
38
12
-6
-13
-26
-57
-87
-83
-58
-51
-45
-37
-70
-55
89
207
261
383
322
-111
-407
-261
-114
-178
-195
-137
-129
-126
-115
-128
-111
-59
-39
-31
11
64
104
142
182
224
280
339
367
342
277
201
118
20
-69
-118
-141
-165
-175
-162
-151
-152
-154
-151
-145
-145
-149
-133
-108
-125
-139
-68
26
38
-1
-30
-50
-56
-45
-60
-99
-114
-93
-76
-81
-78
-63
-71
-55
49
163
288
489
512
151
-193
-163
-21
-14
-20
18
25
12
19
29
22
11
16
35
52
81
123
160
203
267
324
361
381
370
317
241
153
61
-14
-64
-102
-127
-132
-123
-123
-139
-146
-126
-98
-87
-99
-112
-114
-131
-145
-91
-8
1
-26
-20
-37
-88
-94
-68
-87
-128
-140
-122
-85
-67
-84
-75
-57
-64
15
181
275
338
351
57
-358
-400
-184
-114
-143
-117
-112
-145
-134
-90
-82
-107
-106
-74
-41
-11
6
23
91
189
254
313
396
427
369
283
208
116
-8
-104
-140
-171
-219
-216
-171
-169
-208
-215
-171
-138
-167
-191
-140
-88
-122
-175
-138
-26
57
67
51
38
20
3
-10
-21
-26
-20
2
17
6
2
-2
-28
28
188
306
426
580
428
-44
-273
-118
-3
-38
-36
-5
-14
-25
-18
-14
-4
16
29
28
38
81
128
155
200
279
348
382
391
374
328
252
153
60
-14
-79
-120
-123
-120
-129
-141
-140
-118
-90
-74
-48
-3
19
3
-28
-47
-29
18
36
5
-28
-46
-79
-128
-167
-180
-177
-173
-165
-162
-168
-159
-163
-204
-169
-33
76
222
415
275
-216
-466
-323
-204
-217
-209
-185
-163
-123
-108
-118
-103
-74
-55
-38
-16
26
84
128
165
214
260
294
317
314
282
232
160
69
-6
-34
-36
-57
-84
-87
-84
-98
-107
-93
-74
-56
-39
-35
-52
-61
-44
-35
-37
2
77
106
77
43
13
-18
-40
-51
-60
-72
-75
-49
-35
-64
-65
-45
-66
-19
122
198
282
415
233
-240
-409
-192
-50
-79
-88
-71
-68
-40
-15
-37
-56
-26
19
42
65
107
139
166
253
381
449
451
455
469
454
368
220
88
16
-37
-76
-77
-85
-118
-124
-106
-120
-149
-150
-148
-144
-112
-98
-138
-147
-111
-126
-153
-81
13
18
-16
-43
-79
-96
-98
-138
-197
-219
-205
-202
-211
-191
-179
-213
-149
55
219
366
509
297
-229
-446
-263
-151
-185
-172
-143
-139
-112
-84
-76
-53
-26
-18
1
42
81
125
194
264
311
355
404
424
396
337
257
162
76
13
-34
-64
-75
-77
-75
-62
-47
-41
-43
-39
-27
-19
-19
-28
-42
-46
-46
-70
-89
-33
58
73
24
8
17
-5
-37
-39
-40
-68
-84
-78
-91
-77
-7
-23
-119
-57
110
170
247
342
114
-286
-354
-174
-103
-110
-93
-91
-85
-67
-75
-89
-80
-64
-42
-15
1
21
63
119
177
231
275
314
341
330
280
204
114
35
-28
-79
-109
-115
-122
-128
-122
-114
-107
-102
-103
-96
-82
-92
-110
-97
-73
-83
-112
-113
-71
-13
25
27
8
-8
-7
-9
-44
-93
-113
-102
-83
-78
-86
-69
-41
-62
-57
41
123
220
406
356
-83
-392
-285
-138
-143
-130
-84
-85
-99
-99
-94
-75
-55
-52
-45
-18
9
42
95
159
216
267
331
401
434
404
325
224
128
53
-5
-46
-73
-100
-120
-111
-85
-55
-17
28
108
285
557
808
1000
1271
1545
1340
532
-223
-412
-317
-314
-347
-335
-381
-498
-555
-531
-551
-652
-722
-718
-725
-760
-743
-643
-506
-362
-198
-14
118
157
176
196
145
54
34
60
44
0
-26
-13
36
68
38
1
21
63
64
32
27
44
36
26
46
48
11
6
43
62
60
61
51
33
43
55
40
32
45
42
27
24
18
2
1
4
-5
-16
-17
-16
-17
-15
-10
-16
-36
-28
34
100
117
91
47
10
8
20
-8
-61
-71
-55
-58
-35
-12
-60
-56
92
224
347
529
412
-109
-427
-292
-159
-204
-213
-180
-185
-175
-142
-144
-154
-115
-53
-22
-9
27
73
105
138
186
235
268
282
276
247
201
140
67
-8
-69
-107
-134
-158
-164
-158
-163
-164
-143
-120
-101
-79
-58
-28
26
75
134
305
580
782
898
1139
1416
1291
698
109
-174
-282
-356
-399
-433
-468
-480
-493
-529
-559
-579
-612
-636
-638
-648
-654
-604
-486
-332
-166
-4
129
209
230
203
154
110
80
55
33
25
32
34
29
39
77
153
239
302
421
649
836
963
1235
1467
1201
562
70
-158
-286
-340
-328
-329
-355
-371
-387
-422
-460
-488
-530
-593
-652
-690
-705
-685
-624
-518
-361
-176
-5
161
317
395
367
286
199
132
91
58
28
6
-17
-31
-27
-36
-51
-36
-26
-34
-37
-76
-112
6
204
289
272
116
-241
-468
-316
-104
-87
-106
-81
-70
-46
-19
-48
-82
-54
0
36
62
88
118
159
242
380
500
518
465
415
375
291
132
-39
-106
-86
-107
-168
-168
-124
-122
-153
-158
-118
-92
-125
-129
-65
-50
-97
-98
-80
-93
-101
-95
-59
15
24
-25
-23
-27
-87
-83
-19
-26
-72
-55
13
53
13
-2
150
374
526
565
347
-92
-308
-162
-37
-82
-97
-56
-58
-78
-67
-50
-44
-35
-24
-16
1
37
93
164
232
290
346
386
389
355
294
211
116
24
-59
-117
-143
-163
-185
-192
-190
-189
-168
-141
-136
-131
-107
-92
-90
-92
-121
-130
-71
-25
-19
66
241
410
593
772
880
1055
1379
1546
1272
658
27
-353
-462
-489
-516
-499
-475
-492
-519
-542
-575
-615
-658
-708
-759
-808
-839
-832
-778
-672
-524
-358
-192
-49
38
68
73
71
49
16
8
19
16
3
12
36
45
45
50
50
49
60
67
59
55
59
59
56
62
76
77
62
57
70
72
60
56
50
28
22
50
73
83
117
147
125
88
76
62
48
57
68
74
90
97
97
100
78
84
174
267
368
500
396
-25
-289
-170
-29
-45
-51
-24
-38
-50
-37
-39
-47
-39
-26
-12
12
34
56
95
145
201
265
316
338
340
311
253
191
117
20
-50
-72
-101
-151
-184
-191
-187
-183
-186
-186
-167
-148
-148
-151
-132
-109
-122
-159
-159
-106
-55
-30
-4
9
-20
-55
-55
-51
-53
-46
-46
-39
-9
-11
-35
-15
-22
-65
38
241
352
472
542
218
-256
-322
-145
-111
-110
-59
-86
-137
-108
-70
-75
-75
-46
-27
-32
-19
22
62
120
208
282
340
394
400
349
291
213
81
-48
-128
-185
-218
-222
-239
-263
-231
-181
-186
-200
-172
-136
-116
-99
-98
-113
-118
-125
-141
-125
-69
-14
17
16
-18
-51
-63
-74
-83
-86
-77
-55
-56
-76
-43
-13
-58
-33
108
236
477
790
617
-22
-331
-166
-76
-137
-106
-59
-91
-97
-56
-48
-65
-62
-45
-22
10
39
56
79
130
189
227
257
300
313
268
206
142
63
-8
-52
-87
-106
-100
-95
-104
-110
-109
-113
-122
-116
-98
-102
-126
-128
-117
-117
-84
-5
39
27
24
23
-15
-51
-61
-73
-83
-79
-73
-58
-47
-56
-45
-26
-53
-37
77
177
306
479
359
-93
-343
-213
-87
-105
-117
-108
-108
-84
-64
-77
-80
-56
-44
-38
-3
50
91
137
212
293
351
392
419
410
359
287
203
105
17
-42
-83
-116
-139
-144
-133
-108
-85
-93
-132
-155
-135
-105
-94
-91
-93
-87
-51
22
136
311
543
759
862
912
1115
1391
1281
655
9
-266
-320
-390
-462
-465
-433
-445
-502
-539
-547
-571
-600
-600
-607
-660
-712
-716
-692
-632
-491
-298
-122
29
156
226
236
202
131
65
37
16
-5
5
22
11
1
21
54
68
52
47
65
65
53
51
36
18
15
-2
-10
17
12
-27
-29
-15
-22
-18
-3
-5
-8
-14
-53
-80
-36
52
118
131
91
41
29
31
6
-24
-40
-42
-22
-12
-28
-23
-28
-51
50
234
335
438
480
153
-292
-333
-142
-120
-169
-139
-123
-138
-127
-115
-122
-115
-94
-81
-67
-35
-2
21
58
119
188
247
298
334
338
301
239
176
118
58
-6
-62
-92
-94
-89
-92
-88
-72
-61
-56
-39
-12
5
7
4
-2
-11
-10
-2
-2
19
78
128
149
199
311
452
586
655
598
469
366
333
438
628
571
160
-193
-242
-217
-257
-260
-229
-238
-257
-254
-259
-280
-298
-302
-301
-303
-306
-295
-272
-253
-242
-223
-186
-142
-102
-71
-50
-37
-30
-18
-15
-50
-77
-17
74
163
331
397
57
-465
-725
-775
-796
-653
-336
-107
-51
-43
-33
-34
-16
45
