# session 55
28
13
131
209
268
598
933
646
-27
-289
-96
36
-10
-30
-11
-70
-153
-128
-68
-89
-104
-47
-18
-43
0
112
169
189
283
377
368
328
244
4
-235
-256
-180
-203
-265
-259
-231
-244
-251
-225
-213
-198
-143
-119
-138
-86
3
8
2
42
-9
-122
-115
-62
-122
-177
-104
-30
-43
-72
-98
-74
86
227
259
375
384
-58
-491
-394
-144
-130
-163
-145
-154
-115
-15
15
-23
-19
37
63
39
62
197
327
343
365
482
537
459
398
369
253
87
-8
-16
-9
-40
-72
-65
-53
-35
-1
-16
-68
-54
7
54
127
211
193
98
33
-13
-58
-58
-65
-131
-166
-163
-197
-190
-108
-62
33
255
426
562
712
486
-135
-487
-436
-407
-418
-361
-373
-420
-393
-356
-308
-247
-270
-303
-252
-247
-312
-277
-184
-177
-141
14
101
42
18
67
46
-34
-60
-54
-69
-83
-98
-97
-18
104
187
232
238
203
198
229
224
238
323
323
216
219
289
213
134
197
176
57
80
115
30
92
252
263
438
801
614
-62
-316
-121
-68
-120
-66
-33
-75
-123
-159
-161
-148
-170
-178
-142
-110
-68
17
115
212
298
336
357
367
275
108
22
1
-82
-195
-235
-210
-192
-205
-198
-160
-163
-221
-232
-175
-154
-173
-127
-46
-18
-44
-128
-166
-76
-181
-563
-606
-190
42
-7
35
166
281
423
647
921
833
148
-418
-306
-59
-82
-61
45
-10
-101
-58
-31
-93
-97
-48
-72
-107
-61
-21
-34
-35
31
160
242
204
188
227
118
-96
-155
-98
-129
-243
-334
-343
-274
-254
-365
-476
-442
-340
-331
-405
-408
-296
-210
-219
-224
-187
-200
-278
-315
-299
-313
-301
-241
-311
-386
-145
124
139
309
496
22
-613
-514
-149
-208
-344
-226
-162
-256
-241
-93
22
169
456
784
1100
1429
1618
1535
1368
1323
1316
1226
1106
998
842
650
492
349
209
148
147
101
19
-28
-38
-35
-32
-43
-66
-101
-137
-158
-170
-148
-89
-89
-170
-208
-202
-245
-300
-290
-234
-204
-272
-354
-281
-148
-112
-116
-250
-610
-820
-636
-422
-415
-417
-344
-301
-291
-266
-252
-272
-279
-230
-168
-153
-159
-101
28
132
171
218
277
260
188
124
22
-98
-149
-194
-242
-210
-216
-240
-95
-163
-687
-841
-261
136
2
-66
41
65
75
106
71
57
100
97
83
122
124
99
124
102
71
210
315
307
606
957
567
-161
-281
-30
-8
-73
-24
13
-7
-31
-25
7
26
33
65
96
132
202
230
215
301
447
455
350
265
175
42
-85
-177
-201
-170
-186
-224
-175
-137
-208
-241
-180
-184
-251
-242
-186
-169
-144
-53
30
2
-91
-123
-83
-61
-84
-84
-30
1
-18
58
257
391
427
417
115
-521
-855
-525
-85
-8
-74
-70
-62
-49
-3
-4
-50
-19
67
83
76
161
261
281
311
387
430
445
432
329
211
174
112
-18
-88
-95
-106
-86
-38
-23
-35
-61
-101
-101
-71
-105
-173
-148
-41
14
-44
-139
-178
-183
-194
-191
-176
-153
-109
-101
-82
77
212
217
357
475
102
-399
-404
-188
-171
-183
-118
-104
-99
-55
-60
-102
-100
-73
-45
-1
31
51
112
208
272
293
329
380
376
315
244
160
55
-42
-99
-100
-76
-81
-89
-66
-59
-71
-50
-27
-26
0
26
38
116
200
144
45
27
13
-16
-24
-36
-13
8
-61
-61
73
175
365
612
358
-274
-421
-143
-197
-435
-353
-187
-206
-208
-169
-207
-211
-157
-154
-147
-79
-16
56
161
224
256
309
327
270
181
63
-55
-108
-150
-214
-195
-145
-203
-249
-176
-138
-177
-185
-178
-177
-136
-70
-33
-60
-58
39
-54
-381
-443
-281
-353
-348
10
175
55
157
353
363
526
769
428
-246
-349
-15
37
-104
-24
126
73
-61
-54
74
125
41
45
213
275
169
167
320
454
529
573
576
553
505
378
156
26
71
-47
-396
-445
-139
-34
-167
-198
-156
-144
-117
-115
-152
-151
-102
-42
-12
-48
-107
-111
-87
-96
-113
-95
-65
-57
-60
-39
77
355
557
212
-669
-1424
-1459
-811
-95
151
79
40
52
152
173
-428
-1288
-1181
-162
488
468
446
551
526
456
480
532
558
561
506
380
255
185
125
66
70
105
89
58
43
11
-2
37
47
-18
-62
-21
20
10
21
41
-16
-93
-84
-27
-8
-31
-37
-15
-17
12
144
281
339
302
44
-324
-419
-245
-148
-166
-157
-132
-121
-116
-114
-90
-75
-112
-132
-89
-22
57
95
93
214
347
309
430
636
91
-1024
-1576
-1414
-989
-361
125
73
-99
55
165
-309
-1126
-1378
-723
44
239
184
277
351
282
235
230
171
135
189
220
208
240
246
198
258
396
482
639
755
442
-72
-201
-34
34
29
60
77
87
101
101
130
180
163
108
154
245
198
171
350
333
-32
-52
420
613
365
149
39
-54
-51
-45
-147
-231
-191
-133
-159
-196
-173
-169
-189
-145
-110
-142
-104
-19
-31
-30
28
-14
-14
83
-179
-809
-1271
-1424
-1160
-342
346
513
770
788
-321
-1517
-1269
-203
342
364
347
320
249
213
198
173
172
198
203
176
173
214
248
276
341
382
353
364
453
458
329
200
115
44
22
21
-33
-95
-79
-34
-59
-115
-103
-63
-59
-47
-33
-13
82
61
-264
-676
-983
-1032
-586
-27
58
-51
15
45
67
217
281
344
528
348
-247
-483
-207
-25
-89
-130
-86
-51
-67
-50
50
-4
-281
-363
-101
135
179
147
191
397
485
407
634
643
-450
-1432
-1083
-678
-890
-492
378
503
165
83
73
15
78
146
105
81
139
212
238
200
152
144
134
104
110
106
51
78
148
72
60
307
471
491
674
675
152
-275
-191
-56
-89
-86
-107
-168
-71
-74
-539
-974
-719
-126
110
42
56
183
301
397
462
465
438
410
343
231
137
58
-47
-90
-42
-66
-139
-95
-96
-195
-38
114
-466
-1327
-1406
-881
-484
-162
208
288
127
132
176
69
189
321
-338
-1156
-830
174
668
576
330
246
336
208
-73
-42
146
153
92
62
53
75
51
22
92
127
70
112
215
206
175
232
277
275
309
357
327
241
205
178
49
-64
-54
-75
-112
-53
-94
-169
-58
-330
-1136
-1257
-411
100
-30
-26
101
41
9
37
-44
-78
0
-16
-82
-38
-20
-69
24
190
281
503
742
423
-275
-451
-88
-181
-993
-1483
-990
-211
88
25
-18
85
138
-24
26
377
23
-977
-960
156
755
627
606
631
476
368
281
113
47
97
69
-6
-3
12
-37
-55
-5
9
-14
15
58
54
52
73
75
46
3
1
63
80
36
64
121
120
182
332
439
525
530
157
-510
-822
-505
-107
-53
-119
-112
-122
-138
-96
-36
-17
-48
-61
-12
34
50
99
188
259
275
259
252
230
139
22
-54
-114
-155
-133
-125
-179
-180
-137
-173
-186
-100
-62
-37
15
-50
13
242
-229
-1273
-1270
-157
416
200
116
214
202
162
117
108
196
314
593
952
763
52
-302
-140
-48
-112
-123
-139
-146
-76
-67
-112
-47
33
-26
-89
-26
62
87
91
115
145
194
237
181
114
148
60
-138
-67
-57
-586
-889
-372
82
-57
-174
-48
4
-24
-27
-36
-16
41
52
4
-50
-93
-115
-100
-70
-64
-62
-62
-95
-54
120
212
264
562
702
159
-444
-392
-134
-135
-118
-49
-104
-14
72
-558
-1431
-1240
-243
266
197
176
241
307
450
520
449
469
589
545
333
190
157
101
13
-21
-8
-19
-60
-71
-58
-79
-77
-7
16
-20
25
109
105
70
51
32
56
46
-38
2
51
-245
-655
-727
-503
-106
370
552
246
-174
-287
-131
-25
-57
-64
-22
-28
-43
-21
-19
-35
-6
26
9
1
50
112
168
222
255
278
296
282
243
166
22
-86
-87
-112
-185
-145
-45
-65
-127
-87
-18
0
14
31
18
16
57
69
18
-15
-8
-35
-70
-54
-42
-57
-48
-55
-70
14
115
202
452
609
231
-294
-346
-146
-105
-124
-95
-109
-129
-95
-92
-107
-29
13
-69
-35
53
-41
72
334
-219
-1081
-662
431
578
193
190
221
51
-7
14
-21
-18
19
24
20
9
-3
23
55
52
57
85
84
55
37
26
6
-8
-22
-73
-107
-47
-8
-59
-3
142
144
178
339
146
-383
-540
-297
-187
-214
-179
-166
-174
-133
-107
-97
-72
-77
-72
5
58
39
72
205
307
303
297
351
352
245
118
7
-103
-152
-135
-152
-196
-173
-128
-175
-238
-186
-142
-203
-171
-14
21
-60
-64
-30
-52
-95
-106
-62
-13
-38
-73
-53
-1
98
202
257
361
382
45
-353
-347
-132
-72
-93
-65
-42
-38
-6
32
51
74
103
113
126
165
219
287
355
392
403
399
375
332
250
133
45
-12
-73
-113
-118
-109
-99
-119
-149
-123
-70
-37
-2
-4
-7
164
444
590
677
931
1262
1370
1063
453
-108
-399
-411
-268
-402
-1095
-1721
-1486
-731
-353
-461
-570
-538
-534
-564
-548
-490
-386
-223
-48
95
212
288
296
259
218
184
143
87
54
71
83
52
42
62
38
13
59
85
39
23
47
43
26
0
-44
-24
62
86
37
37
95
95
39
34
67
45
6
25
39
11
15
12
-46
-8
139
201
254
344
154
-210
-274
-158
-71
74
-216
-1144
-1473
-606
166
117
-20
83
104
79
139
180
216
322
412
448
485
507
476
423
332
171
36
6
-3
-51
-92
-115
-138
-145
-137
-132
-132
-142
-156
-147
-99
-40
5
24
-53
-202
-184
-3
-9
-171
-128
-24
-134
-143
117
262
293
448
352
-163
-426
-178
3
-94
-116
6
17
-87
-78
26
12
-42
41
101
29
59
226
291
282
377
475
430
354
332
225
17
-84
-57
-76
-144
-197
-236
-189
-108
-157
-203
-104
-89
-212
-187
-13
63
22
-51
-116
-94
-18
-47
-151
-136
-17
-21
-149
-97
141
215
176
277
199
-239
-461
-236
-79
-161
-175
-87
-61
-75
-53
-7
28
34
28
33
57
105
159
196
254
353
411
372
296
221
112
6
-39
-81
-153
-184
-166
-176
-197
-170
-127
-117
-101
-69
-96
-161
-138
-36
0
-53
-109
-136
-135
-107
-91
-109
-92
-21
-6
-21
108
290
361
458
510
188
-250
-296
-136
-131
-168
-131
-120
-133
-111
-98
-105
-90
-54
-38
-34
-7
36
82
149
209
208
192
207
191
118
54
-10
-109
-171
-142
-98
-103
-124
-132
-134
-129
-114
-98
-97
-102
-72
0
65
76
48
22
7
-8
-7
4
-2
2
11
-19
-7
105
264
549
871
740
147
-220
-147
-63
-99
-97
-82
-91
-71
-56
-77
-79
-50
-31
-23
-1
47
97
119
151
217
243
219
233
231
128
29
-3
-56
-108
-91
-92
-148
-151
-98
-101
-151
-154
-102
-60
-69
-101
-93
-20
37
-3
-82
-92
-75
-107
-133
-116
-102
-90
-70
-59
-21
61
167
304
320
36
-285
-276
-91
-32
-46
-19
-3
-15
-19
-16
-21
-28
-27
-17
-5
10
44
91
133
163
187
217
241
222
168
112
23
-78
-107
-117
-155
-115
-110
-316
-439
-252
-89
-126
-140
-111
-136
-121
-47
-2
15
-2
-66
-85
-48
-41
-34
-1
-1
-2
20
43
121
225
290
393
377
-18
-421
-354
-95
-44
-83
-65
-51
-35
-4
-11
-34
6
74
75
41
88
194
256
296
367
432
463
458
390
266
135
24
-41
-65
-92
-125
-136
-125
-109
-99
-107
-128
-111
-59
-70
-136
-114
1
41
-34
-90
-78
-82
-131
-149
-129
-112
-83
-62
-55
87
364
555
631
595
261
-182
-286
-155
-130
-157
-129
-129
-151
-143
-138
-146
-143
-132
-123
-125
-122
-87
-48
-33
-2
55
80
71
63
40
-1
-38
-96
-166
-180
-158
-156
-146
-121
-130
-147
-131
-103
-79
-63
-74
-76
-27
34
57
35
-15
-42
-21
-6
-12
5
47
66
46
59
146
210
291
547
686
317
-174
-239
-80
-62
-108
-97
-73
-53
-32
-25
-36
-51
-37
11
39
47
91
161
225
289
335
338
320
289
221
134
65
16
-27
-59
-72
-72
-74
-77
-68
-52
-57
-82
-92
-75
-67
-75
-61
-23
10
18
-12
-62
-83
-77
-74
-62
-44
-45
-52
-25
79
231
339
446
542
321
-189
-423
-262
-163
-224
-211
-145
-144
-166
-161
-148
-148
-165
-174
-163
-156
-165
-159
-118
-68
-17
58
108
77
50
85
55
-76
-145
-108
-108
-167
-171
-121
-125
-164
-145
-103
-108
-107
-83
-100
-98
-3
83
55
-25
-58
-25
9
-21
-59
-17
56
38
-42
28
257
389
409
439
255
-164
-316
-112
6
-37
-29
8
10
28
43
29
32
54
64
84
127
170
221
293
363
420
470
483
437
363
272
164
73
18
-24
-51
-62
-82
-97
-79
-58
-69
-88
-73
-34
-37
-101
-125
-40
57
64
13
-24
-35
-33
-33
-56
-88
-62
0
-12
-7
178
372
430
515
500
106
-306
-315
-190
-207
-221
-171
-142
-122
-114
-134
-134
-116
-129
-141
-116
-84
-72
-58
-30
1
32
63
80
66
26
-22
-78
-139
-177
-186
-201
-221
-210
-187
-183
-176
-168
-178
-180
-156
-133
-119
-103
-91
-63
-19
-9
-45
-75
-89
-97
-83
-79
-107
-94
-52
-63
-43
54
144
328
551
385
-111
-317
-171
-103
-143
-123
-98
-107
-88
-53
-37
-23
-3
20
46
76
114
157
203
259
321
357
357
337
300
231
147
87
49
10
-13
-5
3
-5
-13
-7
8
10
-1
19
59
69
