# session 40
32
-76
31
161
240
471
601
176
-389
-445
-235
-196
-212
-173
-178
-193
-154
-99
-60
-72
-127
-142
-104
-83
-81
-51
13
108
203
229
205
209
187
54
-103
-186
-248
-321
-345
-316
-305
-332
-346
-326
-285
-246
-233
-221
-151
-69
-62
-99
-115
-133
-135
-65
0
-8
-15
-29
-35
126
342
387
468
576
232
-320
-340
-4
80
-7
0
34
19
3
38
97
75
0
11
73
108
168
248
296
366
476
533
507
465
411
283
133
79
58
-47
-139
-135
-148
-202
-190
-130
-108
-130
-170
-168
-79
-5
-52
-138
-171
-166
-123
-75
-106
-131
-63
-86
-211
-111
135
187
238
401
183
-361
-515
-274
-178
-245
-240
-176
-109
-77
-115
-173
-170
-73
9
-37
-7
149
23
-247
-18
471
565
451
476
451
290
158
85
34
-1
-29
-31
-14
-32
-85
-99
-32
31
12
2
82
148
124
74
35
0
-6
8
4
-13
-37
-85
-53
125
211
153
315
518
153
-443
-492
-231
-200
-260
-248
-281
-313
-266
-228
-212
-165
-131
-122
-74
4
37
31
63
146
201
197
193
177
92
-7
-49
-101
-206
-288
-283
-227
-206
-247
-261
-209
-157
-120
-74
-36
17
95
122
115
151
176
151
147
152
132
156
185
145
170
276
337
533
837
650
-20
-360
-202
-65
-79
-101
-122
-113
-71
-81
-113
-96
-89
-119
-79
29
49
5
78
170
127
195
384
198
-236
-240
42
50
-93
-140
-201
-257
-224
-213
-237
-191
-130
-133
-129
-66
-6
5
-20
-74
-131
-161
-160
-125
-86
-67
12
155
240
307
484
795
1152
1151
475
-294
-456
-291
-262
-287
-253
-221
-268
-411
-445
-252
-125
-220
-299
-269
-273
-313
-261
-160
-170
-183
-6
165
149
169
255
182
83
113
73
-19
61
156
46
-66
14
117
111
131
261
374
422
521
672
766
825
867
946
1219
1326
631
-334
-537
-295
-373
-527
-447
-399
-475
-528
-549
-552
-544
-562
-585
-594
-648
-758
-809
-740
-625
-514
-352
-137
9
33
39
85
80
15
8
22
-37
-35
52
37
-15
5
-26
6
159
-1
-351
-194
242
285
156
243
346
329
308
302
290
272
260
291
286
199
195
242
155
151
369
463
512
809
795
139
-326
-206
-94
-174
-191
-200
-246
-209
-128
-97
-124
-173
-172
-114
-72
-58
-41
-4
81
179
206
190
189
160
81
3
-68
-134
-152
-132
-142
-199
-265
-280
-223
-192
-257
-268
-141
-73
-94
-30
-35
-205
-145
33
-338
-847
-564
22
12
-189
-10
197
206
277
279
-25
-246
-78
118
111
105
148
113
54
76
131
130
89
88
135
159
158
205
278
291
305
409
503
478
392
299
191
102
45
-34
-111
-125
-108
-107
-106
-85
-65
-74
-102
-92
-22
35
12
-54
-90
-103
-126
-142
-169
-209
-162
-87
-159
-202
9
210
210
201
77
-324
-570
-406
-253
-298
-288
-207
-203
-224
-217
-217
-182
-83
-34
-81
-91
5
111
190
279
341
399
540
572
277
-107
-366
-563
-505
-116
98
-33
-96
-26
-41
-58
2
22
-5
26
121
196
193
155
142
117
55
33
62
71
46
21
54
193
328
384
484
522
209
-222
-288
-88
11
-26
-76
-118
-144
-120
-54
-13
-26
-59
-85
-71
-3
21
10
139
326
330
278
367
400
204
-27
-106
-117
-194
-289
-308
-297
-307
-279
-226
-234
-247
-178
-98
-59
-14
-9
-75
-107
-120
-138
-68
-61
-167
-26
98
-373
-690
-89
513
522
564
548
69
-271
-132
-2
-10
32
50
17
7
4
19
60
48
-11
2
121
217
179
126
211
330
342
313
308
283
209
105
27
4
-43
-153
-203
-154
-161
-242
-227
-124
-97
-141
-144
-109
-98
-116
-136
-136
-137
-157
-159
-144
-147
-128
-93
-123
-126
-6
102
206
387
309
-180
-510
-394
-262
-294
-264
-191
-201
-193
-156
-181
-190
-125
-66
-23
16
28
101
283
426
460
487
520
500
450
386
283
179
116
64
33
37
1
-67
-44
25
8
-29
2
39
88
148
99
-25
-45
26
47
-16
-85
-68
-7
-34
-62
45
158
229
373
341
-77
-399
-278
-120
-168
-175
-117
-158
-215
-208
-209
-202
-136
-88
-90
-56
23
63
64
95
150
193
234
250
173
26
-58
-59
-122
-236
-242
-184
-212
-251
-218
-207
-213
-162
-117
-58
85
94
-44
39
87
-412
-794
-326
247
216
73
132
141
188
359
431
482
564
275
-257
-336
-41
34
-70
-67
-44
-74
-46
35
61
2
-50
7
107
134
139
221
336
401
408
429
486
426
212
88
31
-222
-448
-308
-103
-172
-289
-254
-204
-227
-258
-244
-168
-60
1
-1
-38
-121
-203
-194
-134
-104
-59
24
79
158
347
539
722
1064
1272
759
-157
-544
-382
-320
-371
-271
-232
-330
-286
-250
-495
-616
-326
-89
-174
-272
-241
-201
-171
-118
-58
4
60
120
176
171
124
129
148
93
52
95
97
20
3
50
38
-10
8
67
108
123
93
29
-2
-3
-18
-43
-60
-47
-24
-68
-96
24
151
145
86
-106
-449
-564
-336
-158
-147
-114
-69
-67
-51
-50
-103
-126
-89
-58
-39
14
59
53
82
195
297
342
350
312
278
266
162
-17
-94
-69
-63
-62
-41
-19
42
124
142
125
146
168
185
249
290
231
162
143
115
99
112
70
29
74
100
115
220
328
475
675
485
-131
-424
-212
-82
-165
-204
-205
-202
-163
-172
-211
-176
-139
-163
-144
-52
20
41
55
117
226
279
221
147
98
6
-126
-218
-221
-178
-223
-352
-365
-287
-328
-390
-303
-224
-268
-287
-211
-122
-106
-183
-247
-202
-152
-177
-157
-50
6
56
286
589
787
890
723
213
-245
-530
-775
-689
-269
-100
-230
-242
-166
-179
-198
-197
-217
-214
-218
-269
-250
-135
-53
13
134
210
223
253
229
137
121
142
68
-12
15
53
-13
-107
-89
2
12
-45
-35
43
81
48
-5
23
167
317
414
516
585
562
500
477
569
744
831
841
810
484
-71
-322
-211
-144
-193
-221
-212
-183
-206
-275
-243
-172
-209
-220
-141
-142
-188
-125
-32
1
31
82
112
66
-7
1
-57
-315
-432
-206
-22
-73
-116
-92
-90
-61
-13
-19
-21
35
89
108
99
47
-11
2
32
-11
-31
62
89
-32
-14
169
223
339
709
680
-6
-490
-402
-267
-249
-198
-215
-281
-258
-206
-193
-193
-204
-196
-158
-150
-152
-99
-8
77
165
244
266
233
197
136
-6
-162
-230
-255
-284
-272
-240
-268
-306
-273
-196
-134
-130
-171
-147
-41
-14
-99
-129
-104
-137
-137
-38
22
27
78
175
295
397
471
576
528
131
-209
-90
137
127
80
109
91
57
67
76
100
113
61
61
157
196
177
201
223
248
329
365
297
248
248
191
57
-66
-121
-125
-139
-191
-229
-185
-94
-64
-115
-148
-113
-70
-71
-111
-160
-193
-197
-169
-133
-144
-151
-69
-37
-125
-62
166
233
196
190
-66
-505
-614
-385
-217
-206
-226
-217
-196
-191
-169
-118
-79
-63
-67
-14
133
145
86
339
422
-255
-660
40
694
502
216
209
147
49
39
43
47
46
16
24
71
74
36
51
148
193
119
82
119
52
-42
47
193
226
235
296
475
789
999
1055
1170
1057
391
-278
-438
-392
-386
-322
-280
-342
-377
-352
-358
-417
-485
-496
-449
-450
-526
-517
-387
-334
-382
-331
-198
-139
-97
-48
-118
-206
-134
-67
-171
-233
-106
-17
-96
-143
-68
-17
-49
-78
-6
123
105
3
92
94
-301
-488
-73
298
256
154
181
302
430
478
619
788
514
-29
-179
-15
11
-35
17
48
12
13
60
72
34
22
62
64
26
61
132
139
172
262
280
262
296
243
53
-65
-63
-122
-242
-271
-228
-233
-281
-294
-261
-227
-213
-174
-93
-53
-76
-75
-77
-163
-210
-148
-166
-242
-153
-68
-159
-109
110
163
238
433
186
-400
-506
-196
-109
-205
-196
-140
-115
-100
-71
17
100
103
139
249
286
258
304
388
415
426
462
475
432
363
300
209
80
0
-4
-31
-79
-46
20
16
-23
-42
-48
-16
54
91
62
-4
-59
-52
-15
-45
-112
-101
-45
-58
-84
-1
127
184
173
12
-349
-602
-507
-312
-249
-227
-204
-228
-220
-134
-101
-165
-173
-104
-94
-116
-96
-109
-77
110
230
198
274
410
351
195
100
8
-80
-117
-129
-140
-173
-184
-106
-82
-155
-81
-21
-315
-487
-95
270
192
83
106
100
132
170
102
96
158
114
137
346
497
545
502
160
-257
-317
-179
-116
-51
6
-21
-63
-86
-44
65
67
-13
46
154
118
72
145
226
245
257
319
387
310
114
10
-51
-218
-305
-225
-227
-325
-312
-246
-236
-220
-220
-259
-209
-95
-93
-141
-109
-118
-235
-274
-202
-156
-100
-66
-179
-170
138
294
193
273
281
-188
-517
-275
-48
-127
-162
-62
21
70
94
92
100
133
169
171
151
175
224
253
303
365
379
388
395
309
192
158
116
6
-60
-49
-51
-105
-171
-164
-77
-40
-100
-120
-31
51
43
2
-24
-72
-120
-96
-75
-159
-209
-120
-83
-148
-80
64
44
-31
-88
-313
-525
-394
-154
-137
-192
-155
-148
-191
-154
-87
-117
-161
-112
-71
-93
-66
35
115
160
228
316
351
321
275
221
130
20
-42
-10
44
30
38
134
177
139
160
200
176
186
266
302
261
208
177
160
146
112
45
36
154
208
86
76
262
392
523
684
453
-116
-373
-242
-163
-196
-162
-102
-100
-105
-92
-121
-152
-88
7
15
-18
-7
29
71
131
197
238
220
132
43
24
-12
-144
-240
-218
-223
-293
-309
-292
-306
-314
-329
-343
-261
-147
-155
-230
-247
-230
-234
-251
-284
-289
-200
-125
-195
-198
29
175
128
150
8
-519
-755
-364
-56
-113
-110
-28
-67
-89
-23
1
-12
-23
-59
-73
-19
34
50
94
169
229
284
316
261
157
94
15
-143
-266
-269
-242
-254
-294
-361
-382
-306
-278
-376
-409
-299
-227
-231
-183
-149
-231
-281
-229
-272
-371
-231
53
213
451
949
1380
1624
1865
1827
1269
742
658
660
514
392
347
333
322
241
142
137
147
119
116
120
136
183
158
169
361
397
206
254
238
-381
-789
-330
70
-138
-291
-166
-150
-260
-272
-194
-164
-209
-209
-134
-89
-81
-61
-84
-159
-191
-179
-190
-192
-137
-129
-212
-162
58
162
230
458
364
-256
-626
-429
-277
-370
-392
-335
-341
-363
-361
-354
-333
-313
-314
-301
-246
-190
-138
-47
53
98
129
173
144
36
-46
-118
-236
-305
-284
-304
-353
-302
-236
-276
-275
-175
-172
-231
-138
-1
-18
-72
-68
-87
-92
-21
30
46
122
214
227
249
364
445
497
677
705
263
-153
-60
127
57
24
124
120
48
73
120
104
85
95
131
182
135
-20
-17
247
435
345
249
332
381
265
138
83
19
-59
-81
-57
-51
-80
-114
-122
-97
-79
-98
-105
-74
-69
-96
-77
-39
-93
-184
-160
-52
-24
-84
-126
-115
-31
96
198
354
460
136
-425
-538
-248
-136
-236
-232
-134
-119
-155
-133
-111
-98
-2
30
-59
63
203
-172
-490
-13
567
571
447
444
341
241
221
128
47
51
-17
-107
-48
33
-20
-77
-44
-19
-15
30
59
36
39
39
-41
-81
-26
-42
-72
46
79
-42
79
357
349
206
120
-152
-448
-384
-190
-165
-167
-120
-124
-184
-240
-197
-63
-50
-162
-156
-37
20
32
55
104
210
283
220
149
163
100
-81
-165
-126
-162
-282
-323
-217
-89
-114
-208
-189
-171
-193
-71
27
-47
13
97
-207
-463
-171
154
98
56
189
189
88
179
377
470
604
758
510
-39
-256
-91
7
-62
-105
-47
38
32
-48
-59
7
37
19
4
2
23
63
98
145
224
275
237
164
125
75
-35
-147
-207
-223
-222
-243
-287
-300
-260
-207
-173
-159
-142
-83
-15
-18
-84
-134
-143
-144
-150
-159
-148
-102
-70
-67
-1
93
142
310
539
359
-174
-408
-261
-182
-215
-157
-70
-68
-88
-54
-1
23
56
135
204
222
244
283
288
285
339
407
421
390
336
272
195
93
15
18
29
-33
-83
-48
-26
-65
-80
-65
-59
-13
50
55
31
-23
-121
-138
-47
-24
-86
-97
-74
-81
-38
60
87
78
79
-124
-503
-618
-393
-216
-211
-204
-150
-114
-136
-198
-194
-116
-94
-139
-130
-79
-67
-39
62
172
245
298
357
404
353
192
52
-1
-46
-126
-166
-95
-44
-161
-192
-1
-112
-598
-619
-48
289
211
158
181
152
120
119
127
129
132
140
105
117
299
433
422
540
586
145
-333
-302
-81
-1
30
-30
-159
-110
47
39
-48
3
65
18
58
148
67
140
435
153
-554
-430
324
464
103
-31
-38
-128
-186
-198
-203
-186
-180
-183
-167
-164
-189
-192
-141
-80
-71
-90
-92
-121
-170
-145
-82
-64
-35
-10
-59
-29
144
215
192
308
324
-77
-459
-290
23
-172
-532
-367
64
160
57
92
166
145
95
92
148
210
250
304
350
359
391
437
414
327
220
117
63
41
-16
-79
-105
-119
-142
-171
-163
-108
-100
-137
-66
69
61
-39
-69
-78
-131
-154
-152
-182
-174
-121
-170
-242
-109
71
42
-25
-51
-285
-561
-478
-228
-177
-226
-218
-215
-225
-184
-131
-132
-151
-116
-81
-109
-95
42
172
206
243
319
353
352
349
279
156
97
101
88
63
74
112
129
104
83
100
116
104
91
112
156
165
106
