# session 52
48
-40
-180
-220
-161
-182
-245
-232
-221
-245
-207
-150
-179
-241
-243
-187
-119
-88
-99
-143
-248
-355
-359
-314
-311
-267
-184
-186
-171
-60
-102
-236
-84
58
-308
-729
-647
-418
-421
-435
-316
-235
-253
-262
-210
-150
-124
-108
-62
14
69
80
141
286
388
391
380
379
349
292
205
107
52
41
34
15
-23
-71
-72
-17
34
45
37
63
146
199
150
103
150
185
135
76
36
25
70
68
-1
42
138
189
444
721
368
-329
-462
-158
-111
-200
-80
-78
-363
-443
-200
-98
-161
-108
-59
-114
-69
64
117
176
341
453
407
333
289
172
31
-19
-66
-188
-246
-188
-168
-239
-256
-165
-123
-185
-191
-85
-5
-9
-40
-61
-68
-73
-67
-25
-31
-114
-77
24
-127
-271
33
409
508
598
508
-52
-428
-205
-23
-130
-101
9
-55
-84
5
2
-30
48
87
16
17
162
280
270
295
476
583
451
311
311
265
106
-6
-23
-20
-49
-116
-171
-169
-157
-182
-213
-211
-178
-118
-58
-54
-103
-145
-162
-173
-161
-130
-125
-100
-47
-102
-161
19
180
110
241
529
263
-338
-466
-243
-147
-146
-173
-222
-191
-155
-182
-148
-72
-84
-135
-103
2
80
114
176
254
308
379
436
370
229
121
34
-49
-84
-81
-89
-103
-103
-105
-106
-76
-51
-77
-85
-7
67
53
17
11
7
18
33
-21
-78
-37
-21
-67
20
142
116
253
614
527
-94
-442
-289
-142
-165
-183
-173
-165
-152
-154
-154
-126
-96
-82
-58
-9
62
139
199
235
273
331
339
239
127
100
62
-55
-134
-139
-146
-136
-102
-125
-171
-135
-50
-31
-85
-109
-47
34
41
-49
-98
-3
-39
-364
-489
-151
123
32
-62
73
228
226
274
498
444
-85
-439
-291
-129
-170
-155
-44
-8
-75
-111
-38
7
-43
-8
90
45
14
193
322
256
265
441
553
483
328
217
145
41
-43
-74
-118
-131
-175
-404
-520
-257
-59
-189
-240
-82
12
-6
-48
-99
-109
-63
-36
-62
-74
-19
-17
-130
-123
64
144
184
447
522
5
-506
-422
-134
-105
-177
-119
-15
-7
-73
-85
-29
-42
-113
-47
69
20
79
351
215
-268
-124
518
648
355
269
271
143
41
14
-8
-9
9
1
-38
-55
-18
19
5
-24
-18
52
162
187
95
27
18
-15
-48
-40
-20
0
16
61
197
402
682
932
723
41
-411
-377
-327
-389
-352
-292
-311
-322
-331
-368
-366
-325
-302
-294
-291
-267
-182
-110
-116
-88
19
69
37
16
-4
-41
-35
-27
-92
-149
-117
-79
-111
-171
-174
-121
-98
-109
-67
-12
1
73
105
-102
-277
-99
149
159
113
163
176
124
156
239
222
299
619
659
140
-265
-159
10
-12
-53
-39
18
51
-12
-22
70
50
-54
-6
113
95
27
77
202
292
351
382
342
295
269
137
6
58
-27
-401
-523
-263
-140
-206
-205
-225
-258
-173
-115
-126
-69
-39
-103
-115
-92
-104
-76
-69
-110
-49
-17
-113
-20
216
266
381
569
201
-476
-547
-168
-67
-185
-156
-54
-53
-78
-43
-6
9
19
19
108
246
85
-221
-36
463
605
515
515
433
267
181
67
-55
-37
-27
-120
-119
-36
-67
-132
-92
-69
-124
-121
-13
97
88
-50
-130
-30
63
0
-74
-55
-28
-54
-65
44
200
263
351
447
174
-350
-530
-370
-269
-232
-180
-205
-258
-242
-200
-169
-135
-109
-89
-55
3
70
116
141
196
273
260
155
107
118
52
-53
-93
-130
-199
-214
-173
-153
-171
-191
-170
-119
-131
-206
-192
-71
-17
-69
-84
-10
68
90
61
7
-2
75
116
44
47
182
308
561
932
809
122
-293
-170
-39
-76
-93
-86
-90
-62
-29
-41
-66
-39
7
-10
-32
35
108
113
143
217
258
291
317
238
95
21
-19
-100
-162
-159
-156
-186
-214
-212
-193
-182
-182
-170
-123
-55
-3
-1
-41
-90
-114
-102
-91
-127
-139
-62
-50
-137
-56
161
227
313
513
330
-224
-450
-267
-141
-150
-129
-74
-73
-108
-32
22
-255
-504
-200
226
244
167
255
301
293
357
410
369
298
239
171
102
63
14
-61
-74
-29
-50
-96
-52
12
9
-29
-65
-36
78
121
38
-12
-1
-5
10
12
-35
-2
52
-33
-29
116
8
-154
65
153
-293
-598
-421
-235
-203
-167
-174
-186
-110
-73
-107
-75
2
23
16
5
-10
60
219
308
313
369
444
431
344
197
13
-87
-79
-83
-136
-187
-235
-246
-164
-92
-121
-145
-153
-157
15
98
-358
-744
-347
140
66
-53
42
33
0
55
16
34
283
450
409
389
273
-80
-315
-238
-112
-87
-82
-39
13
0
-36
9
61
26
-1
35
78
124
198
293
370
388
373
368
322
211
99
8
-72
-120
-160
-233
-287
-281
-257
-239
-210
-185
-177
-157
-101
-20
33
7
-46
-57
-72
-104
-92
-80
-89
-62
-54
-46
83
203
286
577
715
168
-458
-420
-158
-178
-220
-139
-101
-96
-98
-117
-47
70
71
32
89
159
168
190
244
288
326
365
361
296
211
138
60
-21
-67
-71
-75
-90
-81
-45
-57
-134
-171
-116
-75
-102
-92
-29
-16
-59
-91
-115
-129
-115
-116
-111
-59
-54
-89
-20
75
61
7
-148
-463
-602
-395
-192
-170
-135
-63
-60
-55
-10
-36
-96
-48
42
22
-35
23
139
187
219
316
394
386
363
334
230
98
25
-15
-97
-162
-113
-79
-142
-83
-8
-301
-602
-352
45
102
70
112
84
30
18
14
40
60
34
46
57
14
120
384
540
699
955
771
45
-400
-243
-40
-71
-143
-160
-121
-37
-5
-71
-98
-6
24
-76
-83
14
30
98
229
75
-162
-6
211
100
-24
-33
-124
-183
-139
-151
-173
-129
-140
-205
-188
-144
-203
-251
-106
67
10
-129
-113
-75
-128
-114
-36
-58
-83
-38
-72
-67
144
268
231
364
379
-142
-549
-280
-43
-314
-423
-84
118
22
2
78
66
23
35
72
125
185
217
236
285
360
410
396
338
292
251
154
23
-31
-9
-32
-101
-117
-103
-129
-151
-112
-62
-68
-102
-82
-10
40
27
-40
-121
-154
-129
-115
-156
-186
-160
-158
-165
-37
126
143
175
234
-9
-403
-447
-223
-124
-176
-208
-165
-118
-130
-116
-35
-39
-119
-86
17
46
59
135
230
313
362
342
291
273
250
148
19
-23
2
-8
-44
-34
-12
-33
-47
-15
4
-14
-8
51
101
102
92
88
52
9
21
44
23
28
66
33
14
115
196
321
633
646
42
-445
-322
-117
-155
-158
-78
-87
-139
-148
-140
-116
-94
-117
-123
-62
-21
-4
79
185
236
267
278
231
159
81
-15
-111
-185
-199
-150
-173
-303
-323
-202
-200
-322
-325
-230
-176
-111
-40
-62
-79
-29
-82
-208
-184
-71
-44
-48
-48
-54
77
277
321
325
328
16
-424
-419
-107
-20
-114
-76
22
-23
-91
-1
86
8
-24
95
144
120
191
262
266
369
516
483
355
324
309
198
77
10
-42
-76
-52
1
13
-37
-60
-2
3
-99
-134
-31
58
39
-42
-108
-129
-140
-150
-139
-136
-126
-92
-108
-97
90
246
209
231
237
-116
-481
-394
-205
-259
-279
-151
-120
-174
-131
-73
-108
-124
-86
-77
-42
51
83
82
186
317
332
264
223
230
217
140
50
0
-26
-52
-58
-48
-66
-114
-122
-67
-28
-30
-11
34
66
87
78
33
34
86
136
314
648
689
169
-383
-456
-296
-247
-272
-307
-327
-242
-119
-87
-82
-61
-84
-100
-41
22
42
75
134
171
184
211
251
292
330
335
296
246
195
112
12
-61
-102
-132
-157
-186
-213
-206
-166
-137
-134
-142
-150
-139
-113
-106
-111
-102
-95
-93
-79
-91
-146
-164
-94
-11
6
-53
-133
-89
108
236
265
451
600
254
-290
-396
-182
-82
-89
-86
-89
-72
-54
-74
-65
-20
-3
6
24
37
74
123
145
210
348
433
403
335
278
223
148
50
-11
-18
-39
-82
-131
-163
-105
-137
-452
-623
-313
-4
-23
-94
-118
-158
-127
-85
-118
-101
-24
-2
-17
-42
-20
138
294
380
500
374
-181
-540
-334
-105
-164
-200
-104
-68
-100
-97
-91
-95
-31
26
21
86
124
66
274
514
81
-405
28
614
463
154
138
100
5
0
-2
-19
-14
-33
-68
-67
-45
-44
-60
-39
44
109
101
70
33
-41
-77
-16
9
-69
-90
-32
-29
-2
121
245
430
584
300
-266
-458
-272
-184
-225
-213
-192
-210
-207
-173
-154
-160
-157
-115
-53
-1
42
100
185
262
279
270
273
238
153
61
-29
-74
-58
-72
-111
-95
-92
-149
-165
-112
-69
-64
-66
-44
-30
-12
66
67
-125
-218
-31
119
63
40
115
100
23
73
168
189
363
640
452
-141
-376
-179
-98
-163
-99
6
-23
-93
-39
48
-19
-128
-69
37
4
-50
25
145
188
194
259
330
267
167
189
81
-328
-553
-317
-109
-192
-251
-194
-199
-224
-188
-170
-167
-111
-62
-58
-41
-42
-96
-115
-79
-76
-100
-85
-79
-135
-123
51
172
201
462
708
291
-418
-542
-267
-187
-210
-158
-138
-113
-35
-26
-89
-95
-38
5
31
78
153
251
352
411
445
487
470
372
283
202
78
-11
-20
-37
-83
-98
-82
-79
-106
-128
-97
-41
-20
-23
0
70
134
99
5
-9
49
68
46
51
70
39
16
106
214
247
317
284
-114
-508
-447
-236
-239
-275
-222
-193
-193
-172
-147
-105
-58
-59
-75
-42
15
74
156
218
238
292
358
311
182
101
49
-46
-136
-169
-196
-245
-254
-213
-203
-218
-170
-99
-106
-143
-104
-6
62
62
41
39
21
-16
-7
24
14
21
40
13
54
180
246
465
921
936
249
-302
-264
-110
-118
-144
-140
-150
-173
-169
-127
-125
-160
-124
-59
-61
-52
23
99
154
207
248
265
245
183
94
-19
-122
-166
-177
-198
-205
-196
-204
-197
-146
-103
-104
-102
-61
-2
32
21
-1
-5
-15
-22
4
-6
-65
-52
-21
-70
-10
157
172
226
455
316
-245
-480
-281
-167
-175
-115
-79
-125
-150
-87
8
32
27
81
101
42
59
174
240
241
284
364
379
305
223
176
113
25
-39
-86
-122
-100
-61
-96
-147
-116
-62
-68
-84
-34
45
86
77
5
-95
-117
-77
-65
-29
-6
-161
-396
-421
-166
146
247
220
274
153
-289
-530
-326
-122
-120
-123
-71
-56
-73
-44
-18
-88
-114
0
42
-35
-12
127
254
363
435
417
361
324
254
124
1
-82
-141
-157
-149
-181
-211
-180
-158
-155
-108
-76
-105
-86
21
99
73
-1
-23
3
7
23
82
95
69
43
-17
13
189
278
391
712
672
32
-353
-164
-66
-183
-140
-38
-76
-122
-105
-86
-50
5
20
-11
-17
34
96
148
216
280
300
280
217
97
-30
-102
-147
-206
-250
-241
-200
-176
-190
-203
-166
-115
-136
-198
-168
-42
28
-5
-18
20
8
-34
-23
-33
-81
-51
-17
-76
-24
139
133
127
318
249
-209
-417
-218
-60
-32
10
13
-17
9
33
-4
-28
7
20
-11
11
90
137
163
217
262
299
351
339
225
130
100
47
-30
-89
-138
-133
-82
-108
-162
-109
-59
-106
-119
-59
-9
38
62
-4
-81
-86
-102
-153
-172
-173
-160
-113
-118
-141
-16
124
158
260
230
-230
-570
-347
-124
-198
-163
-72
-190
-241
-111
-96
-149
-89
-55
-80
-24
48
84
183
318
393
447
498
473
352
222
146
51
-97
-152
-132
-274
-454
-332
-50
30
-45
-58
-24
-24
-6
81
136
108
88
92
55
20
33
32
12
53
83
25
55
240
380
490
581
335
-139
-292
-133
-33
-22
-15
-7
19
7
-52
-72
-68
-77
-50
-11
-1
42
125
181
219
256
259
234
182
80
-20
-60
-91
-148
-200
-229
-228
-229
-278
-280
-184
-144
-182
-149
-97
-86
-13
56
-15
-86
-69
-92
-153
-165
-156
-121
-80
-114
-115
19
154
323
566
443
-149
-478
-272
-87
-122
-121
-80
-77
-41
-2
-10
-5
6
-5
50
147
137
105
219
318
256
243
331
294
172
153
151
64
-22
-58
-71
-77
-81
-80
-81
-74
-22
11
-73
-149
-74
22
2
-54
-79
-104
-114
-88
-69
-86
-79
-7
13
-49
10
154
143
153
284
85
-375
-430
-164
-106
-165
-116
-63
-53
-69
-112
-103
-69
-75
-34
32
8
16
117
163
230
341
211
-10
96
264
126
-35
-23
-29
-76
-90
-122
-132
-62
-46
-117
-111
-55
-75
-51
68
82
11
7
-10
-64
-23
25
-24
-19
73
44
-39
116
343
298
323
666
598
-127
-500
-172
-2
-266
-404
-247
-97
-116
-213
-236
-166
-120
-138
-153
-104
27
149
173
210
339
379
271
207
191
68
-98
-174
-188
-200
-205
-192
-188
-222
-230
-158
-122
-191
-223
-127
-9
23
-5
-8
9
-37
-102
-64
24
55
103
179
187
264
532
777
939
1079
860
214
-212
-158
-82
-155
-174
-131
-108
-84
-90
-156
-185
-124
-95
-171
-225
-170
-122
-161
-175
-92
-2
29
29
37
61
68
11
-74
-112
-115
-125
-131
-139
-165
-167
-136
-123
-136
-137
-104
-41
23
36
7
-12
-20
-27
-6
3
-35
-16
55
23
-7
125
257
373
578
481
-89
-450
-280
-115
-149
-102
-59
-148
-146
-38
-21
7
38
-169
-336
-66
270
292
273
372
402
369
367
334
247
156
70
-1
-27
-47
-86
-80
-36
-61
-116
-61
22
-29
-115
-81
-27
-41
-22
-4
-121
-248
-233
-181
-162
-134
-140
-159
-93
