# session 9
-53
-422
-972
-1341
-1047
-392
-216
-678
-1175
-1372
-1484
-1673
-1844
-1937
-1981
-1945
-1802
-1631
-1505
-1422
-1323
-1171
-1066
-1088
-1033
-764
-577
-689
-886
-1038
-1175
-1126
-908
-837
-775
-429
-83
107
286
69
-634
-940
-684
-727
-1137
-1249
-969
-674
-615
-754
-837
-791
-775
-759
-591
-343
-119
168
491
656
701
849
1101
1321
1456
1401
1070
692
524
440
241
30
-86
-234
-452
-536
-426
-303
-184
-63
-105
-64
296
156
-740
-819
469
1599
1989
2134
1657
585
132
559
927
1032
1338
1580
1288
906
790
398
-263
-412
-119
-24
6
234
309
106
37
199
284
293
487
783
827
553
239
149
302
465
462
456
573
594
538
741
868
271
-565
-760
-626
-766
-922
-842
-709
-558
-386
-347
-454
-572
-602
-498
-301
-92
61
116
132
178
209
207
223
226
210
242
308
314
165
-94
-334
-754
-1466
-1806
-1346
-808
-763
-814
-647
-517
-529
-382
-204
-590
-1041
-275
1202
1700
1173
573
104
-80
266
713
867
880
767
436
94
-116
-289
-433
-483
-472
-464
-453
-409
-368
-395
-472
-530
-554
-537
-468
-387
-380
-475
-408
144
817
900
504
275
431
763
902
812
972
1022
-101
-1571
-1521
-488
-161
-393
-441
-466
-460
-196
3
-127
-331
-411
-383
-229
52
356
561
655
793
1030
1147
1108
1223
1526
1639
1368
826
158
-434
-766
-939
-1159
-1410
-1549
-1522
-1363
-1152
-1000
-912
-788
-754
-929
-862
-37
1162
1821
1577
902
457
394
478
627
779
701
440
246
24
-275
-356
-263
-257
-101
206
43
-476
-536
-212
-120
-198
-231
-345
-402
-182
71
162
251
324
224
66
-18
-60
17
250
423
493
556
243
-569
-915
-254
427
419
182
-53
-380
-476
-304
-290
-407
-379
-326
-346
-260
-34
222
452
603
674
738
776
777
827
878
788
563
291
61
-27
64
342
808
1225
1214
676
-245
-1287
-1836
-1496
-882
-638
-503
-408
-731
-1128
-934
-108
862
978
-216
-1314
-977
-78
170
41
13
-65
-221
-295
-334
-388
-331
-113
145
407
728
993
1128
1411
1927
2100
1484
505
-180
-447
-390
-59
243
202
-64
-312
-467
-417
-214
-269
-584
-601
-587
-1337
-2023
-1297
-109
-34
-531
-595
-451
-310
-8
170
-37
-328
-422
-386
-289
-86
180
408
554
612
602
586
601
623
596
498
381
255
52
-167
-301
-461
-716
-859
-723
-453
-311
-306
-237
-108
20
184
111
-18
653
1214
-113
-1697
-1049
291
355
280
765
913
742
640
325
-62
-111
-54
-104
-9
181
103
-156
-244
-228
-342
-461
-412
-316
-311
-333
-305
-249
-220
-213
-59
389
880
1006
786
570
588
661
465
318
520
121
-1074
-1158
277
1036
480
19
12
9
56
66
-140
-328
-342
-272
-128
47
137
172
218
209
128
121
256
354
313
361
604
672
294
-189
-350
-239
-74
98
220
241
361
714
850
271
-500
-569
-327
-473
-421
-336
-1536
-2576
-878
1595
1534
97
-254
260
628
608
244
-174
-433
-642
-809
-851
-862
-860
-722
-471
-289
-237
-205
-163
-204
-284
-229
-63
76
206
280
146
-45
-86
-94
-122
-50
5
-63
-77
46
225
330
282
437
908
764
-159
-364
471
815
237
-296
-423
-369
-244
-176
-217
-257
-246
-170
-26
139
337
523
522
383
375
475
401
140
-44
-43
-33
-148
-269
-294
-361
-563
-798
-926
-826
-602
-431
-117
119
-225
-188
442
-643
-2731
-1977
468
939
598
1018
947
768
1392
1615
1161
1022
991
667
385
150
-118
-214
-246
-274
-66
186
235
353
435
42
-434
-429
-198
59
429
536
196
-17
125
191
136
250
406
414
381
265
68
47
-146
-909
-1224
-288
660
519
-86
-465
-573
-386
-147
-204
-408
-495
-464
-358
-207
-2
289
491
450
411
618
871
878
667
408
144
-96
-225
-338
-597
-852
-931
-934
-814
-536
-379
-322
-214
-302
-437
-478
-839
-830
-195
-1163
-3245
-2397
527
1046
-98
145
991
1072
908
685
307
168
229
200
178
194
155
185
327
394
340
261
161
10
-124
-155
-117
-149
-313
-447
-312
159
860
1521
1719
1390
1020
776
440
367
534
-148
-1330
-1097
247
693
288
127
98
103
384
483
193
-20
-211
-564
-624
-291
-80
-78
-18
51
11
-79
-155
-148
-30
80
134
196
173
-39
-327
-578
-755
-779
-724
-778
-830
-654
-405
-247
18
212
-70
-339
-419
-1292
-2194
-951
1268
1432
73
-358
333
1002
1172
949
633
402
173
-66
-243
-376
-458
-458
-401
-288
-183
-160
-57
167
233
297
706
959
609
279
335
288
44
-86
-153
-185
-8
246
368
428
388
216
201
160
-424
-872
-257
548
477
115
74
85
88
171
174
107
88
75
96
202
303
333
297
250
316
451
461
388
346
206
-22
-101
-125
-340
-564
-591
-531
-375
-178
-343
-752
-804
-715
-984
-1107
-767
-631
-720
-619
-907
-1448
-761
776
1102
214
-227
193
739
913
706
433
345
329
232
117
50
18
20
-12
-117
-169
-124
-156
-284
-305
-215
-170
-115
96
431
755
882
681
345
185
189
199
239
337
366
316
387
493
235
-307
-597
-598
-667
-763
-631
-379
-247
-148
75
190
56
65
291
221
-80
-15
333
507
532
523
472
559
750
677
382
221
112
-240
-671
-776
-566
-445
-538
-539
-358
-236
-123
99
114
-3
196
133
-592
-768
-400
-1016
-1646
-578
535
146
-199
369
746
654
605
468
149
-49
-139
-255
-270
-205
-220
-224
-135
-93
-154
-169
-4
217
240
203
376
419
53
-193
-38
60
41
232
481
548
480
259
75
195
116
-599
-1096
-639
42
148
-69
-130
22
215
266
131
-39
-71
43
190
296
328
250
164
213
307
295
278
386
535
586
505
331
125
-103
-375
-643
-810
-888
-999
-1111
-1028
-762
-501
-317
-200
3
380
476
124
-45
-114
-540
-429
671
1289
776
348
675
1181
1293
987
609
379
172
-75
-246
-336
-394
-366
-258
-181
-140
-91
-111
-217
-244
-156
-91
-3
259
539
531
263
24
-100
-235
-326
-245
-186
-237
-99
84
7
239
767
315
-913
-1288
-864
-673
-643
-533
-427
-191
-12
-176
-286
-63
157
273
437
447
189
46
265
562
644
649
836
1051
905
459
112
-120
-464
-806
-1002
-1203
-1325
-1105
-779
-684
-586
-287
-61
31
184
222
-75
-641
-1339
-1443
-204
1354
1663
1044
517
274
327
525
442
175
23
-136
-330
-407
-451
-519
-498
-423
-348
-221
-99
-26
84
207
391
811
1287
1644
2085
2259
1490
351
-113
-193
-511
-684
-427
-147
54
198
-129
-746
-834
-548
-566
-698
-659
-689
-759
-686
-592
-576
-650
-767
-688
-351
5
302
608
839
922
959
1012
992
920
922
875
599
272
63
-161
-407
-456
-289
-103
-30
-89
-195
-138
71
93
45
342
502
221
334
268
-1229
-2109
-595
509
-315
-402
820
1221
716
387
147
-151
-328
-503
-687
-704
-615
-545
-447
-307
-230
-242
-237
-154
-33
68
138
224
351
433
421
426
523
589
498
365
340
285
148
219
298
-267
-1077
-1058
-390
-44
-133
-243
-219
-84
-24
-179
-340
-343
-267
-92
141
276
480
815
939
968
1211
1147
505
92
214
249
30
-154
-320
-558
-802
-1002
-1147
-1237
-1230
-1000
-643
-464
-409
-174
44
-50
-225
-430
-619
-31
1181
1380
355
-204
297
891
952
642
314
144
22
-129
-188
-185
-270
-358
-346
-341
-330
-186
-36
-13
8
60
59
92
254
443
482
327
164
96
80
289
724
852
500
148
135
307
57
-844
-1403
-960
-404
-414
-567
-520
-290
-46
-86
-327
-407
-350
-313
-194
51
274
417
534
662
788
860
868
890
869
612
241
71
5
-222
-494
-651
-769
-847
-847
-804
-614
-247
-56
-241
-350
-17
154
-449
-1004
-439
723
1301
1014
311
-106
149
598
763
733
457
-80
-370
-232
-118
-183
-182
-132
-207
-247
-71
75
-49
-228
-244
-250
-343
-275
63
345
410
561
836
872
703
629
528
265
77
21
-162
-523
-760
-618
-268
-84
-96
-121
-179
-259
-203
-81
-120
-265
-301
-246
-208
-81
251
623
804
834
848
734
398
135
146
198
251
387
174
-532
-1004
-938
-770
-607
-357
-177
-39
67
-7
53
333
295
246
440
-438
-2055
-1753
42
396
-262
84
792
915
1043
1190
847
338
43
-179
-349
-412
-490
-563
-537
-499
-463
-389
-435
-610
-615
-416
-277
-205
-89
-69
-107
188
730
870
602
511
459
116
25
214
-247
-933
-538
298
270
-113
-112
-91
-167
-103
-104
-284
-409
-400
-313
-165
-10
150
368
552
564
484
486
522
432
303
332
451
438
224
-98
-376
-565
-758
-882
-798
-695
-737
-746
-683
-617
-396
-128
-23
192
419
169
-4
373
329
-273
-86
916
1511
1461
1186
784
362
159
203
255
233
364
442
-7
-575
-614
-462
-495
-396
-179
-166
-158
-20
-95
-323
-222
151
310
217
150
118
134
410
746
793
809
706
-160
-1080
-693
289
416
17
-180
-290
-237
49
99
-135
-252
-260
-306
-259
-74
148
399
685
883
887
761
627
454
188
-75
-232
-351
-533
-667
-594
-542
-738
-788
-553
-699
-1196
-1195
-799
-680
-772
-727
-331
126
-234
-876
-194
956
663
-187
-58
453
636
734
727
566
506
500
396
320
299
205
54
-68
-125
-84
27
91
24
-117
-149
-5
146
228
345
381
176
-17
42
115
4
-41
158
327
301
289
106
-574
-1000
-418
329
364
159
112
-61
-364
-563
-619
-554
-451
-443
-460
-283
42
229
316
572
805
715
579
673
701
439
105
-96
-171
-162
-144
-217
-318
-304
-277
-391
-487
-485
-525
-509
-435
-509
-346
129
121
88
598
-203
-2334
-2349
-298
430
90
582
1048
787
593
481
169
-45
-118
-181
-196
-152
21
255
360
494
634
319
-186
-181
62
47
59
251
375
496
653
612
436
350
328
358
453
468
421
355
9
-469
-367
260
505
174
-90
-37
22
-99
-339
-621
-828
-812
-593
-364
-211
-82
22
69
100
148
180
202
279
324
184
33
50
-59
-394
-570
-671
-1076
-1445
-1306
-916
-673
-582
-509
-450
-460
-351
-13
113
7
260
400
-155
-189
679
686
-110
217
1329
1631
1314
1071
781
492
386
281
122
65
70
34
20
90
200
241
173
97
91
151
380
710
718
352
87
3
-127
-103
230
539
639
669
710
674
245
-640
-1158
-673
8
-3
-221
-88
-3
-158
-206
-295
-713
-1044
-926
-670
-521
-334
-83
65
102
178
302
351
362
402
298
-7
-239
-301
-369
-445
-482
-610
-785
-800
-686
-524
-272
-163
-347
-319
-43
-193
-232
375
-145
-1959
-1770
519
1105
-135
-256
696
1059
920
773
510
236
108
-7
-143
-232
-325
-418
-450
-473
-419
-177
15
33
177
315
36
-293
-148
252
553
590
309
42
29
41
99
328
397
302
203
-461
-1432
-1095
485
1318
928
453
281
230
306
313
123
-39
-94
-98
-6
126
221
357
549
718
817
783
613
430
276
117
50
59
-80
-245
-166
-201
-691
-1124
-1101
-947
-840
-649
-400
-176
-9
147
391
458
16
-385
22
662
423
-296
-264
407
747
642
514
412
271
139
9
-110
-192
-291
-421
-468
-387
-280
-221
-182
-147
-154
-214
-294
-343
-317
-162
162
511
579
363
186
121
33
55
273
376
312
473
690
355
-271
-453
-288
-233
-232
-152
-114
-157
-245
-394
-445
-238
-9
29
68
106
-82
-257
-109
114
172
186
192
129
53
-41
-191
-270
-246
-308
-519
-736
-901
-982
-863
-619
-464
-342
-117
85
201
294
156
-204
-76
824
1600
1451
645
-106
-323
21
482
618
442
217
66
-38
-112
-147
-167
-195
-222
-245
-250
-183
-76
-33
-11
17
-76
-59
432
928
862
673
610
139
-504
-514
-169
-76
-2
187
217
241
257
-211
-666
-115
722
554
-84
-182
-6
50
111
139
93
101
106
85
222
475
596
563
522
507
534
624
650
466
146
-98
-161
-151
-224
-329
-347
-341
-393
-531
-855
-1268
-1366
-1068
-833
-812
-569
-199
-375
-802
-679
-262
190
898
1004
-20
-611
79
721
613
397
298
128
-23
-105
-180
-244
-333
-446
-463
-373
-310
-301
-253
-174
-158
-142
-16
125
219
392
576
537
394
415
507
445
327
344
324
80
-82
-193
-833
-1466
-902
177
285
-265
-477
-372
-241
-133
-167
-334
-427
-370
-254
-142
-27
156
462
742
835
917
977
620
84
59
317
231
-17
-99
-240
-566
-847
-967
-980
-887
-721
-559
-380
-217
-156
-11
271
376
504
865
646
-129
-3
768
654
250
720
1216
960
569
372
124
-95
-127
-115
-185
-260
-265
-247
-224
-165
-138
-198
-239
-210
-167
-99
3
102
180
175
157
348
561
485
546
1050
1247
698
192
374
690
272
-652
-1036
-726
-485
-471
-345
-160
-56
5
-14
-97
-134
-107
-8
185
388
544
699
819
834
836
891
872
748
639
496
227
-69
-320
-517
-618
-722
-902
-1004
-963
-850
-670
-447
-227
-134
-250
-204
39
-395
-1244
-838
709
1582
1332
698
183
185
609
880
852
517
-134
-588
-590
-595
-758
-813
-749
-703
-689
-635
-478
-329
-326
-364
-286
-96
101
182
139
27
-216
-457
-351
-105
-201
-275
199
668
510
152
53
-140
-720
-1275
-1351
-1051
-738
-568
-468
-414
-464
-520
-449
-370
-401
-383
-186
99
363
597
771
843
911
1031
1008
800
620
514
487
519
181
-613
-1099
-994
-840
-782
-623
-451
-355
-377
-408
-87
232
-161
-674
-516
-28
654
1340
1076
269
380
1123
1426
1404
1370
1209
989
775
522
331
227
148
144
165
102
77
171
279
