# session 8
2
285
-61
446
898
-684
-1986
-898
79
-261
20
816
738
344
274
145
15
80
71
7
133
348
564
873
1145
1262
1353
1344
1057
682
410
135
-196
-525
-802
-941
-1020
-1250
-1559
-1738
-1755
-1667
-1478
-1090
-547
-337
-517
-302
187
111
259
1365
1749
606
-116
491
1137
1192
1041
695
180
-91
-114
-268
-526
-586
-478
-421
-403
-309
-249
-360
-480
-390
-185
-10
182
345
408
614
1002
1118
864
625
451
215
22
-99
-190
-239
-398
-611
-441
-2
29
-296
-354
-184
-212
-347
-338
-278
-249
-132
153
630
1199
1588
1818
2148
2268
1785
1197
1036
965
649
286
4
-273
-468
-573
-1014
-1928
-2525
-2355
-1947
-1542
-1257
-1340
-1008
-469
-1497
-2289
3
1859
286
-565
899
1069
292
989
1792
1486
1069
705
119
-313
-579
-854
-972
-916
-782
-547
-331
-304
-363
-308
-193
-242
-381
-293
-59
56
309
879
1301
1288
1010
555
134
123
431
589
462
379
328
-239
-1049
-981
-193
65
-305
-566
-575
-380
-20
103
-173
-501
-629
-463
9
454
608
741
1004
1069
862
755
874
1006
980
821
706
635
249
-559
-1321
-1770
-2119
-2268
-1864
-1237
-972
-923
-771
-560
-188
121
-235
-470
764
2571
3247
2904
2238
1485
1103
1136
1008
650
347
43
-319
-611
-823
-1000
-1122
-1147
-1087
-1039
-1063
-1069
-1004
-960
-961
-971
-983
-916
-740
-583
-374
33
383
480
543
635
685
795
883
914
1085
908
-225
-1447
-1564
-1020
-804
-776
-442
-52
-18
-209
-347
-396
-320
-70
248
538
766
868
980
1317
1683
1750
1629
1506
1234
795
456
228
-105
-488
-767
-930
-932
-950
-1355
-1719
-1269
-601
-753
-1163
-932
-725
-1241
-1396
43
2187
3103
2340
988
100
72
627
966
681
246
104
75
-65
-245
-393
-498
-510
-459
-439
-384
-221
-77
-48
-57
-32
103
400
615
448
46
-268
-464
-568
-525
-469
-458
-308
-145
47
1010
2382
2104
-91
-1696
-1478
-834
-718
-602
-257
-149
-353
-417
-158
137
369
771
1237
1427
1508
1792
2137
2345
2300
1821
1094
587
321
20
-315
-532
-633
-697
-743
-865
-1216
-1581
-1615
-1698
-2004
-1717
-1191
-1610
-1909
-1450
-2142
-2822
-497
1957
869
-741
59
1165
1133
987
925
530
84
-162
-368
-638
-863
-912
-826
-723
-645
-602
-586
-537
-407
-195
39
276
660
1098
1146
836
682
694
720
955
1032
482
180
769
1016
168
-553
-367
-84
-270
-533
-502
-276
-136
-159
-175
-187
-342
-420
-107
403
816
1252
1782
2136
2241
2272
2185
1851
1384
941
573
281
-36
-359
-527
-791
-1483
-2152
-2221
-1795
-1258
-1040
-994
-401
-108
-1104
-1271
293
627
-314
169
866
263
367
1449
1685
1262
838
147
-442
-572
-648
-781
-825
-879
-913
-847
-826
-880
-859
-789
-778
-765
-694
-593
-385
-11
358
597
765
893
1064
1335
1466
1307
1078
894
721
425
-384
-1399
-1442
-507
-26
-398
-639
-390
-214
-305
-393
-435
-513
-509
-340
-114
114
373
631
851
1034
1184
1320
1362
1051
378
-198
-433
-627
-903
-986
-831
-706
-785
-1083
-1369
-1218
-687
-284
-36
154
-251
-1226
-1565
-561
1201
2547
2426
1082
96
258
824
1027
826
491
294
233
87
-171
-401
-538
-557
-493
-412
-253
-16
93
33
-11
42
166
340
460
421
261
73
-80
-133
-58
8
-29
13
144
161
416
1081
1043
-257
-1335
-1176
-812
-994
-1063
-701
-474
-550
-516
-354
-330
-256
26
198
265
667
1329
1789
2031
2220
2125
1577
933
539
292
-19
-397
-662
-717
-776
-974
-1138
-1242
-1240
-975
-824
-832
-363
-13
-429
-613
-1087
-2681
-2287
973
2102
162
-220
1302
1727
1248
1067
819
422
160
-124
-393
-502
-599
-716
-710
-612
-528
-490
-509
-539
-506
-373
-109
163
279
469
901
1167
1066
820
405
-71
-191
-11
149
100
-355
-798
-496
158
304
6
-354
-608
-533
-245
-179
-315
-396
-468
-484
-127
570
1173
1491
1708
1937
2068
2016
1869
1685
1317
724
187
-155
-508
-871
-1029
-1159
-1566
-2109
-2412
-2175
-1513
-1095
-923
-422
-364
-1297
-1667
-1298
-1489
-892
1228
1989
915
840
1916
2432
2273
1696
815
224
-31
-353
-605
-617
-598
-631
-607
-523
-456
-424
-396
-406
-445
-349
-129
-36
-29
180
500
580
425
322
424
612
682
703
827
928
1142
1672
1603
149
-1412
-1652
-1167
-990
-1038
-923
-660
-495
-572
-684
-584
-383
-222
-13
264
450
495
529
620
708
785
892
980
979
855
554
179
-46
-189
-374
-388
-289
-528
-1024
-1310
-1386
-1320
-966
-652
-707
-591
-240
-586
-1070
-3
1872
2487
1877
970
25
-365
119
688
816
714
511
239
-5
-209
-377
-497
-533
-453
-358
-343
-302
-204
-226
-391
-530
-583
-526
-293
-31
65
100
187
214
172
129
50
-12
36
122
131
9
-152
-130
-40
-249
-539
-391
-30
-40
-332
-515
-583
-547
-284
-16
-50
-189
-72
292
665
911
1113
1423
1775
1919
1786
1513
1188
822
438
40
-321
-541
-687
-807
-698
-473
-547
-641
-361
-202
-442
-698
-885
-933
-1188
-2313
-2595
-213
1876
890
-349
501
1487
1427
1242
1046
563
149
-119
-457
-749
-837
-844
-883
-817
-591
-456
-459
-332
-142
-59
109
225
-82
-413
-195
318
650
711
561
287
105
232
435
315
231
259
-669
-2063
-1596
443
1362
781
106
-411
-768
-529
-29
155
149
154
127
183
422
653
689
632
669
769
848
983
1183
1224
955
583
489
612
408
-66
-133
-17
-347
-498
50
323
-176
-686
-851
-684
-215
-318
-1230
-1196
416
1527
933
-50
-195
242
527
385
69
-204
-508
-823
-1014
-1099
-1154
-1183
-1172
-1081
-906
-734
-574
-344
-99
-22
-139
-250
-216
-141
-123
-90
-46
-100
-120
82
287
283
363
632
713
779
1069
611
-852
-1475
-624
-53
-378
-552
-307
-45
109
72
-57
-77
-93
-126
53
408
682
882
1201
1525
1635
1775
2058
1860
1006
338
204
92
-167
-390
-615
-822
-856
-780
-872
-1329
-1835
-1633
-698
-186
-619
-1089
-1301
-1578
-832
1320
2556
1776
825
732
898
1063
1120
883
569
312
13
-259
-484
-729
-862
-770
-563
-361
-144
105
224
88
-61
-12
80
141
209
129
-29
-60
-179
-401
-291
45
168
120
49
115
452
395
-461
-1000
-640
-465
-867
-1051
-844
-567
-250
-41
-106
-275
-392
-429
-283
12
285
516
695
726
726
859
1026
1191
1450
1603
1417
1016
589
225
-19
-276
-672
-1031
-1168
-1178
-1187
-1106
-915
-934
-1079
-754
-457
-1105
-1603
-657
694
1515
2169
2165
1100
258
441
855
892
726
521
259
26
-47
-59
-182
-250
-222
-470
-892
-897
-555
-356
-306
-294
-368
-359
-153
67
256
508
711
739
634
476
430
539
627
883
1366
1088
-379
-1553
-1338
-626
-427
-551
-490
-230
-82
-169
-324
-443
-558
-570
-353
-1
299
494
644
789
904
957
982
1052
1140
1062
714
308
-10
-435
-992
-1457
-1863
-2067
-1598
-817
-512
-429
-325
-575
-734
-746
-1513
-1835
-467
331
-245
256
1313
794
113
670
1166
1027
836
558
170
-93
-279
-380
-337
-272
-187
-23
111
190
264
251
132
29
-16
-56
-95
-30
203
457
639
816
810
511
348
430
337
330
619
146
-1215
-1655
-760
-117
-226
-420
-522
-452
-152
-68
-325
-419
-227
-85
32
286
372
163
153
474
619
475
415
499
496
410
379
387
416
409
30
-750
-1321
-1370
-1186
-947
-700
-521
-385
-361
-331
31
252
-177
-175
1025
2060
1938
1421
986
538
456
772
852
571
326
190
14
-198
-402
-580
-678
-652
-544
-437
-351
-233
-67
54
83
143
357
665
968
1211
1350
1497
1657
1398
620
5
-40
137
155
-36
-170
-166
-576
-1429
-1782
-1529
-1514
-1738
-1707
-1531
-1407
-1278
-1196
-1219
-1256
-1216
-1054
-761
-374
-3
249
441
647
800
904
1065
1272
1450
1513
1288
830
414
38
-370
-599
-690
-920
-1082
-854
-467
-344
-569
-699
-411
-343
-863
-1347
-1709
-1561
121
1646
918
146
1065
1644
1461
1796
1771
840
307
310
23
-405
-660
-833
-787
-491
-276
-251
-272
-296
-311
-276
-225
-125
128
459
715
914
1044
985
847
861
977
996
899
806
693
389
154
291
-1
-1198
-1742
-666
467
445
-55
-355
-500
-591
-587
-378
-143
-205
-327
-130
183
350
467
577
689
853
919
916
1130
1344
1195
977
759
44
-902
-1306
-1241
-1108
-957
-958
-1091
-959
-733
-700
-514
-419
-683
-304
136
-1085
-1861
-412
-114
-1407
-344
1613
928
5
974
1660
1292
1000
686
93
-364
-613
-741
-701
-596
-503
-351
-190
-147
-178
-175
-156
-143
-109
-57
4
92
233
474
703
671
467
438
551
591
658
879
1216
1475
1097
-11
-740
-489
-188
-398
-647
-770
-835
-656
-397
-389
-499
-515
-456
-357
-218
-34
157
175
13
4
227
346
278
249
246
200
229
229
-27
-402
-763
-1167
-1383
-1211
-930
-738
-594
-500
-328
-191
-336
-275
-265
-1519
-2416
-307
2458
2285
784
679
1255
1308
1101
953
848
678
384
210
250
171
8
127
218
-173
-545
-352
-45
-99
-241
-224
-176
-83
110
184
89
68
94
50
143
365
424
451
599
591
541
628
84
-1132
-1356
-168
672
410
-7
-165
-323
-430
-432
-474
-543
-518
-370
-135
80
162
178
281
439
523
548
582
653
786
917
961
930
685
96
-491
-760
-869
-888
-875
-1116
-1297
-827
-227
-283
-641
-752
-668
-449
-289
-649
-1228
-815
718
1366
51
-1032
-245
783
897
941
1002
649
391
459
369
56
-178
-247
-184
-33
65
45
22
25
-82
-248
-245
-78
98
264
413
475
436
302
181
233
324
260
284
533
622
539
676
591
-294
-1002
-409
755
1324
1146
277
-860
-1182
-633
-298
-429
-514
-524
-582
-502
-240
8
171
338
472
444
319
258
260
290
294
87
-396
-948
-1337
-1447
-1266
-920
-636
-616
-812
-873
-686
-589
-559
-342
-335
-484
-40
178
-582
-515
464
-4
-707
487
1282
459
413
1320
1526
1298
1084
541
23
-159
-340
-478
-366
-266
-218
61
355
373
408
429
-24
-555
-466
-155
-183
-223
17
342
627
769
638
405
333
400
421
360
369
376
198
193
365
-251
-1260
-812
625
809
-155
-683
-631
-420
-72
69
-214
-463
-367
-110
100
233
332
390
347
224
170
339
662
823
726
634
590
411
205
76
-156
-550
-1000
-1271
-1000
-470
-312
-294
-119
-217
-545
-658
-480
19
279
-54
279
799
-806
-2547
-1191
654
392
402
1472
1533
837
637
485
104
-69
-117
-227
-258
-167
-21
89
43
-95
-206
-372
-564
-564
-423
-330
-210
-5
154
262
360
361
320
392
511
516
409
379
534
609
499
478
34
-1375
-2255
-1276
-3
-11
-521
-583
-220
245
287
-95
-236
-74
-2
98
346
488
496
552
639
672
703
854
1123
1177
724
69
-324
-520
-742
-886
-892
-895
-897
-877
-792
-424
-37
-138
-253
-132
-557
-1042
-891
-1410
-2075
-378
2049
1970
717
462
597
717
1040
985
471
100
-87
-289
-433
-478
-457
-358
-212
-106
-14
231
481
346
166
541
903
572
200
267
214
-63
-112
-41
-86
-85
-18
-9
12
68
107
144
32
-268
-351
-182
-308
-633
-563
-265
-197
-228
-173
-141
-187
-304
-427
-409
-243
-71
65
219
386
524
670
848
916
743
426
147
-60
-301
-595
-794
-909
-1082
-1084
-762
-564
-539
-314
-269
-332
237
233
-1165
-1467
-412
-817
-1188
853
1934
284
-451
667
1181
943
908
768
459
286
88
-120
-100
-4
-25
-5
186
402
481
473
520
606
622
630
715
734
628
650
894
1051
881
504
197
137
168
84
159
338
-283
-1434
-1378
-165
330
-163
-523
-535
-465
-324
-304
-505
-663
-674
-644
-504
-193
70
203
408
527
251
-42
95
349
414
421
303
-73
-418
-527
-690
-1079
-1390
-1410
-1313
-1184
-882
-488
-246
-186
-159
3
225
172
48
526
1358
1616
1267
805
266
-124
158
855
1155
885
470
148
-122
-362
-528
-573
-499
-418
-405
-395
-356
-349
-370
-353
-299
-221
-82
102
266
491
799
882
741
904
1204
881
217
44
233
276
134
46
279
446
-227
-1167
-1135
-528
-484
-889
-1000
-653
-256
-234
-466
-572
-562
-537
-355
-71
72
119
233
344
382
415
439
455
550
675
686
558
298
-17
-246
-483
-814
-982
-926
-953
-1030
-917
-724
-559
-327
-31
220
180
-303
-733
-470
476
1526
1817
1088
353
353
506
449
517
565
270
-90
-238
-343
-531
-666
-627
-475
-325
-188
-68
-32
-55
-49
-47
-78
-29
168
430
593
515
315
267
343
423
601
751
561
229
182
169
-419
-1242
-1181
-293
91
-271
-405
-189
-56
182
529
599
541
674
817
747
529
305
181
172
208
225
219
243
298
322
311
236
-13
-393
-758
-1120
-1483
-1758
-2054
-2399
-2352
-1732
-1099
-834
-644
-307
-34
48
136
330
368
-142
-1087
-1215
557
2630
2370
534
-10
899
1458
1339
1179
998
705
448
227
-14
-211
-283
-212
-46
133
264
282
194
137
181
205
173
208
285
333
489
761
929
991
1032
1000
1066
1251
948
171
50
489
-72
-1223
-929
370
716
237
-99
-379
-481
-110
152
-88
-345
-342
-306
-264
-24
325
508
580
737
825
682
560
577
484
276
127
-77
-387
-583
-679
-880
-1151
-1390
-1604
-1667
-1394
-987
-762
-601
-481
-611
-527
-99
-282
-429
805
1193
-1008
-2303
-763
477
325
569
1004
786
345
-196
-772
-914
-866
-1047
-1195
-1132
-1045
-989
-885
-738
-672
-760
-809
-694
-660
-827
-900
-703
-381
-102
40
96
243
465
576
566
547
590
630
514
443
604
297
-685
-966
-204
18
-482
-319
268
153
-208
-54
140
-30
-124
107
415
693
971
1115
1149
1325
1514
1446
1428
1692
1823
1739
1748
1549
883
351
303
291
82
-57
22
200
375
