# session 22
-35
9
59
57
-1
-40
-19
14
-8
-64
-107
-161
-218
-189
-100
-100
-236
-384
-402
-279
-118
-1
62
97
138
166
120
45
36
59
67
76
33
-63
-50
28
-58
-180
-53
169
196
97
37
6
-10
-20
-99
-202
-141
21
32
69
355
479
346
447
382
-413
-940
-432
125
112
83
186
169
130
151
164
176
146
40
-6
107
249
243
175
277
454
449
366
416
464
319
101
25
66
29
-54
-4
81
34
-44
-79
-97
-65
-64
-99
5
-20
-449
-629
-182
104
-85
-145
-17
-29
-72
-70
-30
221
570
756
870
841
397
-174
-388
-300
-201
-237
-376
-416
-333
-322
-375
-400
-422
-379
-291
-358
-531
-574
-484
-406
-389
-325
-161
-82
-61
111
-15
-709
-977
-339
144
13
-48
102
142
138
171
157
147
179
208
233
241
198
143
124
123
120
111
104
137
167
110
106
272
418
575
893
876
210
-295
-148
11
-104
-107
-66
-183
-171
-74
-265
-427
-140
123
-36
-215
-147
-40
38
157
267
325
350
353
338
283
170
58
14
19
3
-80
-185
-228
-209
-191
-197
-201
-186
-160
-143
-128
-104
-106
-137
-139
-95
-60
-31
35
92
108
201
360
421
532
797
723
141
-244
-130
0
-39
-69
-109
-158
-134
-127
-164
-132
-96
-161
-214
-193
-212
-247
-187
-89
-55
-70
-86
-61
39
139
128
62
87
172
156
37
-50
-59
-54
-67
-69
-55
-99
-163
-59
138
114
-91
-185
-167
-165
-156
-159
-186
-148
-108
-120
-9
174
242
363
480
155
-349
-383
-152
-117
-144
-121
-172
-210
-142
-60
-6
7
-49
-96
-94
-102
-74
40
169
326
454
384
331
363
-110
-863
-757
-28
153
-38
49
115
-49
-63
117
173
72
27
128
250
245
164
160
200
146
59
54
83
106
139
145
209
453
713
861
1028
1002
443
-188
-246
-39
-104
-265
-236
-212
-354
-406
-191
-16
-162
-397
-427
-354
-348
-341
-275
-229
-212
-156
-80
-21
63
146
136
85
81
48
-53
-115
-126
-157
-153
-105
-126
-155
-76
0
-23
-42
-38
-90
-134
-106
-111
-128
-28
39
-36
2
65
-217
-481
-151
450
640
289
-157
-211
17
79
2
19
49
33
43
37
28
77
82
10
9
77
99
118
191
240
261
323
354
308
293
309
223
54
-48
-42
-9
-29
-101
-143
-139
-186
-263
-186
35
136
32
-106
-184
-229
-235
-196
-138
-80
-39
-8
3
-21
30
196
263
207
244
193
-186
-508
-434
-278
-289
-304
-248
-212
-159
-60
-48
-150
-190
-116
-55
-56
-102
-157
-55
209
308
166
3
-228
-430
-187
236
241
60
79
125
119
150
130
80
85
61
30
97
164
128
110
152
103
-21
-12
100
91
-11
-16
45
44
52
131
213
409
740
688
69
-368
-268
-150
-135
-24
-129
-425
-298
91
54
-216
-244
-209
-220
-79
41
-38
-36
156
302
345
371
369
336
272
150
22
-38
-72
-140
-200
-225
-266
-301
-266
-228
-235
-186
-126
-179
-206
-98
28
143
223
250
429
573
416
653
1139
323
-911
-72
1602
1373
184
-85
8
-218
-333
-259
-277
-368
-412
-368
-326
-416
-536
-553
-555
-596
-645
-714
-696
-511
-366
-341
-226
-15
122
217
291
222
103
126
150
87
152
191
-15
14
230
-273
-974
-528
351
357
63
161
199
47
3
-14
-40
50
159
193
191
191
278
383
359
467
764
586
-103
-424
-247
-157
-186
-155
-165
-163
-55
9
-50
-132
-118
-18
-2
-29
67
79
33
300
255
-714
-1247
-366
470
323
155
309
255
123
184
194
78
37
68
76
70
41
18
114
245
182
26
57
157
100
7
-9
6
88
142
44
33
178
220
332
599
398
-236
-422
-211
-223
-247
-155
-372
-609
-323
15
-89
-258
-248
-248
-230
-113
-22
16
88
185
264
329
367
364
305
181
33
-79
-146
-177
-186
-222
-277
-264
-206
-175
-121
-9
111
250
403
520
650
829
1004
1147
1057
520
-109
-393
-593
-869
-805
-464
-377
-481
-452
-396
-422
-430
-445
-535
-619
-629
-610
-586
-502
-338
-163
-25
65
133
247
337
229
24
-23
27
5
-17
17
51
113
205
235
203
165
151
171
142
39
37
99
-43
-212
0
334
326
168
172
214
171
107
57
46
53
22
52
157
163
161
343
515
568
616
423
-108
-422
-296
-156
-150
-102
-39
-26
-16
-12
-19
-24
-39
-55
-88
-107
21
161
109
132
155
-491
-1343
-1177
-223
489
529
-247
-1082
-704
270
387
37
92
221
130
83
141
197
229
231
219
202
160
112
90
123
180
119
3
106
327
440
618
741
321
-295
-331
-56
-120
-230
-18
-46
-557
-724
-284
-36
-174
-177
-67
-112
-141
-13
117
173
203
233
274
300
267
217
192
120
-28
-161
-209
-182
-158
-208
-275
-270
-243
-253
-252
-206
-129
-65
-54
-48
-34
-66
-91
-89
-103
0
87
-236
-566
-264
175
195
170
280
391
614
643
148
-272
-171
-16
-61
-61
2
1
-16
-6
-17
-59
-68
-27
-18
-43
-7
42
23
33
98
94
94
238
382
338
188
81
30
-28
-97
-112
-72
-82
-148
-140
-86
-130
-216
-193
-111
-84
-95
-101
-107
-118
-109
-95
-114
-94
30
106
81
163
307
337
418
414
-100
-652
-537
-205
-193
-183
-51
-75
-165
-177
-218
-221
-51
93
70
121
225
117
167
505
107
-963
-937
230
734
384
223
269
200
158
156
141
138
58
-38
10
80
31
-24
40
173
199
86
23
25
-62
-100
44
116
3
-75
-67
16
255
457
448
423
303
-128
-413
-257
-212
-375
-175
232
249
0
-128
-158
-157
-103
-100
-174
-149
-4
85
129
245
335
307
307
359
281
104
9
-51
-173
-277
-297
-262
-248
-311
-346
-270
-236
-292
-265
-148
-35
37
-1
-45
15
-78
-238
-52
-72
-790
-1096
-387
215
290
441
623
642
582
237
-232
-272
-49
-11
-63
-57
-32
7
20
19
64
62
-23
-59
-28
15
66
95
130
232
323
351
370
327
215
182
192
99
-14
-93
-232
-301
-141
52
78
8
-83
-168
-165
-75
-10
-15
-50
-85
-111
-127
-118
-88
-61
-27
-5
-36
-25
79
121
169
387
371
-170
-598
-466
-248
-225
-191
-191
-277
-266
-238
-298
-213
-37
3
57
-25
-520
-664
78
667
480
310
486
548
473
461
404
261
165
123
78
50
43
5
-16
63
119
32
-20
91
173
115
43
23
9
-26
-63
-48
12
45
11
-73
-59
134
236
172
280
347
-145
-721
-657
-273
-98
-68
-93
-205
-276
-231
-166
-135
-130
-138
-120
-48
37
102
152
188
210
237
265
258
188
86
-1
-113
-247
-237
-119
-169
-351
-396
-329
-264
-207
-231
-237
-50
76
-7
30
14
-460
-723
-167
387
293
146
287
327
250
389
605
617
648
764
483
-115
-310
-84
26
-28
-57
-80
-91
-60
-46
-52
-62
-99
-95
-16
23
12
121
338
432
369
345
387
313
165
136
55
-319
-629
-461
-139
-95
-168
-121
-55
-51
-50
-61
-89
-40
54
17
-97
-87
-37
-91
-117
-58
-45
-100
-195
-244
-64
154
124
161
358
97
-531
-704
-494
-447
-423
-299
-310
-321
-182
-168
-252
-189
-262
-569
-521
-49
221
212
301
469
562
612
604
517
420
331
238
160
96
62
74
75
20
-41
-32
51
87
-13
-102
-8
146
143
53
104
253
283
214
147
77
104
146
-8
-13
220
-70
-598
-234
332
-68
-578
-380
-185
-272
-189
-50
-94
-147
-120
-86
-60
-56
-50
25
120
136
128
173
208
205
235
245
147
66
94
81
-49
-190
-260
-247
-211
-246
-262
-151
-86
-103
-5
-61
-489
-549
104
517
268
67
153
189
178
211
231
240
184
77
146
315
357
528
815
533
-190
-383
-98
-99
-244
-120
-42
-165
-126
41
11
-105
-105
-109
-144
-62
39
-7
18
228
153
-327
-508
-134
188
137
-23
-119
-184
-221
-206
-181
-192
-181
-97
-37
-61
-56
30
97
99
73
37
-14
-81
-112
-81
-104
-182
-125
-5
0
56
176
148
179
298
7
-480
-455
-121
1
-25
-57
-16
69
-190
-651
-526
55
236
63
87
235
272
312
423
512
557
550
478
423
404
299
92
-70
-106
-79
-107
-220
-293
-248
-175
-170
-215
-232
-163
-54
30
82
67
17
7
-49
-123
-58
-159
-605
-720
-262
77
122
203
239
183
91
-199
-489
-403
-178
-141
-160
-137
-137
-132
-144
-166
-73
18
-95
-186
-51
65
56
105
201
290
497
704
650
477
412
318
159
131
118
-5
1
-60
-582
-922
-436
108
71
4
191
283
278
333
344
288
259
244
178
107
179
346
397
474
724
656
42
-398
-256
-56
-142
-250
-236
-247
-274
-174
-45
-51
-112
-136
-123
-69
-80
-112
26
1
-373
-333
317
582
198
-123
-208
-285
-303
-246
-192
-125
-100
-154
-164
-108
-89
-100
-96
-106
-127
-104
-50
-48
-71
1
92
43
7
83
-57
-370
-279
97
130
72
233
-79
-736
-409
516
292
-726
-984
-625
-351
-11
256
131
29
220
349
299
268
259
220
192
166
131
145
186
208
250
310
311
250
190
170
151
44
-92
-125
-116
-136
-118
-75
-23
86
128
32
1
56
52
117
199
-52
-375
-213
145
150
-65
-213
-262
-200
-98
-13
118
232
316
409
226
-256
-449
-251
-188
-274
-213
-167
-252
-232
-113
-130
-232
-218
-93
-9
-17
-24
36
110
186
310
415
424
416
413
306
197
226
95
-330
-464
-95
96
-122
-222
-59
82
98
36
17
145
242
157
57
22
-22
-10
20
-73
-114
-4
-54
-189
26
342
343
416
686
482
-121
-310
-137
-126
-175
-115
-70
-62
-88
-88
4
-145
-596
-631
-107
170
9
-31
157
307
386
430
382
254
139
60
-20
-78
-76
-104
-219
-294
-265
-237
-251
-263
-268
-264
-255
-221
-121
-32
14
117
180
67
-23
-1
-49
-95
-12
49
69
-11
-493
-977
-568
301
364
-202
-324
0
174
165
144
110
80
65
49
54
61
56
81
117
110
103
156
228
237
188
176
243
316
325
262
152
46
-8
-5
2
-44
-97
-98
-112
-173
-176
-82
8
20
4
37
75
12
-86
-104
-83
-61
-13
21
40
90
108
121
261
362
286
300
356
28
-455
-517
-322
-288
-320
-259
-230
-258
-245
-230
-260
-240
-131
-61
-42
43
113
87
167
316
272
295
418
-77
-890
-776
-17
188
-17
-11
78
121
184
144
32
30
73
51
31
73
148
191
150
73
32
-10
-46
-8
24
-13
-31
-20
35
219
367
407
624
765
251
-431
-446
-144
-121
-126
9
-53
-249
-222
-85
-105
-188
-166
-62
13
-8
-34
34
123
183
284
378
360
295
266
220
123
19
-77
-158
-204
-241
-286
-305
-251
-166
-200
-321
-271
-71
32
55
62
-1
4
55
-57
-79
4
-498
-1293
-1154
-249
270
322
445
682
747
395
-141
-264
-20
43
-56
-18
46
16
17
31
-25
-38
42
82
47
56
151
245
284
310
390
502
524
425
319
202
47
38
5
-472
-893
-560
-60
-85
-248
-219
-185
-155
-97
-103
-104
-42
-21
-60
-73
-46
-29
-23
16
51
44
39
8
-37
52
166
186
411
665
289
-336
-354
-114
-210
-327
-222
-149
-131
-78
-73
-60
-2
-53
-44
133
-179
-1020
-1104
-150
536
522
491
580
586
583
525
340
182
102
29
-9
-9
-29
-48
-28
-8
-9
7
46
53
21
14
16
-23
-22
49
62
15
8
10
-14
-38
-49
12
99
102
221
485
342
-267
-590
-428
-308
-365
-348
-245
-182
-157
-132
-121
-121
-97
-62
-69
-59
48
158
165
123
119
179
237
194
96
49
0
-90
-111
-73
-116
-227
-249
-161
-100
-87
-39
-22
-56
11
67
-4
57
50
-492
-895
-417
158
136
48
185
240
171
138
222
367
429
535
699
441
-186
-403
-139
-15
-94
-70
-13
-64
-102
-61
-49
-80
-80
-88
-96
30
235
299
262
291
348
363
375
360
265
115
-36
-116
-132
-205
-291
-232
-130
-170
-258
-248
-202
-221
-250
-128
185
464
543
597
768
914
1041
1224
1089
387
-317
-552
-612
-719
-725
-661
-665
-724
-827
-908
-841
-743
-805
-884
-809
-769
-831
-722
-602
-859
-1010
-483
156
311
323
440
446
344
294
277
250
211
157
145
224
328
346
284
248
258
217
151
179
249
240
200
216
215
158
252
516
596
547
747
819
353
-59
-76
-61
66
181
-320
-834
-420
158
50
-143
-5
83
56
67
58
71
181
286
362
472
522
445
349
286
209
145
101
20
-45
-31
-29
-75
-64
-32
-61
-48
33
34
-3
58
119
68
-41
-78
12
22
-74
82
147
-548
-1155
-588
246
273
67
190
298
233
197
181
78
16
163
359
469
712
913
491
-241
-416
-147
-76
-171
-157
-129
-190
-230
-202
-180
-183
-190
-231
-287
-234
-88
-45
-98
-60
1
-25
35
92
-242
-680
-563
-134
-78
-320
-448
-455
-444
-394
-348
-330
-281
-220
-198
-189
-163
-114
-37
-10
-104
-218
-242
-217
-205
-264
-373
-356
-240
-253
-255
-68
20
9
192
165
-367
-690
-456
-194
-130
-149
-168
-80
-250
-936
-1233
-579
80
148
118
216
300
395
482
550
665
723
663
626
625
546
420
336
275
190
116
99
120
149
147
77
48
133
131
26
132
381
451
