# session 29
23
447
665
344
-359
-877
-1035
-1055
-1047
-1032
-1051
-1071
-1043
-1010
-1012
-1033
-1068
-1104
-1095
-1066
-1095
-1160
-1195
-1212
-1203
-1135
-1047
-956
-798
-600
-446
-302
-163
-150
-245
-275
-244
-262
-288
-263
-247
-249
-217
-182
-165
-133
-111
-116
-89
-41
-28
-23
0
15
29
46
39
19
31
54
36
0
10
43
38
11
16
49
82
119
170
203
175
129
142
172
140
119
159
160
134
171
176
162
300
502
660
855
813
299
-146
-97
58
46
42
67
52
69
102
91
89
112
115
115
141
168
172
167
187
250
329
401
478
545
566
550
514
437
329
228
135
51
-5
-45
-80
-90
-74
-59
-54
-47
-33
-15
-8
-10
-2
4
-14
-33
-27
-14
-30
-56
-43
8
40
17
-30
-58
-68
-93
-124
-118
-106
-148
-181
-147
-155
-214
-138
22
60
116
235
36
-413
-535
-325
-222
-231
-186
-168
-203
-185
-129
-105
-94
-69
-49
-40
-25
-5
12
35
73
121
180
250
313
350
365
350
300
227
127
0
-102
-151
-187
-218
-212
-193
-192
-186
-173
-177
-173
-145
-132
-135
-123
-112
-113
-113
-114
-113
-105
-93
-61
-16
1
-7
-15
-33
-53
-43
-26
-19
-3
1
-9
20
29
-20
27
154
209
376
673
550
-21
-315
-176
-85
-130
-129
-118
-140
-139
-132
-138
-131
-117
-110
-91
-57
-27
3
38
75
124
188
251
308
363
396
383
333
262
172
74
-1
-48
-90
-130
-151
-158
-161
-158
-158
-169
-179
-178
-172
-167
-166
-177
-192
-192
-193
-210
-206
-183
-201
-216
-141
-42
-28
-53
-54
-56
-58
-29
-19
-49
-36
12
21
18
9
-24
64
274
406
546
689
411
-180
-374
-169
-102
-166
-103
-34
-93
-149
-93
-11
-4
-42
-47
-15
22
41
29
38
138
256
283
293
392
504
524
478
409
294
153
46
-15
-54
-75
-85
-92
-93
-91
-86
-83
-76
-41
2
17
77
212
331
492
791
1053
1221
1527
1827
1627
905
139
-311
-421
-381
-389
-442
-458
-461
-493
-527
-547
-571
-597
-629
-687
-761
-822
-863
-888
-876
-808
-675
-484
-265
-72
58
144
206
201
114
30
18
43
34
-32
-96
-97
-75
-97
-119
-90
-72
-111
-116
-51
-47
-107
-93
-58
-115
-158
-104
-62
-75
-81
-81
-99
-112
-92
-63
-86
-116
-44
50
8
-64
-12
36
-6
-2
52
48
40
69
38
-22
-4
41
35
26
36
14
10
97
198
218
167
86
50
104
151
137
130
102
67
124
154
88
168
353
423
572
753
447
-137
-260
-37
-12
-93
-49
-11
-16
19
-6
-87
-55
43
49
6
8
51
95
101
95
128
181
243
319
345
316
307
302
238
159
100
20
-76
-139
-180
-212
-227
-233
-230
-205
-184
-195
-206
-191
-176
-161
-129
-115
-148
-165
-114
-70
-91
-122
-125
-130
-147
-152
-130
-91
-72
-42
81
249
362
492
715
915
1083
1392
1754
1772
1240
442
-156
-389
-436
-457
-450
-427
-449
-489
-486
-461
-462
-492
-533
-587
-641
-665
-680
-729
-784
-789
-747
-677
-552
-382
-241
-134
-2
124
165
135
91
50
29
31
26
-1
-32
-41
-14
9
-15
-37
-10
11
-15
-29
10
41
23
0
5
18
30
42
37
25
32
43
48
50
35
25
40
39
-4
-24
9
33
-3
-53
-43
18
56
78
120
113
24
-15
49
91
63
13
-12
47
102
12
-3
231
406
471
667
639
104
-300
-179
-34
-109
-117
-28
-28
-74
-51
5
21
-12
-55
-47
4
31
34
65
115
166
233
293
341
426
498
477
438
432
358
202
68
5
-17
-65
-147
-161
-104
-106
-155
-147
-111
-81
-35
-32
-76
-65
-29
-38
-30
-4
-37
-80
-69
-74
-107
-93
-55
-69
-91
-16
153
300
382
506
672
759
893
1249
1512
1253
581
-119
-598
-781
-783
-773
-750
-685
-648
-649
-639
-623
-618
-608
-603
-615
-635
-656
-681
-706
-719
-715
-677
-602
-516
-417
-262
-78
40
80
117
142
118
90
80
60
53
87
116
119
127
144
156
165
171
177
193
213
216
208
199
183
163
156
153
140
122
103
87
87
90
71
47
38
30
31
57
61
19
6
80
173
198
173
150
136
122
112
114
133
141
115
115
154
117
58
164
325
426
651
790
374
-208
-267
-54
-55
-130
-120
-137
-163
-139
-143
-190
-206
-193
-185
-166
-125
-96
-93
-68
9
93
157
232
319
372
380
363
328
269
191
102
13
-60
-114
-161
-193
-204
-200
-193
-186
-178
-167
-155
-147
-141
-136
-128
-121
-127
-140
-131
-109
-105
-108
-103
-101
-98
-91
-91
-90
-75
-63
-58
-49
-46
-50
-51
-61
-71
-50
-27
-35
-18
51
101
96
70
45
39
61
58
26
36
60
42
38
42
3
40
176
265
387
541
336
-178
-380
-204
-112
-161
-145
-105
-110
-106
-86
-80
-78
-70
-62
-50
-35
-17
8
31
53
88
140
201
266
327
368
391
397
353
243
127
47
-28
-118
-176
-186
-196
-240
-286
-276
-221
-194
-205
-201
-183
-191
-212
-205
-173
-150
-157
-169
-150
-119
-114
-123
-117
-105
-104
-96
-79
-104
-142
-73
56
69
11
4
-8
-40
-12
2
-52
-56
-7
3
-17
-56
-52
118
311
388
541
632
237
-304
-345
-104
-67
-125
-86
-48
-62
-80
-101
-99
-51
-23
-53
-71
-31
18
39
59
96
145
213
302
405
497
530
502
464
411
296
141
22
-28
-25
-15
-35
-75
-85
-44
-5
0
40
153
297
514
820
1084
1314
1610
1743
1380
658
9
-340
-450
-471
-495
-524
-535
-529
-537
-595
-664
-657
-600
-610
-697
-782
-840
-878
-884
-852
-771
-613
-404
-225
-90
33
113
122
105
75
18
-21
-22
-36
-48
-16
-7
-49
-48
7
10
-39
-46
-6
20
22
29
47
62
63
56
53
50
48
52
55
47
33
25
31
41
37
22
12
9
3
1
9
9
-8
-10
9
12
-7
-15
-3
18
25
6
-4
23
37
13
9
34
31
6
9
23
4
-38
-50
-5
24
-24
-46
45
131
120
92
91
87
87
85
71
82
93
68
64
69
71
170
318
442
673
801
384
-220
-336
-149
-125
-175
-147
-132
-140
-128
-126
-133
-121
-104
-89
-68
-46
-29
-22
-11
29
88
128
166
225
276
290
292
286
243
175
113
50
-21
-76
-116
-152
-172
-177
-170
-150
-129
-84
-7
76
258
579
824
980
1253
1361
881
147
-268
-387
-453
-496
-511
-507
-467
-429
-431
-447
-444
-429
-434
-478
-548
-612
-651
-658
-630
-561
-448
-310
-168
-44
41
81
86
61
22
-7
-29
-53
-63
-57
-48
-37
-22
-15
-10
14
43
42
22
18
34
50
65
93
168
357
634
841
956
1130
1262
1115
894
874
766
327
-104
-270
-322
-355
-351
-365
-403
-410
-420
-464
-491
-495
-530
-581
-605
-628
-675
-716
-743
-753
-707
-595
-468
-357
-235
-100
-1
54
110
159
161
177
264
330
316
296
286
246
222
227
207
177
156
138
146
166
149
118
100
82
134
402
834
1146
1214
1098
693
37
-355
-265
-128
-176
-198
-155
-164
-184
-167
-165
-173
-160
-166
-193
-199
-202
-225
-229
-194
-139
-56
68
186
253
278
283
243
153
59
-36
-150
-214
-198
-193
-223
-225
-213
-210
-179
-144
-151
-159
-130
-99
-92
-97
-111
-136
-137
-98
-81
-113
-107
-26
52
72
62
71
134
232
334
478
651
761
910
1279
1650
1576
1018
355
-89
-254
-271
-289
-326
-333
-325
-332
-338
-344
-369
-399
-420
-455
-516
-583
-640
-676
-694
-698
-676
-610
-493
-349
-209
-87
8
67
98
110
103
90
81
67
57
60
68
73
74
69
68
77
84
79
72
69
66
52
32
19
13
7
1
-11
-39
-67
-53
10
65
62
23
-15
-39
-26
-1
-20
-43
-13
15
7
-8
-30
24
199
299
341
560
642
195
-265
-215
-27
-47
-81
-46
-46
-54
-50
-72
-85
-70
-66
-70
-59
-48
-43
-17
25
55
86
148
228
285
306
300
285
262
203
103
19
-29
-85
-139
-150
-144
-146
-144
-140
-145
-138
-110
-88
-81
-73
-56
-44
-53
-67
-59
-38
-29
-21
7
45
69
60
26
1
0
1
-5
-1
11
-5
-33
-19
-8
-51
-28
97
164
221
350
253
-133
-315
-152
-33
-57
-51
-35
-52
-36
-10
-27
-43
-24
-5
-9
-8
14
37
47
69
118
169
208
252
292
303
282
242
183
100
-6
-108
-173
-198
-207
-215
-217
-210
-191
-169
-160
-167
-165
-133
-96
-65
11
127
229
394
668
844
886
1087
1327
1076
403
-103
-280
-358
-409
-419
-436
-453
-449
-463
-497
-513
-530
-582
-633
-667
-713
-755
-772
-783
-764
-671
-536
-382
-197
-20
118
219
251
220
202
197
155
106
89
80
77
93
116
130
124
115
125
135
138
166
196
172
125
126
158
169
153
127
112
129
163
186
186
155
136
159
172
136
108
107
98
93
104
83
34
30
78
101
55
-8
-26
18
102
158
120
50
36
46
38
30
14
-8
-5
24
42
10
-3
138
318
372
419
402
58
-343
-360
-190
-149
-159
-148
-172
-199
-191
-171
-150
-141
-151
-154
-139
-120
-101
-74
-38
1
51
130
219
274
297
308
299
265
208
127
38
-50
-129
-180
-198
-221
-260
-278
-264
-239
-213
-190
-176
-163
-143
-127
-122
-117
-119
-145
-169
-157
-137
-158
-179
-133
-56
-11
-2
-29
-79
-87
-50
-47
-71
-49
-16
-21
3
28
-6
54
238
385
618
922
753
117
-207
-66
10
-54
-28
16
-17
-35
-8
3
-20
-46
-56
-64
-72
-57
-22
10
43
90
153
224
293
348
379
379
355
303
213
113
29
-46
-105
-128
-128
-133
-143
-139
-114
-100
-115
-115
-93
-101
-129
-116
-99
-148
-201
-174
-138
-191
-251
-199
-93
-47
-57
-84
-111
-120
-121
-133
-115
-61
-46
-74
-48
7
-21
-21
129
268
382
624
650
153
-316
-281
-110
-113
-133
-115
-125
-122
-110
-129
-139
-117
-108
-114
-100
-72
-47
-17
19
55
97
154
227
296
321
310
307
295
237
154
71
-16
-89
-121
-120
-121
-127
-114
-87
-81
-92
-90
-72
-48
-26
-20
-22
-10
2
-11
-43
-68
-70
-56
-55
-69
-53
9
60
54
10
-29
-54
-62
-49
-33
-33
-28
-9
9
26
20
13
100
224
272
341
387
141
-222
-260
-82
-36
-68
-39
-19
-35
-36
-32
-42
-44
-32
-22
-24
-41
-54
-29
6
-3
-14
34
109
176
241
268
244
221
193
110
15
-39
-84
-140
-166
-162
-160
-156
-148
-133
-106
-72
2
124
245
433
763
1025
1129
1373
1660
1389
556
-149
-414
-468
-499
-510
-501
-486
-465
-448
-450
-494
-568
-624
-658
-713
-775
-808
-831
-844
-799
-688
-528
-330
-152
-30
94
218
253
202
148
119
105
91
78
89
114
117
109
116
124
122
121
125
140
145
114
77
78
109
137
134
104
99
131
141
113
93
96
100
100
87
65
79
116
93
46
70
107
88
81
98
70
33
45
55
30
7
1
-9
-30
-30
-8
-21
-64
-60
-37
-63
-83
-86
-131
-126
-13
48
-6
-46
-42
-53
-67
-69
-75
-82
-80
-51
-47
-106
-46
193
331
340
415
300
-144
-396
-244
-123
-176
-185
-147
-144
-139
-129
-139
-140
-131
-124
-109
-93
-87
-74
-50
-26
10
61
119
176
225
250
261
260
229
172
117
70
23
-28
-83
-118
-117
-123
-170
-188
-134
-92
-105
-91
-34
-2
4
25
45
56
74
97
146
236
347
533
803
990
1121
1489
1985
2033
1439
622
13
-273
-348
-369
-397
-418
-440
-469
-494
-511
-528
-548
-579
-613
-646
-687
-721
-729
-728
-711
-639
-506
-359
-222
-85
38
112
131
121
102
84
62
26
-3
1
7
-10
-20
-11
-13
-27
-29
-35
-55
-58
-41
-37
-59
-95
-120
-104
-85
-112
-141
-124
-108
-118
-117
-103
-92
-75
-54
-36
-18
-11
-12
0
7
-18
-36
-17
0
-14
-18
18
65
77
56
24
-15
-45
-51
-51
-57
-54
-52
-56
-45
-53
-79
-1
157
283
430
486
153
-317
-396
-214
-169
-195
-151
-139
-179
-180
-151
-148
-158
-151
-126
-100
-73
-36
-9
-6
7
56
122
191
263
313
343
375
386
345
282
228
164
92
44
11
-23
-34
-27
-36
-43
-15
30
90
187
312
520
862
1161
1294
1490
1755
1570
782
10
-271
-273
-319
-376
-328
-263
-272
-288
-309
-394
-479
-505
-553
-644
-701
-728
-779
-810
-751
-630
-493
-330
-139
45
166
214
238
236
177
112
91
87
92
95
78
81
111
128
156
193
176
139
139
134
131
164
172
137
139
167
148
106
105
128
128
114
120
117
75
47
79
100
63
41
70
72
37
47
70
37
16
44
29
-24
-22
-2
-40
-94
-112
-103
-107
-145
-172
-127
-44
-8
-26
-48
-54
-59
-74
-85
-71
-62
-84
-75
-51
-102
-105
71
243
344
484
385
-107
-439
-315
-191
-274
-321
-305
-338
-362
-345
-348
-363
-358
-348
-346
-337
-316
-292
-270
-243
-203
-160
-116
-50
27
65
56
52
51
6
-84
-168
-227
-282
-338
-385
-415
-420
-402
-397
-406
-382
-337
-331
-344
-314
-264
-244
-243
-243
-244
-231
-199
-171
-166
-145
-48
100
219
299
400
574
804
981
1093
1361
1831
2054
1641
880
341
168
142
141
178
215
217
223
250
266
265
270
275
263
