# session 56
15
91
152
302
447
524
596
409
-113
-426
-324
-226
-267
-247
-177
-160
-180
-201
-203
-183
-171
-198
-249
-263
-220
-192
-200
-162
-81
-27
20
87
111
60
-14
-61
-77
-96
-140
-160
-143
-150
-178
-163
-123
-126
-157
-157
-127
-110
-117
-105
-48
16
34
2
-37
-50
-44
-39
-49
-58
-24
19
-9
-10
140
277
340
515
577
193
-207
-158
9
-8
-30
4
0
-15
-8
9
32
37
38
66
86
93
141
213
263
303
340
356
346
309
238
148
57
-24
-73
-87
-86
-88
-92
-82
-62
-58
-75
-94
-100
-85
-76
-104
-117
-50
26
24
-20
-39
-31
-36
-45
-24
-5
-11
34
111
139
225
396
482
569
710
503
-59
-342
-237
-203
-266
-223
-178
-200
-180
-140
-153
-174
-159
-149
-172
-204
-207
-176
-139
-112
-87
-52
0
43
37
4
-16
-45
-97
-131
-136
-139
-142
-135
-122
-104
-83
-64
-56
-60
-64
-41
-5
4
1
35
90
105
80
55
34
7
-14
-12
-7
-10
11
29
-6
-7
82
155
275
511
498
64
-271
-212
-97
-110
-127
-122
-117
-99
-102
-106
-65
-23
-18
-9
19
62
129
192
237
295
349
357
346
329
266
163
59
-29
-70
-65
-81
-120
-121
-100
-102
-105
-110
-142
-151
-96
-62
-115
-151
-72
20
-5
-52
-1
43
-25
-85
-48
-11
-26
-6
29
-36
-82
86
286
308
323
302
-21
-380
-352
-147
-112
-150
-103
-40
-67
-125
-82
-3
-32
-79
-24
43
56
84
156
238
309
358
378
360
293
181
55
-45
-104
-150
-191
-206
-208
-212
-209
-200
-195
-181
-160
-163
-179
-151
-113
-145
-185
-122
-16
8
-24
-39
-47
-69
-77
-59
-60
-68
-17
23
-28
-11
148
288
464
713
625
124
-202
-144
-66
-91
-92
-75
-74
-59
-25
6
10
-4
3
30
56
94
142
180
214
262
297
296
275
238
165
77
6
-50
-97
-114
-104
-106
-121
-111
-94
-101
-105
-91
-103
-123
-107
-96
-128
-134
-72
-6
8
-15
-32
-37
-55
-72
-50
-30
-53
-66
-55
-74
-58
36
113
190
262
93
-263
-369
-196
-98
-116
-101
-80
-85
-67
-43
-43
-39
-18
4
27
60
96
132
173
221
265
295
297
266
210
136
48
-34
-89
-120
-132
-131
-129
-121
-97
-80
-85
-77
-56
-68
-104
-109
-85
-78
-87
-73
-34
-4
8
0
-42
-76
-70
-75
-91
-63
-30
-37
-47
-50
-7
127
243
344
508
435
-34
-364
-253
-120
-157
-133
-47
-47
-78
-54
-14
3
17
30
37
76
147
181
194
273
371
390
374
381
344
230
128
65
-25
-120
-145
-111
-95
-128
-155
-137
-122
-132
-117
-101
-126
-129
-95
-119
-165
-116
-12
30
8
-22
-42
-68
-79
-47
-33
-72
-66
-15
-41
-53
95
242
290
349
245
-155
-416
-265
-68
-62
-84
-67
-61
-44
-25
-28
-26
-13
-8
13
54
81
109
169
233
273
295
296
268
217
135
26
-63
-115
-162
-214
-241
-237
-213
-190
-182
-174
-152
-142
-154
-156
-140
-141
-161
-174
-154
-92
-22
-2
-28
-48
-45
-48
-51
-31
-23
-35
-7
20
3
52
162
258
510
814
621
16
-261
-118
-39
-97
-109
-97
-99
-83
-66
-66
-65
-64
-53
-20
31
83
127
166
210
262
306
317
280
210
137
70
-1
-64
-96
-95
-84
-84
-94
-90
-67
-53
-57
-58
-49
-56
-80
-88
-49
3
-3
-40
-15
60
88
43
-23
-58
-52
-46
-65
-70
-43
-14
0
-12
-11
73
178
243
362
395
89
-278
-279
-102
-63
-82
-69
-91
-123
-118
-116
-128
-121
-104
-97
-91
-65
-14
39
89
150
202
224
224
209
173
117
36
-54
-106
-113
-130
-162
-164
-150
-167
-184
-161
-141
-143
-138
-143
-177
-174
-112
-78
-86
-54
21
67
54
21
10
15
12
5
-2
0
29
39
15
75
221
325
446
548
315
-154
-317
-130
0
-32
-83
-90
-74
-73
-65
-26
-27
-46
19
77
32
17
123
244
291
299
344
404
388
296
185
73
-12
-62
-117
-156
-148
-154
-177
-153
-117
-125
-134
-123
-111
-99
-108
-147
-146
-108
-137
-178
-96
20
17
-28
-8
-8
-69
-75
-12
16
24
60
40
-16
99
349
519
690
845
578
-28
-321
-217
-155
-199
-189
-166
-177
-179
-173
-176
-175
-165
-151
-135
-124
-107
-76
-43
-14
11
36
64
75
50
5
-34
-73
-113
-146
-164
-161
-143
-139
-154
-153
-116
-82
-84
-85
-70
-72
-86
-82
-73
-62
-18
45
85
98
81
35
6
13
25
45
70
65
64
89
68
51
124
207
341
601
606
129
-268
-208
-66
-83
-96
-63
-55
-55
-49
-46
-33
-16
-3
15
42
83
128
168
210
249
281
310
311
262
197
139
69
0
-45
-71
-72
-62
-76
-92
-78
-65
-68
-69
-80
-91
-70
-55
-77
-74
-17
35
61
88
106
83
40
6
-27
-51
-57
-71
-68
-7
65
122
191
226
246
383
624
887
1085
881
172
-412
-451
-349
-411
-439
-378
-379
-413
-403
-408
-444
-450
-451
-503
-550
-551
-584
-639
-596
-479
-393
-309
-178
-54
23
49
22
-4
-1
-16
-28
19
47
0
-16
50
97
87
79
87
89
89
72
46
69
135
169
192
263
290
201
130
154
151
93
90
118
88
65
104
102
59
130
280
369
487
580
309
-165
-289
-118
-61
-89
-60
-53
-69
-43
-23
-24
-8
16
46
84
107
127
167
222
286
341
357
354
342
272
150
49
-30
-108
-140
-133
-156
-194
-187
-156
-131
-96
-72
-77
-73
-64
-94
-135
-145
-130
-95
-42
5
41
62
41
-11
-37
-40
-67
-90
-52
8
41
103
204
263
321
479
711
984
1147
836
112
-383
-403
-333
-366
-376
-353
-356
-372
-391
-411
-409
-410
-447
-495
-515
-516
-516
-510
-488
-450
-385
-272
-143
-64
-35
-22
-36
-72
-77
-54
-37
-21
-2
5
14
34
39
37
56
76
71
52
37
33
47
85
142
182
178
161
159
158
143
123
109
99
91
96
104
98
106
115
78
79
185
280
353
454
356
-18
-254
-165
-38
-7
4
-11
-23
28
68
40
17
47
97
119
111
117
162
210
259
340
413
431
414
375
293
177
57
-43
-103
-123
-138
-167
-192
-198
-188
-167
-158
-173
-182
-163
-151
-171
-188
-184
-184
-172
-114
-41
-20
-56
-83
-70
-77
-134
-154
-85
-4
34
81
173
251
312
472
718
851
792
615
295
-137
-423
-432
-368
-364
-345
-329
-353
-334
-290
-320
-362
-356
-377
-428
-452
-459
-459
-431
-374
-283
-161
-44
42
97
111
83
57
47
21
-14
-21
-19
-32
-33
-4
43
70
55
40
67
102
109
87
46
24
44
60
46
52
105
151
136
81
52
55
51
48
69
75
67
93
89
35
94
238
315
472
663
427
-119
-317
-155
-80
-122
-131
-132
-127
-105
-107
-112
-87
-61
-48
-30
3
48
102
163
231
282
307
339
365
330
242
158
92
32
-27
-84
-110
-98
-91
-106
-115
-104
-92
-90
-96
-101
-104
-120
-147
-143
-86
-19
18
50
85
80
51
38
16
-18
-22
-1
34
96
161
227
307
339
362
522
737
854
909
787
310
-191
-315
-253
-285
-320
-296
-307
-326
-309
-319
-356
-363
-373
-420
-448
-450
-475
-504
-486
-436
-373
-284
-178
-87
-29
9
26
2
-42
-58
-60
-81
-92
-75
-67
-72
-82
-100
-102
-89
-92
-80
-42
-63
-130
-127
-53
5
34
56
61
41
2
-31
-34
-18
-19
-29
-25
-22
-8
30
18
-21
73
247
373
537
560
138
-309
-253
-42
-78
-131
-56
-1
20
36
16
30
112
141
90
90
182
251
257
304
421
512
534
536
527
465
348
234
150
56
-51
-97
-80
-85
-114
-117
-115
-122
-115
-105
-106
-91
-68
-78
-106
-94
-62
-94
-144
-88
25
40
-33
-66
-44
-43
-71
-71
-27
13
44
127
245
350
489
691
946
1224
1223
651
-92
-384
-315
-295
-337
-326
-313
-328
-341
-350
-366
-397
-440
-464
-469
-490
-522
-530
-511
-482
-432
-350
-250
-161
-91
-41
-27
-49
-71
-84
-100
-110
-111
-107
-92
-74
-65
-51
-32
-21
-9
1
-10
-32
-43
-38
-19
5
44
104
147
135
94
60
42
35
29
35
56
55
46
67
64
58
147
238
283
423
471
135
-228
-195
-32
-32
-55
-16
-4
-11
-3
2
13
39
58
71
102
152
196
236
302
375
401
407
428
410
335
264
187
67
-27
-41
-39
-64
-68
-41
-49
-92
-95
-64
-70
-92
-82
-83
-112
-117
-106
-101
-63
-3
8
-19
-28
-34
-67
-104
-114
-112
-120
-90
3
69
100
178
234
246
412
703
869
911
818
388
-177
-415
-392
-414
-437
-375
-345
-394
-445
-441
-408
-415
-462
-488
-502
-537
-564
-553
-515
-462
-388
-274
-143
-43
40
123
132
55
9
33
37
-3
-14
3
-4
-10
20
40
32
48
85
95
96
89
51
30
62
92
108
154
193
164
115
104
92
60
54
78
89
70
69
126
134
48
85
273
359
425
586
434
-78
-307
-143
-56
-95
-73
-48
-43
-13
-26
-66
-37
17
24
35
76
109
134
179
240
302
350
374
370
329
240
134
48
-28
-107
-155
-165
-169
-177
-174
-170
-166
-155
-146
-144
-134
-119
-122
-142
-156
-144
-111
-74
-38
-6
-2
-38
-89
-107
-89
-86
-105
-90
-52
-32
32
147
229
332
485
617
855
1163
983
235
-308
-312
-231
-280
-298
-274
-279
-282
-267
-262
-270
-279
-284
-291
-302
-313
-318
-306
-281
-246
-188
-113
-47
1
31
30
1
-32
-53
-65
-83
-90
-66
-38
-36
-36
-18
-8
-1
20
21
-13
-36
-30
-16
-11
-6
22
73
100
78
40
22
19
4
-24
-36
-22
-7
6
10
8
33
47
27
98
262
358
442
494
213
-243
-332
-132
-76
-126
-96
-67
-100
-124
-95
-37
-18
-54
-67
-36
9
74
138
158
188
285
381
394
349
312
271
154
-7
-91
-100
-136
-184
-183
-163
-148
-134
-135
-136
-122
-126
-127
-102
-105
-135
-126
-98
-76
-10
84
128
121
94
59
34
18
4
5
22
52
106
180
264
338
389
482
693
977
1243
1305
903
189
-266
-296
-250
-287
-301
-279
-269
-270
-277
-282
-286
-314
-347
-353
-384
-450
-472
-448
-435
-407
-341
-269
-188
-104
-47
-16
-26
-68
-77
-68
-95
-114
-91
-70
-63
-44
-19
3
17
22
29
39
23
-13
-13
38
88
103
93
72
45
23
6
-12
-32
-54
-60
-38
-33
-50
-30
-22
-62
-18
102
171
310
481
271
-210
-361
-196
-132
-158
-136
-131
-137
-114
-117
-130
-105
-85
-85
-59
-26
-17
23
109
172
209
272
336
349
323
273
185
84
16
-24
-58
-70
-63
-67
-64
-33
-12
-23
-23
-3
-3
-13
-5
6
2
-8
-6
38
115
159
148
142
149
112
56
62
91
68
58
124
176
186
254
332
317
364
615
880
1010
994
663
64
-309
-290
-232
-281
-300
-281
-279
-300
-362
-407
-367
-352
-447
-512
-481
-491
-549
-529
-459
-414
-333
-207
-116
-24
95
118
35
14
56
36
-4
1
-17
-52
-32
-2
-11
-20
-18
-17
-9
-14
-48
-62
-56
-77
-98
-71
-22
20
50
46
13
-15
-37
-46
-35
-41
-52
-24
-5
-19
-4
3
-13
71
222
337
520
614
260
-234
-305
-131
-111
-145
-103
-85
-104
-90
-58
-40
-28
-16
5
40
66
83
120
182
246
313
370
379
361
346
296
190
81
9
-37
-68
-92
-121
-135
-107
-72
-76
-96
-98
-96
-86
-61
-71
-103
-98
-83
-78
-36
27
63
86
93
63
39
34
10
-17
-22
-26
-10
51
119
179
245
313
407
555
782
1095
1211
742
-23
-395
-344
-307
-354
-351
-337
-337
-318
-313
-338
-354
-351
-359
-393
-430
-443
-434
-432
-436
-404
-311
-204
-127
-54
19
37
6
-14
-23
-46
-64
-59
-48
-44
-40
-30
-17
-6
2
11
24
40
52
59
56
44
53
102
162
184
154
99
65
62
56
35
23
16
10
11
1
-3
30
25
-11
71
215
304
469
564
200
-302
-339
-113
-72
-119
-92
-69
-65
-34
-16
-35
-45
-22
4
32
82
107
112
197
313
341
366
469
503
384
241
164
99
-15
-134
-162
-123
-130
-181
-197
-177
-161
-159
-179
-191
-156
-128
-163
-195
-161
-126
-166
-223
-179
-51
18
-12
-45
-42
-46
-71
-90
-102
-113
-101
-53
15
94
174
242
346
532
771
1066
1306
1101
370
-274
-405
-333
-363
-394
-358
-334
-332
-324
-322
-332
-341
-338
-334
-360
-404
-418
-413
-431
-443
-388
-277
-163
-65
19
66
60
24
-8
-28
-41
-58
-80
-66
12
135
312
485
573
747
1143
1423
1338
1124
846
354
-102
-239
-230
-257
-279
-311
-384
-436
-451
-482
-543
-615
-675
-699
-698
-692
-653
-550
-410
-252
-83
60
151
199
203
164
122
106
116
134
127
102
109
135
131
123
145
168
167
165
171
169
158
150
153
148
128
112
105
98
90
83
75
72
68
61
66
75
74
74
73
62
60
68
61
50
58
70
67
59
57
49
37
44
88
146
167
141
105
73
40
24
24
0
-32
-21
-7
-34
-50
-48
-74
-52
41
110
256
505
415
-124
-493
-407
-271
-284
-289
-276
-312
-341
-318
-290
-303
-327
-314
-288
-288
-283
-239
-183
-138
-103
-68
-23
-2
-33
