# session 46
5
22
52
84
112
137
160
195
235
268
318
377
394
370
290
172
123
86
-78
-186
-70
12
-103
-181
-104
-38
-60
-97
-104
-61
33
75
-4
-86
-85
-89
-134
-157
-159
-161
-169
-225
-242
-85
93
166
276
284
-63
-408
-364
-210
-171
-101
-54
-138
-151
-34
2
-20
29
20
-49
23
111
36
17
180
347
423
395
393
492
212
-503
-658
-78
187
-21
-22
115
45
-57
-18
59
77
36
27
86
129
140
155
119
57
79
122
65
11
78
132
103
157
289
368
488
549
217
-251
-322
-141
-68
-67
-79
-130
-150
-145
-181
-201
-179
-200
-240
-195
-135
-161
-129
56
170
118
133
212
101
-109
-150
-146
-305
-453
-403
-332
-414
-506
-443
-329
-319
-346
-310
-262
-212
-137
-171
-267
-114
210
315
206
109
69
61
12
-60
12
187
327
432
277
-226
-532
-393
-258
-259
-182
-143
-215
-203
-142
-176
-181
-106
-107
-122
-17
87
108
133
203
291
289
205
348
695
764
570
406
192
196
791
1318
1129
752
658
577
400
292
258
238
200
113
29
-11
-67
-146
-155
-106
-124
-171
-125
-96
-155
-93
58
106
265
480
157
-496
-606
-295
-249
-355
-294
-265
-347
-326
-240
-245
-265
-228
-219
-225
-146
-21
40
48
101
206
280
277
229
156
48
-77
-163
-177
-165
-174
-193
-205
-191
-142
-130
-176
-144
-29
1
-27
10
3
-92
-99
-31
-61
-131
-104
-66
-110
-105
34
130
169
363
454
34
-465
-471
-294
-315
-345
-283
-271
-288
-276
-264
-240
-202
-161
-103
-52
-23
24
74
125
232
304
260
250
290
182
-11
-70
-47
-82
-141
-159
-151
-148
-143
-109
-73
-75
-72
8
110
109
36
23
32
-34
-77
-5
63
73
92
99
114
237
363
432
580
581
133
-327
-284
-17
54
-12
-44
-7
51
38
-27
-3
119
183
146
143
232
298
291
333
475
583
567
484
375
220
69
-19
-106
-213
-227
-164
-193
-306
-338
-273
-244
-283
-253
-116
-28
-56
-92
-98
-123
-159
-182
-194
-165
-97
-113
-234
-198
59
178
209
548
749
184
-469
-409
-121
-145
-204
-145
-125
-131
-120
-121
-106
-82
-72
-18
74
113
117
171
261
314
314
304
296
255
181
105
20
-46
-40
-42
-111
-113
-35
-38
-69
16
102
80
92
233
409
552
679
788
885
989
935
510
-77
-393
-439
-484
-555
-572
-575
-604
-663
-740
-791
-801
-808
-823
-825
-812
-779
-711
-590
-416
-228
-65
64
128
105
67
51
-1
-53
-27
19
21
22
39
37
9
-13
27
77
21
-60
-25
27
1
7
73
117
179
279
330
351
400
404
334
277
272
282
281
275
276
260
254
323
437
633
955
968
355
-213
-160
27
-37
-87
-58
-66
-74
-109
-85
60
-83
-524
-513
-17
206
128
196
334
332
284
287
291
211
58
-65
-137
-214
-272
-270
-257
-270
-269
-234
-216
-243
-246
-176
-106
-103
-114
-101
-115
-164
-169
-142
-180
-218
-128
-62
-158
-122
155
265
174
195
88
-318
-526
-332
-72
-46
-394
-745
-500
-1
73
-51
6
58
23
43
111
174
239
313
423
518
529
525
495
341
177
134
92
-21
-97
-79
-18
-20
-98
-94
-1
21
4
41
83
133
184
125
-15
-104
-145
-170
-175
-166
-135
-127
-179
-128
62
144
141
189
14
-392
-485
-240
-154
-231
-200
-141
-165
-181
-159
-150
-142
-134
-136
-93
6
66
78
159
295
332
291
312
338
211
21
-39
-39
-122
-176
-115
-94
-137
-81
25
15
-31
10
51
51
95
144
120
82
79
62
49
88
123
116
90
52
97
283
402
485
804
938
344
-349
-376
-110
-77
-156
-169
-144
-109
-109
-149
-164
-163
-182
-182
-142
-102
-71
-16
67
143
191
207
190
138
56
-31
-94
-134
-165
-175
-167
-190
-248
-242
-170
-159
-177
-114
-89
-123
-37
-5
-139
-61
-15
-577
-984
-452
120
46
-79
31
207
362
200
-206
-311
-202
-216
-135
81
129
69
92
120
96
79
89
119
147
138
121
168
263
316
349
434
484
453
470
516
435
294
217
141
46
28
54
16
-49
-47
-26
-23
-17
-96
-148
77
106
-526
-914
-386
49
-199
-338
-155
-145
-195
-135
-163
-92
201
283
205
340
255
-305
-571
-281
-123
-267
-301
-193
-150
-190
-240
-209
-73
16
-30
-72
4
142
254
308
356
456
479
332
223
170
-144
-519
-422
-96
-79
-197
-152
-125
-200
-179
-65
-46
-89
-18
128
175
116
77
58
9
33
160
195
104
80
89
64
158
303
370
585
776
381
-233
-286
-31
-30
-125
-110
-121
-177
-181
-153
-138
-127
-134
-156
-142
-80
-12
64
158
229
265
283
258
183
77
-45
-123
-141
-172
-186
-156
-224
-320
-215
-72
-123
-179
-109
-62
-43
10
9
-50
-62
-30
-4
4
-16
-3
71
80
56
197
358
375
486
585
221
-280
-283
-35
2
-43
-3
12
-38
-56
8
79
54
3
56
130
102
71
138
203
191
180
213
243
225
143
26
-55
-72
-87
-125
-156
-174
-179
-169
-203
-285
-309
-255
-214
-212
-216
-247
-292
-278
-218
-204
-230
-224
-166
-124
-164
-181
-57
59
120
304
341
-128
-603
-523
-262
-233
-248
-192
-183
-177
-115
-78
-71
-40
-25
-22
37
67
57
180
297
175
184
585
839
647
431
367
266
163
136
110
81
62
26
38
83
44
-15
53
158
158
114
114
103
50
69
153
113
-2
30
98
57
123
308
358
360
341
6
-432
-487
-325
-282
-272
-234
-232
-226
-216
-244
-242
-185
-153
-136
-58
30
46
67
156
233
279
321
265
103
4
-19
-108
-226
-246
-197
-174
-198
-224
-201
-135
-113
-174
-202
-112
-2
22
-13
-49
-80
-88
-48
24
73
114
187
236
278
448
685
894
1163
1234
685
-58
-278
-178
-225
-269
-166
-137
-199
-185
-152
-183
-213
-244
-313
-349
-332
-332
-335
-285
-210
-154
-94
-5
31
-33
-89
-83
-110
-174
-187
-193
-261
-319
-301
-242
-193
-174
-158
-86
5
27
24
42
-7
-91
-76
-28
-27
55
177
172
228
466
599
692
982
933
209
-379
-333
-181
-208
-202
-179
-200
-164
-111
-136
-162
-131
-108
-114
-104
-78
-56
-30
-7
6
50
140
198
181
151
140
112
75
66
69
59
58
69
54
35
61
69
42
128
315
377
338
386
453
478
608
825
925
735
226
-278
-420
-335
-301
-421
-704
-830
-551
-314
-436
-530
-443
-464
-566
-555
-499
-471
-441
-403
-307
-163
-97
-38
130
212
138
123
117
11
-19
17
-40
-56
22
14
-15
67
133
133
177
257
393
627
812
870
962
1165
1370
1366
916
201
-230
-256
-244
-330
-381
-393
-428
-465
-473
-470
-500
-563
-599
-611
-674
-736
-657
-472
-317
-177
-11
96
126
163
196
171
135
131
132
118
103
90
95
125
134
111
103
90
30
-16
-6
-10
-62
-106
-124
-134
-127
-91
-66
-93
-116
-36
96
122
49
17
29
18
13
15
-7
13
44
-40
-67
125
284
349
496
430
-51
-384
-245
-74
-118
-158
-119
-90
-65
-19
6
11
51
121
159
154
152
173
192
217
278
344
352
318
280
216
135
97
75
6
-49
-37
-53
-109
-104
-86
-105
-63
-6
-66
-121
-65
-33
-85
-140
-157
-122
-119
-182
-130
-71
-303
-474
-179
111
11
-169
-354
-642
-705
-453
-263
-222
-183
-179
-172
-86
-55
-123
-147
-135
-144
-96
-7
18
36
151
299
382
424
476
478
369
210
84
-11
-73
-98
-134
-167
-111
-59
-133
-134
-36
-261
-622
-355
292
469
343
444
603
652
765
896
970
1199
1518
1384
676
36
-144
-182
-288
-311
-284
-339
-371
-330
-375
-507
-527
-440
-467
-629
-702
-614
-536
-528
-449
-251
-49
89
173
202
186
195
248
266
260
418
722
848
856
1161
1528
1379
922
545
52
-478
-589
-421
-395
-495
-590
-662
-722
-834
-954
-984
-1006
-1070
-1090
-1050
-925
-691
-481
-358
-188
34
114
51
55
91
42
100
173
-160
-527
-245
263
317
181
203
225
196
214
227
198
189
225
261
249
209
197
178
135
173
262
228
132
160
224
184
127
110
82
71
110
159
197
238
258
228
143
67
44
12
-36
-17
5
-26
41
173
167
122
78
-201
-525
-462
-209
-155
-189
-128
-92
-149
-200
-199
-164
-100
-54
-52
-50
-26
34
146
219
216
253
322
284
184
160
145
15
-125
-118
-50
-56
-72
-39
-4
53
139
161
135
148
170
164
160
133
74
38
45
64
41
-14
-13
17
32
130
255
314
501
678
319
-311
-437
-175
-113
-232
-262
-216
-163
-122
-132
-149
-89
-39
-96
-116
5
73
-2
-4
138
221
171
98
40
-40
-135
-200
-226
-277
-373
-412
-367
-337
-325
-292
-303
-338
-292
-207
-130
-70
-109
-194
-178
-130
-130
-94
-30
-36
-94
-88
86
317
355
272
263
101
-359
-612
-327
10
1
-56
56
101
4
-24
70
130
99
122
223
221
183
314
437
404
479
666
618
393
313
335
253
112
45
21
-48
-115
-122
-135
-173
-181
-180
-155
-55
10
-52
-108
-79
-76
-122
-137
-142
-163
-106
-31
-122
-202
-2
226
277
382
389
-60
-525
-468
-228
-206
-241
-199
-170
-155
-115
-75
-57
-63
-56
-1
47
45
72
177
293
369
419
438
404
321
211
101
13
-38
-40
-8
-6
-69
-112
-59
1
-19
-54
-34
28
111
171
137
45
8
23
-5
-26
31
-15
-255
-317
-13
203
164
350
648
327
-359
-513
-258
-217
-288
-219
-171
-214
-231
-223
-204
-160
-139
-138
-74
29
79
102
168
243
271
282
291
248
162
53
-77
-101
-27
-90
-147
-18
-280
-1016
-1097
-327
103
-48
-66
58
52
48
51
-38
-76
-19
-22
-58
6
88
55
36
165
269
307
495
589
169
-353
-353
-83
-19
-77
-60
-17
-19
-41
-4
99
120
6
-27
135
257
212
202
316
424
502
553
487
352
233
75
-40
-29
-170
-472
-449
-189
-219
-360
-232
-132
-279
-324
-117
29
-48
-116
-46
-39
-141
-147
-97
-142
-161
-117
-128
-59
142
239
316
439
180
-374
-499
-199
-56
-107
-118
-122
-132
-75
-28
-61
-60
-5
-43
-106
7
198
280
329
418
463
447
414
362
288
201
113
39
-20
-43
-21
-12
-51
-74
-30
30
38
20
63
143
148
86
29
-22
-55
-53
-78
-107
-35
32
-63
-137
-9
112
128
191
108
-312
-620
-497
-317
-320
-323
-280
-266
-241
-190
-151
-123
-93
-60
-42
-54
-39
50
171
272
305
256
240
291
242
93
30
1
-124
-203
-155
-130
-176
-198
-156
-65
6
1
-9
45
102
118
121
124
117
93
58
31
29
60
75
45
78
178
241
465
885
830
106
-379
-204
-18
-118
-166
-83
-49
-92
-143
-137
-88
-82
-101
-78
-55
-9
109
152
164
342
335
-110
-327
-18
118
-129
-264
-238
-281
-328
-308
-284
-252
-215
-208
-176
-83
-20
-37
-67
-68
-83
-128
-132
-53
-37
-125
-96
31
34
84
284
308
261
423
306
-267
-470
-134
-12
-145
-83
12
-62
-42
2
-263
-509
-268
85
114
104
238
291
289
383
472
482
465
402
276
145
67
58
44
-46
-130
-84
35
72
-3
-76
-42
76
169
172
145
165
170
87
34
104
128
20
-30
-1
-69
-101
73
183
95
21
-134
-482
-625
-407
-238
-258
-243
-172
-141
-129
-140
-192
-216
-172
-128
-112
-70
-17
18
98
209
269
303
309
235
161
126
38
-74
-124
-151
-168
-148
-145
-170
-144
-83
-61
-42
38
118
125
108
105
66
-6
-27
7
12
3
36
32
-14
56
160
236
608
1054
733
-102
-356
-98
-74
-192
-139
-102
-181
-231
-230
-205
-120
-46
-90
-170
-135
-24
34
51
93
145
161
135
85
11
-101
-208
-254
-259
-259
-238
-211
-190
-132
-71
-70
-64
-32
-56
-62
21
25
-96
-137
-77
-59
-80
-86
-60
5
37
-24
-78
25
285
425
162
-290
-395
-91
76
-211
-469
-289
-111
-203
-148
84
138
107
138
137
170
291
352
350
406
496
538
509
442
386
303
132
3
52
133
86
14
18
52
80
93
85
107
176
224
224
203
165
90
-10
-40
31
28
-99
-123
41
294
542
658
717
800
519
-152
-477
-341
-314
-390
-342
-340
-407
-407
-398
-422
-479
-565
-556
-482
-550
-664
-586
-422
-346
-274
-143
-47
-25
-33
-60
-82
-77
-89
-109
-70
-90
-256
-316
-113
83
84
46
96
176
214
225
248
245
207
226
279
235
174
219
217
148
277
500
527
616
855
640
2
-238
-39
0
-138
-178
-165
-172
-191
-267
-374
-406
-353
-297
-255
-206
-185
-205
-182
-95
-44
-47
-34
-44
-122
-170
-177
-245
-306
-261
-236
-288
-288
-230
-193
-154
-106
-86
-56
11
60
70
60
17
-18
37
106
49
-30
-12
3
38
178
244
219
297
275
-39
-218
-28
137
89
62
127
148
104
69
73
104
134
157
211
281
299
303
375
454
479
491
479
438
422
368
224
126
107
47
-12
7
8
-32
-4
60
49
10
25
47
30
0
-44
-101
-121
-120
-152
-163
-105
-66
-113
-128
21
176
138
148
329
166
-408
-598
-292
-199
-309
-179
-71
-227
-262
-91
-73
-160
-97
3
-5
-3
83
184
280
399
471
415
343
304
71
-291
-320
-75
-71
-230
-177
