# session 10
119
462
377
266
379
-108
-995
-520
900
943
-117
-468
-303
-366
-319
-134
-176
-264
-183
-66
41
185
344
530
682
670
619
720
860
888
831
700
553
465
317
59
-202
-508
-774
-757
-686
-788
-718
-527
-558
-419
-160
-471
-641
-108
-222
-856
-308
502
151
-17
709
1048
807
635
413
127
0
-156
-281
-130
-46
-139
70
286
-160
-706
-601
-336
-360
-257
35
122
83
116
39
-148
-189
-136
-103
76
326
314
236
394
250
-506
-915
-404
122
12
-197
-98
53
61
-29
-177
-323
-377
-345
-275
-137
78
264
342
377
450
573
702
660
321
-87
-307
-417
-525
-591
-580
-476
-408
-578
-821
-873
-791
-549
-57
277
6
-626
-1067
-960
-203
742
1000
441
-63
48
423
612
568
418
271
160
47
-53
-64
5
51
81
182
329
467
592
604
441
316
414
555
559
549
528
275
-64
-157
-85
60
384
598
473
363
168
-578
-1155
-656
111
166
-4
56
1
-162
-171
-128
-57
85
112
91
235
320
234
371
728
829
694
657
597
324
68
0
-49
-170
-257
-339
-513
-601
-488
-555
-989
-1189
-805
-420
-333
-82
253
102
-322
-587
-736
-460
237
253
-527
-733
-86
480
643
545
256
10
-92
-204
-329
-403
-470
-504
-469
-448
-448
-389
-323
-289
-205
-152
-166
-3
214
225
515
1182
1166
291
-236
-34
195
127
18
104
59
-557
-1047
-516
288
311
-70
-238
-269
-206
-8
139
157
149
154
175
254
429
644
729
650
612
693
715
628
535
409
215
11
-220
-450
-569
-636
-725
-723
-626
-592
-624
-527
-226
7
86
392
667
265
115
1384
2795
2663
1485
420
-61
124
464
386
137
22
-155
-427
-609
-719
-838
-939
-997
-1008
-984
-971
-996
-1024
-1024
-992
-922
-809
-649
-464
-325
-129
347
854
830
417
274
470
607
593
550
436
119
-341
-581
-363
2
105
-46
-254
-372
-292
-120
-112
-253
-281
-146
-20
95
314
586
795
924
1018
1125
1195
1176
1196
1134
566
-277
-654
-606
-677
-809
-776
-807
-1002
-1132
-1145
-1053
-800
-639
-615
-325
-222
-876
-932
640
2037
1719
691
62
-120
131
545
666
581
494
289
-3
-179
-249
-324
-396
-409
-359
-283
-193
-89
-22
9
90
185
205
266
426
500
419
305
221
232
397
636
844
923
675
19
-705
-938
-612
-311
-353
-367
-132
35
-126
-439
-533
-342
-198
-255
-248
-50
160
341
598
862
978
976
994
1051
1012
772
383
13
-245
-431
-644
-912
-1102
-1016
-748
-645
-730
-729
-615
-459
-272
-244
-284
-74
10
-325
-453
-236
-130
12
90
-258
-375
193
680
658
451
292
284
327
228
173
161
-218
-753
-823
-585
-515
-557
-567
-619
-638
-502
-341
-316
-320
-155
135
395
594
678
614
622
817
889
692
470
170
-303
-326
408
978
782
434
298
91
-84
-36
-67
-273
-346
-277
-231
-110
131
339
500
639
648
550
503
514
534
542
451
291
158
-34
-219
-182
-179
-472
-738
-827
-947
-1012
-872
-498
-104
-244
-389
362
217
-2169
-3473
-1601
244
305
502
1172
1196
901
774
582
407
391
366
348
373
267
74
8
-6
-105
-194
-241
-313
-336
-262
-163
-50
106
304
467
437
285
292
450
549
543
441
353
383
233
-264
-576
-373
-134
-236
-375
-210
70
162
133
-16
-438
-777
-614
-298
-194
-58
200
315
287
289
325
396
535
611
468
179
-66
-211
-302
-342
-378
-507
-583
-378
-64
82
85
-47
-214
-100
46
-143
-215
-236
-748
-772
285
706
-45
-216
499
865
724
556
392
222
90
-57
-191
-276
-335
-356
-322
-281
-305
-338
-187
38
59
217
812
1029
402
-105
-81
-263
-573
-343
138
250
34
-14
329
332
-632
-1623
-1639
-1070
-477
-73
-57
-147
-84
-176
-337
-152
119
115
67
153
206
193
238
341
413
411
365
410
652
880
740
337
82
-59
-324
-494
-431
-428
-443
-272
-258
-448
-334
-64
-35
-121
-292
-186
353
-406
-2546
-2345
550
1537
-31
-523
452
984
1104
1248
1034
604
347
115
-181
-298
-181
-35
40
89
124
168
268
358
378
447
639
852
1039
1191
1157
868
540
417
462
455
349
278
239
189
174
-47
-624
-935
-509
38
43
-289
-496
-432
-233
-110
-133
-248
-393
-418
-276
-176
-91
247
607
676
786
974
700
147
-52
-50
-228
-491
-713
-864
-952
-1153
-1412
-1392
-1143
-881
-560
-412
-516
-280
-22
-462
-530
-72
-1018
-2187
-823
1002
679
200
888
1124
651
409
274
29
-134
-252
-334
-319
-326
-399
-434
-390
-323
-329
-367
-281
-157
-180
-178
60
326
372
304
254
173
156
344
499
527
806
1125
830
287
142
-27
-482
-597
-304
-210
-284
-90
223
270
127
37
5
29
173
343
413
484
686
928
1040
991
928
992
1080
958
591
148
-203
-392
-483
-551
-519
-406
-490
-788
-875
-639
-475
-577
-682
-445
-48
-193
-677
-270
854
1217
760
375
51
-213
7
403
475
380
286
249
432
471
-103
-743
-758
-492
-464
-548
-494
-342
-284
-353
-293
-42
75
43
158
250
44
-144
-62
17
40
240
458
480
524
544
125
-440
-467
-182
-178
-345
-394
-317
-136
-27
-173
-359
-364
-311
-280
-163
84
382
635
811
914
887
710
476
231
-16
-146
-130
-170
-301
-311
-262
-375
-410
-244
-428
-1020
-1171
-770
-650
-737
-303
67
-346
-579
-364
-795
-995
190
813
-80
-221
875
1351
1016
791
692
582
526
417
310
320
280
107
-49
-117
-155
-237
-386
-458
-344
-212
-180
-56
263
584
740
701
524
385
339
268
230
271
211
223
488
354
-421
-811
-473
-251
-313
-244
-70
126
193
-173
-630
-610
-329
-204
-157
-45
92
225
360
480
522
469
414
368
216
-22
-163
-152
-155
-265
-352
-339
-330
-333
-266
-229
-286
-306
-295
-307
-238
-242
-523
-581
-13
516
366
-93
-294
-148
153
391
538
645
589
325
43
-178
-370
-450
-396
-329
-310
-361
-402
-231
19
32
44
260
201
-229
-387
-97
259
484
487
282
135
158
257
352
318
262
428
409
-226
-743
-466
-22
16
-12
133
289
353
282
133
81
128
151
143
138
143
182
238
261
260
268
285
298
302
276
202
93
-43
-209
-403
-627
-792
-799
-839
-1072
-1143
-838
-555
-418
-189
-149
-361
7
966
1233
553
-22
-138
-84
205
563
541
299
230
210
56
-89
-137
-187
-269
-329
-345
-301
-202
-109
11
204
364
455
494
357
180
330
601
493
121
-124
-177
-68
136
255
257
188
-16
-332
-597
-701
-586
-336
-186
-174
-127
-53
-67
-116
-139
-213
-322
-313
-152
79
377
677
813
906
1136
1126
581
39
-57
-50
-194
-318
-398
-507
-577
-635
-738
-790
-771
-768
-715
-625
-711
-788
-439
-109
-392
-445
555
1591
1652
1155
480
-208
-238
383
704
489
262
114
-97
-248
-310
-395
-468
-505
-557
-534
-388
-287
-289
-257
-153
-55
-9
53
305
697
950
1089
1228
1195
1157
1376
1239
392
-236
-227
-357
-738
-695
-265
-14
-122
-368
-455
-369
-363
-433
-403
-414
-579
-634
-453
-235
-31
237
464
603
777
913
850
704
593
373
12
-237
-253
-239
-411
-719
-946
-960
-841
-691
-477
-279
-280
-259
-11
-91
-631
-577
344
955
704
146
-203
-104
329
633
648
575
523
451
288
157
178
-19
-579
-855
-648
-518
-557
-521
-518
-544
-474
-465
-537
-469
-252
33
383
661
767
789
709
550
585
788
794
659
589
335
-66
-120
59
-43
-305
-350
-236
-166
-190
-297
-407
-404
-310
-226
-102
151
396
507
593
679
617
454
355
314
254
142
-37
-190
-254
-315
-323
-216
-190
-190
-5
-87
-780
-1336
-1173
-745
-511
-519
-671
-603
-120
381
523
292
-106
-217
144
515
573
545
532
407
248
170
107
16
-68
-136
-164
-125
-60
6
107
151
38
0
167
145
-142
-133
206
317
122
-93
-203
-100
101
156
304
623
489
-72
-195
96
170
167
261
212
274
664
895
879
945
742
62
-381
-263
-68
11
114
193
242
321
303
113
-106
-240
-320
-431
-644
-903
-1076
-1166
-1215
-1122
-944
-965
-1089
-963
-687
-472
-248
-198
-447
-540
-331
-124
216
659
603
113
-70
225
592
685
462
193
113
128
105
53
-40
-169
-224
-161
-113
-129
-57
79
61
12
190
410
599
1048
1339
757
-115
-310
-105
-45
22
176
239
208
117
33
42
-48
-363
-564
-451
-312
-302
-203
59
269
308
267
242
244
259
332
485
617
656
697
787
824
747
636
538
349
43
-174
-249
-380
-509
-467
-529
-876
-1084
-939
-779
-679
-518
-440
-329
-85
-250
-684
-433
77
-66
-151
310
462
177
35
48
201
503
511
160
-45
-59
-191
-312
-233
-205
-314
-285
-179
-197
-137
49
74
24
182
419
557
646
652
544
445
437
458
356
151
81
69
-2
261
527
-284
-1491
-1389
-478
-289
-583
-509
-208
-6
77
16
-72
-26
58
139
309
470
574
726
782
696
790
965
860
656
427
-145
-750
-835
-637
-580
-671
-878
-1115
-1177
-1053
-836
-554
-318
-175
21
165
-70
-420
-188
581
1115
1065
723
422
354
550
772
770
594
410
238
33
-173
-313
-363
-382
-446
-496
-433
-363
-417
-482
-419
-293
-219
-218
-223
-171
-100
54
443
803
724
459
431
459
418
528
589
313
-36
-310
-592
-590
-304
-280
-422
-212
83
29
-140
-195
-214
-156
-4
113
184
255
321
442
612
744
858
901
692
334
102
-26
-173
-264
-308
-464
-672
-780
-896
-1078
-1143
-1061
-959
-851
-712
-488
-292
-493
-813
-371
590
975
717
355
2
-79
331
668
472
123
-21
-120
-245
-203
-90
-94
41
333
184
-354
-475
-156
-21
-73
-47
-18
90
445
717
592
318
96
-123
-132
222
582
654
546
358
176
95
-20
-224
-224
55
296
307
148
-34
-101
-74
-87
-123
-103
-90
-87
76
388
570
565
651
862
872
590
296
126
-4
-75
-51
-42
-45
66
248
458
814
1172
1096
474
-303
-698
-559
-435
-771
-1208
-1369
-1140
-346
379
14
-827
-824
-225
79
36
-112
-278
-397
-523
-662
-681
-587
-486
-402
-331
-263
-204
-173
-129
-91
-113
-89
13
75
208
467
471
115
-108
37
246
309
288
265
278
242
-30
-391
-384
-31
110
-109
-299
-261
-85
81
52
-59
109
422
507
574
764
651
285
261
540
624
497
433
430
340
168
32
-65
-213
-406
-551
-584
-584
-744
-1012
-1051
-756
-358
-82
24
109
63
-450
-827
-130
860
780
73
-162
39
265
458
541
433
268
159
44
-99
-174
-180
-230
-311
-320
-285
-281
-260
-150
-13
53
89
128
101
199
625
891
618
463
703
530
-63
-199
76
241
163
-432
-1224
-1111
-207
325
349
314
166
-32
-20
73
50
-13
-42
-28
71
250
475
756
1002
1039
950
962
968
740
379
73
-176
-389
-559
-685
-759
-826
-885
-869
-803
-734
-653
-608
-662
-769
-796
-614
-324
-121
70
331
503
492
249
-115
-94
363
622
655
804
604
-157
-626
-471
-350
-496
-572
-515
-446
-359
-299
-305
-261
-124
-17
39
141
300
456
550
554
488
374
265
274
391
488
482
270
-63
-116
-31
-397
-843
-626
-186
-190
-351
-334
-275
-227
-171
-192
-238
-154
29
168
293
479
602
623
728
867
809
615
390
74
-152
-131
-102
-95
45
-51
-597
-991
-887
-648
-446
-282
-260
-150
40
-243
-683
-498
-153
-116
116
346
105
59
530
853
882
907
854
679
524
393
220
5
-172
-226
-219
-278
-360
-334
-249
-248
-264
-160
-19
45
149
383
527
362
45
-128
-127
-91
-58
28
130
123
63
36
-179
-512
-358
160
207
-98
-116
-142
-472
-581
-377
-338
-383
-232
-76
1
183
374
406
415
482
489
445
437
419
339
237
172
126
9
-150
-180
-109
-218
-578
-858
-781
-555
-453
-311
-108
-292
-671
-383
439
769
403
-62
-224
9
444
710
727
636
439
162
-67
-207
-305
-405
-466
-409
-364
-427
-303
15
104
83
245
151
-291
-359
21
259
274
211
4
-201
-186
-28
139
228
184
178
309
160
-410
-629
-78
471
409
140
117
255
353
325
163
-19
-86
-50
-4
60
199
347
383
308
194
130
209
341
341
282
329
332
77
-312
-593
-776
-964
-1070
-996
-827
-656
-515
-425
-285
-54
73
67
71
-6
-61
267
658
476
-2
-90
206
465
486
318
131
16
-90
-216
-280
-260
-237
-226
-154
-31
57
108
157
151
62
-17
-5
76
186
322
402
269
-17
-163
-94
-16
46
220
368
344
391
506
131
-653
-913
-522
-317
-438
-334
-45
-6
-190
-329
-370
-399
-421
-255
129
378
409
562
671
327
-68
-9
187
150
42
-3
-78
-204
-336
-452
-497
-437
-378
-401
-388
-207
30
123
138
251
262
-8
-110
282
729
870
762
379
-67
-70
273
409
247
48
-65
-112
-157
-232
-271
-267
-276
-245
-112
18
57
99
197
241
222
338
683
1029
1081
880
809
1116
1527
1514
958
219
-274
-334
-345
-804
-1197
-791
-237
-348
-601
-522
-535
-733
-773
-732
-804
-876
-873
-857
-787
-561
-199
130
298
429
655
787
604
260
27
-67
-155
-298
-433
-481
-458
-423
-404
-393
-369
-392
-515
-530
-310
-82
64
181
69
-308
-711
-877
-307
757
903
76
-88
561
878
890
987
945
888
868
403
-252
-378
-191
-207
-301
-291
-251
-207
-166
-120
11
183
276
337
501
746
903
895
851
847
806
821
950
895
746
940
875
-168
