# session 28
-99
-101
-88
-47
-66
-137
-89
47
104
149
309
514
714
904
1000
1069
1298
1480
1211
577
19
-266
-346
-350
-384
-431
-423
-416
-456
-504
-563
-628
-642
-645
-705
-768
-777
-772
-768
-713
-587
-405
-201
-23
102
189
255
282
244
188
181
222
335
533
678
811
1181
1626
1730
1474
979
325
-129
-196
-178
-235
-248
-244
-276
-271
-253
-307
-377
-392
-415
-488
-555
-591
-613
-577
-454
-279
-87
99
251
371
464
492
454
392
301
197
159
175
150
97
80
78
75
88
77
23
-3
1
-16
3
58
34
30
194
337
365
447
394
-19
-343
-226
-52
-76
-93
-48
-41
-31
1
13
27
50
56
60
76
99
142
203
265
338
411
450
457
425
331
218
130
31
-87
-158
-172
-185
-216
-250
-289
-300
-255
-218
-259
-317
-327
-338
-375
-371
-336
-349
-383
-358
-293
-236
-182
-136
-115
-94
-60
-50
-67
-66
-51
-55
-47
-3
23
21
20
0
29
148
225
316
531
477
-36
-384
-245
-88
-131
-136
-85
-104
-134
-103
-62
-61
-75
-64
-28
1
6
19
87
156
166
198
286
306
244
216
205
140
63
12
-24
-45
-53
-55
-48
-47
-53
-34
-5
-5
-13
1
13
2
-23
-50
-62
-45
-24
-33
-38
0
42
39
5
-30
-52
-57
-57
-55
-45
-44
-35
-8
-24
-34
69
161
149
203
221
-68
-372
-298
-93
-77
-125
-104
-76
-72
-69
-75
-84
-76
-56
-51
-71
-75
-40
6
51
116
192
256
296
286
240
206
163
59
-53
-117
-156
-179
-168
-155
-162
-161
-142
-121
-104
-92
-85
-67
-31
0
-9
-48
-53
-9
-3
-70
-98
-17
84
105
57
37
93
156
185
251
412
619
744
764
931
1406
1769
1452
608
-86
-337
-376
-392
-384
-384
-413
-434
-443
-448
-454
-497
-555
-584
-615
-659
-684
-712
-724
-663
-566
-483
-369
-204
-42
72
134
151
140
129
140
167
187
249
473
802
994
1130
1527
1900
1600
763
96
-177
-276
-319
-329
-348
-373
-379
-378
-399
-454
-498
-487
-458
-485
-561
-616
-608
-528
-383
-201
-25
112
191
220
213
165
101
65
52
22
-21
-48
-63
-82
-110
-128
-123
-126
-158
-178
-156
-135
-146
-153
-127
-101
-93
-74
-48
-43
-33
2
21
22
47
78
73
59
62
63
61
63
57
43
36
25
1
-10
-4
-3
-7
-12
-31
-37
-14
-8
-36
-38
-15
-10
-12
-6
-22
-51
-53
-34
-22
-25
-26
11
76
104
82
58
55
52
53
57
52
72
111
93
101
239
370
474
675
667
199
-204
-143
-3
-43
-54
-4
-9
-35
-47
-65
-65
-49
-53
-56
-31
-2
18
40
82
143
202
246
285
314
316
291
257
211
144
72
8
-54
-103
-118
-129
-157
-172
-156
-135
-126
-124
-122
-109
-82
-67
-65
-16
95
200
332
576
786
814
857
966
790
286
-124
-288
-383
-442
-429
-420
-440
-450
-461
-476
-478
-503
-563
-606
-630
-688
-759
-781
-734
-635
-503
-363
-213
-40
119
204
208
170
117
75
60
39
0
-12
3
0
9
40
13
-54
-15
104
94
-51
-85
47
115
36
-10
60
112
71
19
13
25
44
67
70
67
82
87
77
95
120
105
81
76
72
57
37
38
71
76
38
53
139
196
185
143
92
45
33
45
39
10
12
31
23
83
253
376
471
607
473
1
-269
-136
-14
-67
-104
-66
-26
-16
-27
-28
-8
1
-15
-16
30
73
73
83
137
193
243
300
330
319
293
243
159
72
-2
-80
-166
-233
-269
-280
-278
-272
-260
-237
-210
-185
-163
-139
-106
-77
-75
-90
-100
-129
-163
-149
-121
-153
-188
-138
-51
-21
-48
-88
-110
-114
-121
-126
-114
-107
-93
-66
-88
-97
32
174
249
410
462
85
-335
-308
-116
-112
-145
-85
-38
-42
-57
-59
-31
1
-5
-12
24
66
87
120
178
241
303
365
413
437
443
421
351
248
149
64
-4
-42
-60
-87
-111
-107
-93
-98
-112
-108
-100
-104
-106
-92
-82
-84
-85
-87
-96
-99
-91
-76
-60
-55
-60
-41
10
45
35
-5
-38
-36
-16
-6
-7
-13
-6
11
-22
-48
70
211
247
316
331
13
-365
-363
-170
-126
-165
-159
-146
-154
-165
-167
-157
-138
-112
-89
-78
-55
-6
48
100
156
204
247
305
354
358
329
283
216
131
42
-51
-131
-172
-182
-193
-206
-199
-177
-166
-165
-155
-145
-144
-134
-117
-112
-104
-78
-67
-105
-152
-144
-101
-80
-86
-98
-73
13
51
-37
-100
-46
3
-9
-14
-3
-1
5
31
35
3
54
216
349
489
618
381
-156
-358
-134
22
-10
-34
-31
-30
-6
-2
-38
-48
-8
21
15
13
38
93
175
238
273
347
457
504
478
459
452
373
207
52
-14
-45
-116
-177
-155
-119
-148
-184
-140
-66
-67
-115
-91
11
117
194
305
531
795
952
1100
1350
1392
927
218
-283
-457
-450
-413
-429
-485
-514
-516
-542
-585
-611
-643
-695
-737
-771
-824
-868
-871
-841
-765
-623
-444
-261
-80
64
133
140
117
75
29
-5
-18
-16
-19
-28
-19
6
15
13
25
39
31
18
25
35
34
42
54
39
23
43
69
61
46
53
65
63
64
79
99
110
108
106
119
133
122
102
100
100
83
59
44
46
62
63
57
84
137
160
126
66
25
13
2
-1
13
16
24
48
26
23
157
295
348
451
430
51
-294
-227
-58
-68
-100
-70
-55
-56
-66
-86
-66
-21
-30
-62
-36
19
41
59
92
117
139
181
234
274
289
268
210
134
64
5
-43
-93
-148
-177
-164
-154
-159
-134
-90
-72
-57
-30
-17
-18
-14
-8
-6
-2
21
75
163
311
500
616
629
650
627
467
415
555
443
-32
-351
-350
-346
-398
-397
-398
-411
-391
-399
-439
-443
-439
-464
-457
-419
-417
-426
-396
-358
-336
-306
-263
-221
-182
-145
-99
-52
-22
-8
0
3
17
41
41
25
31
41
33
40
72
89
87
86
77
69
80
79
61
71
92
78
62
79
94
88
79
79
89
104
111
99
87
96
106
84
67
91
113
84
36
24
47
65
56
30
6
22
84
126
118
109
102
66
31
40
56
20
-32
-2
42
-27
-52
129
310
376
451
337
-114
-409
-249
-59
-90
-132
-110
-100
-83
-61
-77
-87
-60
-47
-61
-66
-56
-45
-24
15
68
134
190
230
272
305
282
214
147
81
-8
-102
-167
-210
-250
-269
-271
-285
-282
-239
-214
-218
-192
-147
-136
-139
-134
-133
-124
-116
-147
-181
-157
-108
-115
-154
-137
-58
5
24
30
30
18
0
-27
-45
-27
-11
-2
37
43
2
79
240
319
451
595
317
-215
-343
-131
-68
-116
-80
-44
-51
-36
-20
-31
-26
3
21
27
52
96
132
162
208
272
344
418
472
491
491
467
387
256
129
42
-14
-64
-104
-123
-139
-153
-143
-138
-161
-162
-125
-96
-83
-49
35
149
254
404
646
837
932
1089
1180
906
409
41
-159
-290
-379
-452
-504
-510
-508
-534
-565
-594
-635
-681
-726
-771
-811
-829
-812
-766
-683
-543
-366
-199
-49
87
170
180
139
66
4
-7
0
-19
-45
-43
-9
27
43
50
58
58
56
62
65
70
88
91
82
104
142
156
158
165
165
167
177
173
161
165
168
150
135
137
140
124
81
18
-34
-58
-67
-85
-113
-119
-101
-97
-116
-101
-34
30
43
16
-12
-11
-2
-7
13
50
43
46
85
52
29
189
360
453
664
702
180
-344
-292
-80
-97
-139
-122
-143
-171
-192
-213
-198
-185
-201
-183
-141
-125
-96
-36
18
72
149
222
290
372
420
398
362
329
250
142
52
-20
-72
-96
-116
-142
-161
-160
-141
-134
-143
-144
-139
-136
-111
-81
-101
-151
-145
-75
-53
-134
-193
-113
-15
-62
-168
-160
-53
20
20
1
5
12
-5
2
86
190
256
354
513
623
708
1010
1565
1948
1679
804
-51
-381
-358
-370
-421
-390
-359
-389
-407
-401
-422
-455
-472
-486
-506
-533
-575
-624
-656
-653
-620
-564
-470
-344
-218
-104
0
71
86
72
57
40
19
6
7
8
-3
-6
11
24
15
12
35
54
45
32
36
25
-15
-43
-41
-38
-45
-60
-76
-56
2
38
26
-11
-54
-80
-70
-60
-72
-91
-90
-49
-21
-46
8
167
270
415
669
583
58
-234
-76
47
-3
-11
10
-7
-6
7
-1
-9
-7
-6
-2
8
17
35
69
116
167
230
297
341
354
345
315
260
174
53
-55
-109
-145
-193
-210
-191
-182
-184
-173
-148
-109
-75
-67
-62
-40
-13
5
10
19
42
50
35
44
87
108
109
140
191
218
222
218
205
192
183
175
182
192
171
153
165
133
89
160
254
288
388
410
76
-294
-263
-70
-46
-72
-37
-25
-45
-47
-43
-60
-106
-166
-209
-239
-274
-297
-300
-297
-280
-235
-175
-121
-74
-35
-17
-62
-183
-324
-415
-446
-452
-465
-469
-430
-374
-353
-351
-311
-242
-206
-181
-113
-33
39
157
305
472
742
1006
1103
1240
1502
1397
751
116
-155
-224
-231
-213
-236
-282
-306
-337
-379
-421
-479
-523
-535
-577
-678
-746
-741
-728
-704
-605
-443
-264
-73
118
266
330
317
279
241
205
188
155
86
65
120
147
120
99
84
83
131
175
138
67
75
154
169
82
44
145
260
259
167
94
117
174
163
124
127
123
91
87
104
89
59
50
44
28
26
34
24
14
24
31
26
24
11
-15
-23
8
71
132
159
180
236
276
256
204
142
83
64
66
37
-10
-25
-8
-22
-82
-53
95
203
312
460
284
-247
-521
-373
-251
-281
-279
-248
-251
-258
-253
-229
-184
-152
-143
-129
-101
-74
-53
-29
3
44
97
163
220
244
237
222
198
146
67
-14
-86
-154
-215
-258
-281
-294
-297
-268
-201
-137
-113
-119
-122
-114
-113
-124
-135
-128
-97
-79
-101
-94
-40
-43
-66
21
131
239
463
528
161
-197
-143
16
13
-2
31
40
54
84
82
67
71
77
83
114
147
159
175
212
244
270
312
354
357
317
250
151
28
-69
-120
-151
-162
-146
-127
-116
-102
-83
-66
-52
-42
-33
-28
-33
-32
-16
-6
-6
-2
-10
-38
-54
-48
-56
-78
-96
-109
-111
-98
-95
-114
-127
-141
-171
-181
-151
-123
-117
-123
-131
-113
-71
-62
-75
-42
14
28
28
55
61
21
-17
-24
-38
-85
-120
-97
-66
-102
-177
-235
-284
-319
-301
-242
-209
-209
-166
-100
-106
-82
90
236
335
564
594
100
-341
-251
-59
-97
-129
-59
-30
-61
-67
-40
-27
-18
16
32
21
37
63
78
134
216
257
295
376
452
484
482
457
423
378
295
180
88
44
24
7
-11
-28
-30
-14
-6
-10
9
67
160
272
409
647
953
1143
1280
1554
1664
1210
488
3
-241
-394
-434
-412
-438
-473
-454
-418
-403
-417
-470
-554
-649
-757
-857
-892
-877
-888
-881
-761
-580
-405
-205
-16
69
89
103
71
5
-36
-79
-132
-129
-98
-108
-115
-75
-40
-46
-68
-69
-39
-7
4
7
12
16
19
12
-17
-35
-27
-25
-37
-47
-53
-56
-56
-73
-90
-74
-52
-55
-61
-61
-67
-64
-49
-40
-32
-23
-30
-35
-14
8
16
20
17
8
12
26
29
19
2
-18
-10
26
31
-5
-1
76
153
172
156
135
120
116
123
148
168
146
129
141
112
112
257
401
519
790
866
344
-212
-208
-23
-43
-74
-35
-44
-61
-47
-52
-53
-20
6
12
28
48
61
86
135
186
235
289
331
347
362
372
345
289
237
176
82
-25
-111
-162
-191
-217
-242
-252
-253
-258
-243
-209
-205
-222
-210
-180
-174
-174
-161
-136
-101
-64
-3
103
204
308
498
683
769
931
1193
1188
778
282
-57
-256
-348
-368
-384
-424
-470
-505
-530
-563
-600
-635
-677
-731
-777
-811
-846
-871
-853
-786
-686
-555
-404
-247
-87
44
96
93
92
83
44
11
-3
-9
1
22
24
19
35
58
69
71
68
70
97
134
137
107
97
122
133
121
129
141
111
89
120
149
146
158
172
153
145
167
163
133
128
118
82
82
115
106
62
37
39
63
77
39
10
66
146
171
149
99
57
53
58
60
57
23
15
52
21
3
162
340
436
545
421
-72
-388
-242
-102
-165
-175
-139
-184
-186
-116
-116
-163
-158
-137
-132
-101
-58
-38
-19
23
81
158
248
326
379
410
407
360
283
197
103
0
-99
-177
-224
-248
-265
-266
-251
-241
-218
-165
-95
1
130
280
532
879
1103
1230
1504
1666
1226
402
-194
-420
-484
-506
-508
-476
-420
-403
-441
-489
-535
-586
-629
-669
-712
-744
-768
-792
-775
-685
-554
-405
-221
-30
110
184
203
186
164
151
134
113
101
92
74
57
53
55
50
43
37
32
36
49
54
54
60
67
73
85
93
92
100
115
107
83
82
101
113
107
88
66
56
60
64
54
40
36
29
11
5
-1
-23
-25
-16
-52
-106
-118
-110
-123
-138
-131
-96
-49
-26
-39
-57
-58
-61
-76
-70
-34
-16
-16
14
24
-20
22
181
294
385
463
232
-237
-405
-229
-136
-178
-169
-142
-153
-153
-141
-135
-127
-126
-124
-100
-71
-53
-28
-2
15
55
122
178
226
277
299
284
259
231
192
135
64
5
-33
-68
-92
-86
-74
-71
-64
-46
-30
-13
16
50
64
54
57
83
88
63
40
