# session 53
-35
1
23
61
91
68
57
110
141
140
200
276
287
318
427
502
495
465
420
341
236
103
-26
-92
-109
-122
-124
-124
-144
-133
-73
-19
-1
-62
-173
-128
77
146
71
86
118
71
97
150
105
104
141
94
181
422
486
500
617
388
-178
-378
-122
55
-12
-107
-96
-72
-143
-177
-78
-39
-99
-63
44
84
112
185
263
337
377
334
262
220
141
-32
-201
-255
-248
-273
-305
-309
-318
-324
-296
-249
-202
-176
-203
-230
-146
-14
-23
-126
-137
-120
-204
-230
-116
-67
-104
-85
-59
-6
124
171
232
482
426
-164
-511
-275
-85
-175
-216
-145
-90
-60
-35
5
55
69
55
54
72
124
196
255
337
432
439
372
344
330
257
148
44
-16
-19
-28
-44
-20
-31
-115
-130
-35
12
-48
-78
20
137
183
243
358
445
492
511
514
634
842
762
275
-215
-428
-494
-537
-550
-557
-567
-556
-544
-541
-542
-585
-669
-710
-695
-709
-749
-696
-533
-382
-247
-46
123
149
148
184
157
74
23
-12
-32
-12
4
8
30
30
30
87
133
123
125
138
126
128
148
160
194
246
266
250
233
214
173
126
126
163
164
143
155
134
104
177
266
389
746
939
424
-238
-295
-89
-90
-112
-65
-84
-112
-99
-89
-60
-29
-47
-56
-20
8
23
61
141
255
335
326
270
212
129
-4
-127
-159
-162
-209
-215
-180
-221
-266
-213
-181
-223
-234
-207
-171
-96
-42
-75
-126
-143
-152
-121
-63
-105
-194
-141
-47
-53
24
179
206
287
416
104
-427
-453
-173
-139
-184
-86
-34
-57
-28
1
-23
-29
-4
8
43
111
150
199
325
421
445
488
450
269
176
185
65
-78
-51
-12
-67
-106
-104
-87
-47
-22
-12
-2
-38
-72
-3
78
45
-41
-85
-89
-80
-80
-117
-170
-166
-138
-187
-199
-26
126
143
251
283
-97
-480
-388
-177
-210
-264
-207
-184
-200
-173
-139
-112
-50
-3
-41
-75
1
99
135
185
281
345
356
317
216
122
79
11
-80
-87
-25
-13
-40
-28
-15
-37
-42
-30
-43
-33
33
97
130
140
112
78
75
61
27
48
113
137
99
52
62
107
188
442
701
463
-149
-432
-290
-179
-187
-159
-127
-112
-82
-104
-156
-93
2
-57
-153
-102
-5
31
95
209
266
253
244
243
187
69
-50
-127
-169
-195
-209
-213
-230
-255
-241
-194
-181
-201
-212
-191
-98
9
12
-53
-83
-83
-82
-101
-114
-57
-45
-104
3
109
-148
-336
-87
50
-115
-156
-134
-207
-139
27
42
-18
-8
43
70
45
22
62
108
112
127
179
252
329
381
437
527
575
529
425
284
169
152
120
-20
-107
-47
-3
-47
-57
-17
-29
-95
-145
-140
-73
6
30
11
-22
-85
-150
-154
-124
-137
-144
-73
-56
-119
-8
228
251
200
249
24
-432
-502
-251
-210
-290
-224
-170
-203
-158
-68
-74
-124
-117
-82
-52
7
76
104
156
266
313
279
281
273
178
99
74
8
-77
-96
-89
-100
-98
-83
-83
-75
-50
-43
-37
13
69
99
131
135
94
74
61
13
6
43
42
17
4
26
96
206
453
730
536
-105
-427
-237
-98
-187
-235
-185
-146
-145
-162
-163
-141
-132
-142
-138
-107
-50
27
105
170
222
254
249
215
168
83
-49
-153
-165
-137
-154
-206
-211
-180
-180
-156
-83
-86
-163
-157
-71
-15
-7
-36
-87
-109
-94
-65
-42
-76
-123
-63
13
6
66
199
262
371
469
166
-338
-429
-191
-81
-114
-138
-135
-89
-32
-29
-31
12
48
36
16
42
92
147
256
358
336
313
428
473
304
140
104
46
-68
-120
-93
-74
-109
-145
-133
-131
-176
-176
-96
-43
-45
-23
-14
-93
-139
-59
-31
-119
-120
-21
12
-36
-91
-49
121
253
335
433
268
-204
-450
-304
-170
-193
-194
-143
-128
-140
-118
-80
-69
-62
-27
20
59
95
140
194
268
367
445
441
373
285
165
39
-19
-11
-1
-11
-31
-51
-49
-34
-41
-45
-13
5
8
71
143
96
6
34
83
-9
-107
-71
-44
-83
-61
-5
39
134
216
343
632
651
106
-365
-321
-168
-116
-32
-27
-152
-205
-155
-121
-113
-106
-88
-44
7
47
91
147
200
245
282
304
278
190
110
74
-12
-98
-13
-19
-539
-1251
-1503
-1347
-1184
-960
-506
-42
166
157
104
172
332
214
-407
-1176
-1473
-945
5
511
436
329
334
340
397
462
601
843
715
117
-241
-126
13
68
127
81
28
123
175
103
107
175
163
145
198
259
311
368
421
494
566
560
493
417
298
132
-3
-62
-72
-105
-191
-222
-145
-126
-212
-217
-137
-145
-176
-94
-23
-47
-46
-21
-78
-147
-141
-126
-142
-139
-136
-174
-157
-13
170
383
581
404
-187
-535
-370
-202
-265
-271
-160
-110
-131
-142
-135
-124
-126
-123
-63
30
97
169
268
338
376
411
415
371
299
215
134
58
-28
-94
-108
-105
-108
-94
-75
-82
-88
-86
-99
-98
-45
23
49
12
-55
-83
-67
-53
-50
-34
2
10
-68
-118
-9
103
139
279
326
-83
-545
-514
-290
-284
-313
-235
-203
-226
-195
-134
-103
-87
-67
-39
-9
3
19
92
177
220
266
312
290
219
153
94
36
-35
-124
-176
-156
-120
-109
-128
-172
-162
-52
18
-30
-28
80
136
138
173
168
104
91
113
69
15
61
123
77
56
159
238
387
780
917
356
-260
-277
-65
-63
-93
-30
-47
-152
-173
-112
-97
-108
-65
-12
-1
9
59
147
214
223
269
328
178
-87
-130
-39
-101
-223
-242
-226
-238
-262
-279
-248
-183
-164
-169
-139
-115
-85
-13
-30
-150
-131
-23
-102
-216
-132
-48
-79
-94
-106
-43
175
256
190
317
304
-205
-554
-336
-103
-86
-62
-85
-123
-121
-383
-708
-458
77
198
87
138
250
318
360
374
459
597
561
401
355
318
137
12
33
10
-75
-105
-78
-33
-55
-134
-76
59
20
-59
44
157
149
138
125
56
4
14
35
10
-29
-19
-29
-84
-3
179
216
182
142
-136
-486
-463
-230
-175
-212
-175
-135
-116
-98
-119
-145
-132
-131
-133
-64
18
23
35
147
267
297
310
336
249
66
-32
-57
-148
-247
-244
-197
-196
-208
-180
-137
-101
-48
-8
-11
3
39
43
52
82
66
35
41
42
29
25
23
47
53
12
63
205
310
547
865
669
-18
-382
-257
-163
-189
-152
-127
-140
-98
-65
-86
-64
-18
-41
-78
-31
47
86
121
195
257
255
205
146
85
3
-87
-135
-125
-120
-144
-146
-121
-124
-151
-151
-106
-86
-140
-163
-62
41
30
-16
-22
-26
-60
-103
-133
-133
-90
-62
-114
-115
29
141
210
375
305
-205
-546
-356
-132
-143
-121
-16
1
-51
-63
-28
-8
-12
6
35
51
88
135
184
291
399
418
413
418
344
219
149
73
-76
-145
-57
-14
-99
-130
-64
-30
-40
-33
-19
-27
7
97
83
-5
36
-47
-472
-639
-256
10
-78
-104
-81
-115
15
212
254
361
485
170
-359
-427
-163
-112
-181
-109
-96
-215
-192
-58
-63
-113
-66
-41
-46
43
155
203
256
333
374
390
371
313
249
79
-130
-62
-21
-548
-987
-548
38
15
-118
4
70
1
-30
8
90
174
202
172
110
49
33
50
62
64
56
19
-15
49
162
169
265
667
824
252
-368
-362
-139
-128
-162
-127
-96
-104
-169
-217
-160
-99
-117
-124
-76
-31
2
62
148
218
262
279
249
176
97
14
-56
-89
-127
-190
-212
-191
-184
-195
-196
-164
-114
-118
-158
-117
-21
6
-28
-61
-96
-106
-70
-48
-74
-82
-41
10
13
-45
-74
66
340
435
130
-253
-262
-46
12
-24
17
40
1
-12
-19
-44
-6
78
107
102
138
193
208
214
292
388
372
290
271
263
164
39
-36
-78
-78
-35
-41
-108
-131
-96
-81
-109
-146
-150
-118
-103
-95
-47
-53
-176
-229
-129
-91
-171
-167
-68
-31
-55
-52
21
142
255
378
441
171
-322
-486
-282
-201
-282
-217
-96
-137
-195
-116
-61
-124
-144
-73
-41
-34
63
211
331
408
390
358
437
340
-118
-357
-61
148
-35
-168
-105
-76
-95
-88
-83
-68
-28
-15
-49
-64
6
118
141
63
4
-19
-32
36
96
5
-37
81
99
43
148
264
315
462
430
5
-300
-177
-28
-65
-112
-120
-128
-108
-76
-56
-55
-94
-131
-108
-55
-1
73
153
221
290
338
333
279
194
88
-20
-120
-187
-206
-223
-254
-235
-190
-208
-226
-162
-113
-158
-190
-129
-65
-67
-87
-95
-106
-113
-107
-85
-62
-49
2
73
94
145
249
288
390
587
432
-101
-357
-195
-67
-77
-83
-88
-81
-46
-22
11
32
-7
-31
11
62
114
155
123
110
217
303
266
239
232
119
-18
-55
-58
-79
-91
-118
-160
-155
-126
-139
-155
-126
-114
-143
-133
-67
-22
-31
-61
-91
-115
-118
-103
-98
-86
-44
-49
-103
-43
106
162
249
436
314
-179
-440
-280
-133
-148
-154
-133
-111
-76
-88
-112
-74
-55
-14
146
77
-337
-387
145
500
452
470
555
462
315
227
130
33
-24
-54
-63
-69
-80
-71
-68
-93
-73
-3
13
-10
54
178
227
251
402
627
744
730
778
1078
1371
1080
277
-285
-368
-390
-485
-510
-491
-483
-492
-571
-671
-671
-619
-659
-770
-813
-771
-729
-679
-569
-409
-220
-40
79
140
150
88
4
-54
-94
-94
-74
-105
-125
-62
-34
-81
-63
27
46
-7
-26
-2
20
32
30
9
13
80
139
128
119
147
141
115
134
145
124
149
174
163
318
656
925
1138
1248
826
27
-332
-164
-66
-134
-113
-71
-125
-152
-80
-34
-84
-120
-79
-64
-110
-100
-7
69
102
127
164
226
248
143
3
-34
-34
-102
-185
-214
-225
-245
-247
-232
-215
-179
-132
-102
-84
-52
0
55
57
-18
-82
-65
-49
-95
-108
-42
-21
-89
-69
90
144
111
305
474
108
-417
-463
-249
-181
-190
-166
-74
13
-187
-494
-338
90
197
101
130
185
191
240
313
352
360
362
371
346
254
143
68
21
-23
-55
-63
-74
-98
-86
-54
-74
-112
-97
-59
-49
-65
-64
-22
4
-39
-80
-62
-23
-6
-21
-43
-52
-67
-53
34
103
130
175
48
-344
-586
-436
-233
-190
-180
-146
-110
-74
-80
-106
-82
-36
-22
-28
-35
-15
72
194
267
311
404
486
432
290
186
96
-39
-129
-127
-145
-184
-164
-177
-202
-75
-62
-370
-535
-431
-460
-386
40
246
71
47
165
93
0
55
106
115
96
21
86
313
397
441
620
463
-122
-368
-101
28
-122
-120
73
111
-25
-28
113
128
24
25
131
188
162
150
227
337
392
381
320
241
162
53
-67
-144
-206
-256
-259
-242
-226
-213
-234
-233
-151
-118
-216
-275
-177
-35
3
-78
-166
-172
-132
-88
-57
-86
-109
-55
-52
-85
35
177
262
495
539
-20
-528
-380
-129
-190
-210
-92
-62
-78
-40
-8
8
41
60
47
48
114
217
283
309
335
354
354
338
292
219
123
10
-38
-9
-39
-124
-102
-27
-79
-177
-159
-83
-63
-76
-66
-25
31
48
-9
-62
-54
-56
-99
-120
-104
-75
-74
-143
-161
-33
58
31
46
-21
-331
-515
-307
-85
-127
-204
-155
-105
-114
-107
-73
-67
-77
-44
17
44
71
159
240
262
304
369
350
250
172
122
20
-92
-91
-101
-317
-471
-251
46
58
-36
-18
26
23
21
38
71
111
131
111
66
29
30
50
28
-8
52
133
44
-46
140
354
379
508
631
228
-351
-381
-99
-29
-70
-66
-100
-106
-21
17
-50
-109
-82
-14
-3
-21
45
148
188
235
325
337
260
193
105
-38
-134
-143
-154
-193
-234
-249
-225
-247
-317
-252
-110
-165
-270
-108
94
17
-128
-114
-87
-109
-60
1
-30
-11
143
239
271
488
804
912
798
495
3
-352
-321
-202
-235
-255
-203
-213
-234
-192
-190
-234
-223
-210
-265
-288
-235
-214
-221
-154
-56
-10
53
142
145
77
52
52
12
-22
7
35
-4
-23
31
41
-24
-51
-40
-49
-30
31
67
57
11
-63
-127
-136
-102
-85
-102
-80
-45
-76
-24
160
219
217
366
281
-219
-474
-257
-117
-169
-146
-113
-149
-133
-65
-24
-35
-81
-83
-16
46
86
130
171
241
356
436
454
445
382
267
173
110
38
-25
-53
-55
-48
-64
-97
-86
-27
-3
-34
-45
10
78
86
63
78
71
-9
-35
44
75
16
-45
-79
-26
98
140
237
550
620
145
-298
-286
-107
-66
-191
-313
-217
-65
-116
-194
-141
-113
-152
-137
-79
-29
22
93
202
315
348
299
263
226
94
-62
-117
-147
-224
-228
-162
-187
-249
-198
-120
-126
-147
-137
-108
-42
15
23
29
11
-38
3
25
-219
-542
-616
-493
-297
-24
245
384
441
590
677
323
-210
-296
-64
-2
-62
-15
51
14
-30
22
62
6
-6
87
126
107
183
278
313
442
606
559
433
431
371
173
34
-27
-70
-64
-102
-175
-132
-183
-457
-465
-131
-58
-239
-204
-76
-97
-126
-122
-163
-181
-158
-146
-155
-194
-208
-187
-225
-222
-67
63
199
430
302
-272
-557
-373
-239
-246
-233
-250
-259
-188
-145
-180
-200
-160
-108
-93
-88
-44
32
127
241
330
363
358
313
237
155
70
0
-24
-28
-35
-35
-59
-100
-76
-14
-10
-37
-48
-35
53
168
172
134
175
160
41
29
119
102
55
114
142
141
267
369
399
581
644
206
-230
-142
89
100
49
