# session 39
-39
-102
-212
-255
-205
-184
-185
-153
-168
-215
-148
-52
-104
-153
-9
160
161
67
2
15
75
70
-14
-5
139
174
13
-23
194
314
265
313
264
-136
-455
-344
-129
-98
-139
-136
-97
-44
9
25
16
43
74
47
49
119
147
168
284
377
355
338
355
287
138
23
-39
-102
-161
-173
-183
-241
-252
-179
-179
-210
-121
-188
-516
-519
-55
225
145
88
103
71
68
110
123
115
110
75
36
107
242
306
448
667
486
-87
-361
-210
-110
-143
-106
-45
-71
-124
-99
-29
-24
-74
-93
-62
-17
-8
-39
-13
90
156
166
197
209
137
11
-124
-218
-245
-260
-281
-259
-222
-215
-181
-111
-79
-76
-3
203
486
711
899
1204
1524
1483
918
126
-423
-548
-491
-530
-607
-582
-575
-669
-700
-647
-676
-773
-798
-747
-686
-612
-465
-255
-81
47
184
271
282
321
365
308
219
193
162
88
65
112
133
104
98
115
94
69
93
104
68
47
69
99
85
-3
-56
33
111
40
-13
59
75
6
32
108
72
0
4
9
-23
-22
-13
-50
-27
109
249
389
505
314
-158
-387
-231
-98
-130
-151
-152
-174
-154
-131
-166
-184
-166
-169
-142
-52
-5
-22
2
112
243
323
345
334
268
200
199
114
-97
-139
-102
-374
-584
-261
75
-3
-72
24
-2
-47
70
152
94
61
112
136
60
-27
20
105
43
-14
63
79
68
243
405
450
575
498
-18
-376
-247
-105
-107
-37
-4
-116
-183
-116
-73
-152
-219
-132
-40
-94
-95
57
125
98
200
347
347
279
230
140
12
-97
-202
-307
-323
-251
-266
-365
-346
-256
-257
-247
-157
-144
-175
-59
83
33
-87
-105
-113
-147
-105
-78
-124
-40
70
-115
-290
-17
403
592
545
221
-185
-226
-12
50
7
32
56
48
53
53
46
41
22
22
93
173
177
160
221
327
382
364
329
311
252
138
76
39
-84
-161
-111
-128
-204
-157
-126
-222
-219
-102
-110
-201
-191
-131
-117
-117
-128
-160
-157
-103
-82
-109
-96
-70
-148
-191
-17
129
88
212
438
191
-350
-494
-297
-188
-168
-146
-159
-167
-139
-103
-95
-129
-149
-113
-77
-30
86
205
276
356
432
453
470
491
421
279
189
147
82
36
35
9
-38
-45
-43
-31
48
78
-34
-89
22
104
85
75
55
-12
-48
-31
-14
-22
-37
-39
-47
-40
28
93
172
342
303
-168
-546
-435
-245
-264
-273
-223
-229
-231
-193
-151
-98
-89
-148
-129
-37
-38
-68
7
101
163
220
226
226
300
295
108
-64
-90
-74
-104
-167
-208
-188
-172
-167
-68
2
-114
-112
68
-133
-553
-357
213
316
142
211
374
458
563
669
721
823
1103
1472
1514
955
191
-192
-207
-249
-381
-374
-250
-268
-410
-439
-388
-441
-511
-467
-467
-616
-717
-651
-576
-557
-479
-341
-207
-61
52
63
47
44
-10
-76
-88
-105
-136
-107
-60
-72
-97
-80
-45
13
45
-35
-97
25
151
76
-55
-91
-84
-34
40
5
-59
9
49
-6
100
299
378
526
626
216
-340
-359
-90
-31
-80
-58
3
64
83
73
103
127
110
131
178
170
160
231
312
344
399
470
435
328
292
260
125
34
67
38
-79
-79
-12
-80
-189
-155
-69
-65
-92
-68
-7
35
8
-77
-138
-138
-124
-132
-153
-162
-134
-125
-186
-161
17
102
49
48
-62
-371
-449
-216
-130
-206
-157
-109
-205
-250
-177
-133
-132
-106
-91
-113
-108
-36
55
106
122
185
326
396
287
166
173
154
22
-76
-73
-31
20
52
52
41
13
-10
22
60
52
61
116
151
138
114
97
55
14
41
62
20
37
74
-12
-27
134
236
388
684
551
-106
-450
-287
-185
-193
-135
-150
-172
-133
-265
-429
-292
-99
-109
-101
-18
-31
-55
39
158
220
258
300
323
278
155
13
-116
-210
-221
-200
-264
-331
-261
-218
-349
-404
-227
-100
-166
-192
-78
3
-18
-47
-57
-91
-80
25
25
-102
-21
145
-75
-346
-80
414
614
444
17
-280
-166
4
-16
3
72
29
-13
47
88
73
99
139
102
61
132
271
373
428
486
562
594
544
488
426
278
102
12
-32
-89
-147
-215
-269
-274
-274
-280
-243
-202
-210
-214
-156
-92
-109
-172
-181
-140
-108
-86
-99
-142
-136
-123
-153
-86
67
144
281
426
108
-449
-496
-218
-207
-266
-158
-128
-165
-116
-121
-179
-106
-10
-48
-75
2
66
106
216
348
428
480
494
426
319
219
121
54
26
-22
-73
-72
-71
-113
-123
-69
-20
-19
-31
-4
79
152
148
100
69
44
27
38
18
-28
0
12
-70
-19
177
234
255
351
122
-382
-510
-280
-206
-271
-265
-257
-264
-224
-199
-196
-143
-93
-108
-108
-59
-38
-39
2
88
192
241
174
111
147
130
-9
-106
-115
-139
-186
-220
-230
-204
-205
-230
-155
-58
-94
-121
8
140
170
176
178
142
109
128
161
130
88
121
134
117
217
349
502
894
1084
490
-204
-204
-24
-130
-135
-12
-97
-206
-112
-35
-101
-159
-144
-112
-82
-69
-53
7
71
84
114
200
247
210
133
39
-56
-123
-172
-221
-244
-236
-234
-222
-158
-81
-69
-109
-126
-100
-59
-45
-83
-127
-129
-120
-151
-194
-187
-127
-102
-146
-127
8
88
133
307
347
-52
-481
-420
-99
-63
-334
-428
-150
110
108
63
108
134
106
87
109
161
200
230
284
339
376
435
502
482
351
218
163
113
14
-33
-1
-21
-105
-122
-69
-36
-27
-26
-37
-16
49
82
49
-25
-86
-80
-66
-137
-191
-108
-35
-114
-169
-36
110
137
192
162
-207
-536
-393
-149
-176
-242
-227
-237
-200
-148
-230
-295
-189
-111
-144
-117
-35
26
123
230
293
389
492
469
353
263
201
113
-13
-120
-165
-173
-165
-135
-125
-137
-81
12
-14
-87
-23
83
88
73
87
78
52
35
57
110
118
79
18
-25
111
336
369
397
526
275
-251
-339
-106
-86
-140
-69
-29
-53
-67
-88
-107
-113
-121
-108
-71
-35
7
53
101
157
214
252
253
223
187
113
-26
-126
-143
-209
-308
-305
-275
-295
-266
-237
-298
-306
-212
-144
-76
16
10
-71
-105
-105
-99
-97
-143
-147
-52
-11
-4
108
165
191
498
724
304
-250
-245
-15
-3
-37
11
20
3
13
5
-18
16
84
83
34
65
159
213
244
293
327
352
368
316
227
171
112
19
-55
-95
-135
-151
-114
-101
-173
-223
-181
-151
-172
-141
-54
-20
-65
-128
-168
-186
-171
-123
-95
-84
-23
0
-70
-13
156
150
140
282
99
-424
-555
-272
-181
-292
-296
-231
-202
-192
-187
-138
-56
-48
-114
-119
-39
28
78
174
298
399
488
538
501
437
386
277
131
67
73
56
18
-7
-20
-19
-9
3
5
-9
26
129
154
88
104
139
47
-32
-5
1
6
52
3
-67
50
213
268
341
328
-28
-478
-578
-362
-152
-97
-133
-153
-154
-188
-231
-217
-161
-133
-128
-98
-54
-10
67
138
150
193
296
294
159
58
24
-53
-177
-249
-219
-181
-228
-287
-266
-218
-195
-181
-186
-193
-97
75
105
-39
-140
-207
-354
-329
-14
178
107
87
128
122
235
406
447
540
597
199
-308
-259
41
48
-28
50
63
-45
-42
57
49
-18
19
114
163
187
215
248
315
393
425
447
484
405
185
7
-70
-122
-126
-138
-238
-272
-208
-266
-372
-284
-156
-195
-253
-179
-65
-21
-65
-149
-176
-151
-184
-257
-246
-169
-153
-222
-191
35
178
152
296
410
-10
-496
-411
-191
-260
-277
-142
-126
-167
-120
-92
-86
0
80
79
95
162
210
251
316
376
422
456
456
427
358
222
92
48
43
24
-15
-81
-111
-44
23
17
15
34
3
-9
85
175
141
65
40
3
-55
-49
-16
-31
-46
-66
-104
-10
189
238
147
14
-268
-548
-493
-251
-171
-198
-151
-88
-99
-141
-158
-169
-177
-163
-137
-91
-29
-23
-22
82
198
223
245
287
268
214
150
37
-87
-171
-209
-173
-113
-115
-123
-67
5
71
114
94
74
145
223
187
107
100
114
79
49
60
67
75
66
17
73
238
283
407
818
840
147
-339
-217
-161
-301
-263
-181
-191
-147
-115
-158
-138
-99
-135
-134
-60
-12
2
32
83
132
166
193
198
144
35
-73
-141
-179
-215
-233
-207
-224
-317
-328
-240
-256
-353
-343
-275
-255
-222
-162
-152
-211
-247
-165
-117
-296
-431
-243
-48
-80
-54
123
269
368
301
-67
-449
-556
-449
-209
43
99
-7
-56
-6
47
52
19
9
74
153
156
141
232
387
456
450
518
648
626
422
296
322
258
65
0
100
130
49
15
32
30
37
31
-11
10
101
120
79
93
114
59
4
16
28
21
33
18
14
151
320
399
503
483
84
-310
-272
-90
-77
-104
-71
-37
-49
-71
-1
104
75
2
66
182
222
238
314
431
505
542
617
638
531
481
428
85
-226
-38
265
232
146
187
108
-87
-224
-394
-692
-949
-1002
-930
-894
-915
-889
-811
-777
-763
-686
-587
-505
-433
-425
-409
-245
-85
16
305
485
43
-508
-478
-263
-317
-371
-299
-282
-281
-217
-176
-164
-134
-121
-132
-99
-11
73
151
257
366
439
477
463
390
302
201
63
-45
-79
-95
-100
-60
-45
-112
-138
-45
15
-52
-83
29
155
174
137
111
77
37
71
173
236
291
377
372
344
468
543
514
725
903
487
-56
-61
137
122
58
56
69
110
119
87
102
115
79
79
121
151
178
180
158
216
325
348
316
318
301
212
109
34
-36
-95
-98
-69
-94
-163
-187
-163
-158
-188
-209
-191
-152
-132
-147
-172
-180
-183
-215
-250
-242
-205
-206
-283
-313
-194
-89
8
326
482
-54
-699
-668
-330
-252
-286
-250
-239
-257
-271
-272
-180
-73
-145
-221
-65
-6
-231
-213
210
454
385
407
517
473
315
163
63
25
-34
-114
-89
-28
-91
-143
-51
-19
-108
-72
44
10
-30
93
174
84
-30
-61
-1
67
36
-13
10
21
48
190
343
422
398
129
-246
-353
-253
-206
-156
-107
-199
-263
-133
-73
-204
-203
-14
-1
-149
-81
111
74
-18
130
280
230
212
282
216
66
9
-51
-185
-236
-184
-173
-195
-187
-222
-251
-130
-43
-161
-149
50
-79
-389
-219
172
199
99
162
176
101
111
133
98
171
344
422
529
757
668
131
-255
-213
-62
11
-9
-85
-57
20
-38
-98
-37
-6
-20
16
29
25
102
173
170
197
277
311
272
197
120
48
-41
-146
-227
-258
-252
-242
-236
-211
-177
-160
-152
-152
-173
-153
-61
-32
-132
-195
-159
-164
-203
-153
-71
-82
-162
-168
-15
109
90
239
518
289
-362
-553
-220
-47
-113
-89
-16
19
115
193
155
144
194
162
106
147
188
172
190
254
300
322
319
286
243
195
140
59
-44
-72
-27
-88
-204
-131
-31
-156
-226
-65
22
-31
-8
51
33
-4
-35
-63
-35
14
-11
-75
-75
-64
-115
-94
41
92
36
-47
-288
-566
-501
-249
-213
-260
-179
-138
-190
-202
-202
-242
-252
-203
-141
-106
-99
-56
53
163
246
336
426
492
511
421
262
189
150
5
-62
19
-145
-480
-377
18
89
-16
37
41
-18
113
245
157
73
96
51
-21
15
62
51
65
52
-32
12
214
306
350
482
319
-203
-409
-171
-58
-145
-135
-71
-54
-63
-116
-156
-106
-74
-104
-62
38
68
70
120
186
240
283
330
356
243
45
8
68
-65
-291
-311
-205
-222
-319
-316
-248
-260
-320
-284
-146
-25
10
-19
-43
-39
-61
-108
-95
-50
-41
-23
-14
-37
72
273
344
473
742
586
-25
-274
-37
63
-36
-32
15
-4
-20
-11
1
-5
-38
-35
21
59
84
121
136
149
204
268
303
275
182
107
62
-39
-146
-153
-133
-182
-229
-214
-200
-207
-180
-137
-154
-176
-113
-42
-60
-115
-137
-131
-106
-78
-77
-80
-47
-43
-130
-127
65
144
78
269
447
17
-527
-485
-248
-256
-267
-193
-191
-179
-110
-106
-151
-150
-113
-71
-27
13
73
194
363
499
544
541
532
498
432
345
242
153
94
38
-4
-15
-33
-56
-33
2
-6
-18
6
46
62
36
24
53
10
-93
-69
9
-71
-146
-73
-53
-74
34
134
215
352
163
-388
-592
-312
-135
-168
-145
-106
-145
-172
-150
-123
-112
-113
-97
-53
-20
-19
-5
64
147
179
187
246
303
250
152
90
0
-119
-182
-230
-290
-268
-205
-217
-238
-188
-122
-98
-110
-65
50
0
-213
-188
65
129
47
78
123
103
111
104
80
187
359
444
521
546
251
-191
-296
-128
-73
-93
-26
-3
-84
-80
26
47
-27
-43
32
108
102
72
167
328
358
319
359
381
335
302
197
-9
-111
-115
-204
-289
-228
-178
-269
-337
-241
-127
-174
-275
-220
-77
-56
-120
-115
-118
-211
-217
-108
-140
-267
-182
-45
-103
-65
159
222
243
357
113
-370
-410
-167
-129
-123
-25
-32
-57
24
71
49
49
68
78
89
112
161
213
242
291
364
399
375
309
231
187
138
36
-41
-39
-49
-107
-135
-140
-196
-233
-158
-73
-78
-81
-12
57
61
7
-56
-86
-98
-102
-70
-15
5
-44
-130
-96
100
212
147
90
-28
-315
-448
-274
-144
-188
-177
-118
-150
-183
-124
-79
-117
-149
-119
-76
-41
9
53
83
184
328
354
281
277
308
251
158
94
43
46
106
115
77
81
98
73
47
51
59
