# session 7
-201
220
143
-315
-603
-551
-295
381
1406
2051
2302
2776
3123
2834
2549
2632
2450
1809
1069
284
-553
-1315
-1871
-1972
-1739
-1735
-1950
-2001
-1869
-1497
-1141
-1188
-760
-140
-1766
-3782
-1162
3783
4703
2501
1197
573
137
834
1762
1809
1511
1063
221
-526
-873
-1173
-1506
-1603
-1435
-1194
-947
-688
-591
-793
-1085
-1215
-1242
-1322
-1442
-1439
-1107
-206
1278
2522
2583
2119
2275
2436
2102
2244
2029
-215
-2191
-1251
326
348
225
315
-242
-391
254
195
-644
-1154
-1249
-1123
-661
-59
574
1388
2194
2663
2819
2868
2931
2977
2855
2497
2029
1568
1081
504
-229
-1221
-2379
-3163
-3145
-2703
-2350
-1990
-1447
-748
-249
-880
-2207
-1725
936
2843
2672
1730
705
-93
193
1190
1600
1341
1006
520
-226
-856
-1182
-1387
-1561
-1635
-1608
-1531
-1389
-1211
-1154
-1266
-1376
-1341
-1207
-1112
-972
-498
142
468
731
1251
1325
657
193
342
588
739
584
-491
-2247
-3244
-2630
-1415
-910
-858
-672
-756
-1138
-1247
-1236
-1330
-1234
-1096
-1022
-393
808
1762
2357
3096
3891
4325
4302
3796
2841
1849
1186
696
157
-369
-923
-1595
-2074
-2235
-2384
-2219
-1390
-808
-924
-756
-386
-536
-268
633
774
835
2178
3013
1683
105
283
1319
1578
1041
503
203
45
-63
-248
-402
-506
-897
-1406
-1402
-913
-503
-463
-654
-740
-693
-749
-747
-425
58
579
998
899
417
154
57
17
452
1012
1006
1039
1414
870
-672
-1621
-1702
-1588
-1084
-515
-801
-1352
-1187
-909
-1113
-1282
-1356
-1685
-1607
-407
1273
2486
3125
3426
3577
3866
4239
4128
3302
2202
1205
379
-309
-1060
-1777
-2017
-2172
-2915
-3518
-3089
-2164
-1541
-1414
-1283
-541
-501
-2423
-3524
-1262
1833
3101
3006
1951
572
657
2016
2684
2293
1683
1053
338
-335
-920
-1361
-1575
-1602
-1476
-1227
-1020
-962
-930
-822
-771
-846
-840
-636
-375
-56
444
1000
1479
1852
1840
1329
803
609
635
624
142
-686
-959
-621
-429
-394
-442
-833
-981
-450
-135
-454
-706
-682
-647
-445
82
781
1506
2190
2786
3182
3294
3329
3340
2865
1875
1056
604
35
-790
-1548
-2160
-2989
-4088
-4636
-4003
-2841
-2096
-1898
-1829
-1439
-940
-1137
-1948
-2236
-1176
974
2576
2126
777
658
1550
2158
2359
2278
1680
788
33
-528
-897
-1014
-997
-955
-866
-768
-729
-749
-849
-990
-1065
-1089
-1094
-1030
-963
-806
-21
1331
1989
1379
775
1123
1569
1432
1419
1516
487
-1063
-988
162
223
-185
591
1830
2054
1037
-428
-1207
-1094
-868
-689
-232
269
598
971
1435
1823
2075
2205
2243
2214
2021
1558
923
324
-179
-649
-1184
-1792
-2224
-2408
-2788
-3251
-2863
-1834
-1547
-2101
-2459
-2232
-1526
-1044
-1586
-1501
1272
4473
4762
2985
1335
277
202
1162
1908
1776
1259
707
234
-156
-628
-1048
-1158
-1085
-992
-875
-757
-588
-382
-308
-313
-279
-315
-222
233
596
594
410
-268
-1251
-1247
-137
895
1480
1617
1288
1358
1765
909
-1006
-2114
-2208
-2036
-1660
-1461
-1788
-1998
-1883
-2129
-2776
-3175
-2822
-1200
1483
3503
3624
2834
2613
3270
4382
5117
4728
3591
2605
1919
1354
934
521
25
-344
-605
-968
-1486
-2233
-2877
-2852
-2674
-2663
-1831
-1118
-2449
-3396
-1118
1697
2245
1475
154
-993
-306
1414
2085
2055
2145
1785
1018
531
6
-930
-1628
-1633
-1415
-1381
-1357
-1152
-1006
-1257
-1713
-1917
-1827
-1674
-1616
-1563
-891
619
1789
1740
1334
1467
1750
1695
1549
1450
871
-124
-323
514
1063
712
-87
-922
-1224
-814
-448
-630
-1368
-2336
-2208
-444
1010
872
639
1431
2333
2631
2673
2703
2606
2338
1938
1377
617
-250
-1083
-1814
-2383
-2725
-2710
-2297
-2013
-2126
-1810
-1058
-899
-612
216
-467
-1715
-310
1447
580
110
1183
876
174
1311
2415
2214
1881
1426
477
-248
-565
-897
-1183
-1253
-1152
-925
-730
-636
-463
-232
-240
-498
-641
-461
-147
143
525
948
1082
918
789
788
856
985
1000
974
1256
1269
114
-1408
-1867
-1373
-733
-317
-303
-429
-303
-284
-726
-1169
-1134
-691
-123
405
942
1400
1485
1372
1504
1694
1689
1833
2049
1738
1111
772
469
-260
-1308
-2445
-3321
-3341
-2526
-1773
-1669
-1761
-1576
-1488
-1477
-879
-737
-2126
-2134
1544
5096
5015
3326
2050
931
687
1627
2165
1698
1047
419
-282
-760
-952
-1064
-1185
-1305
-1335
-1175
-894
-641
-524
-571
-665
-740
-834
-745
-209
453
588
177
-207
-351
-436
-396
-193
30
356
648
743
1204
1719
697
-1331
-1951
-1198
-1037
-1605
-1582
-682
207
399
96
-168
-200
-87
71
283
648
1103
1458
1722
1960
2132
2329
2609
2701
2410
1855
1208
641
163
-425
-1041
-1442
-1755
-2063
-2118
-1825
-1495
-1571
-1773
-1364
-1097
-2115
-3060
-2366
-735
1303
3307
3481
1743
274
67
716
1472
1412
736
352
52
-590
-1063
-1082
-1046
-1053
-791
-313
-12
181
530
594
-35
-747
-917
-795
-702
-471
102
794
1043
687
263
184
360
656
976
1261
1417
711
-1310
-3043
-2763
-1585
-1321
-1532
-1283
-878
-579
-223
-43
-257
-560
-614
-357
141
704
1104
1319
1500
1674
1793
1916
2055
2151
2156
1920
1395
854
314
-437
-1028
-1137
-1244
-1479
-1425
-1256
-1175
-1032
-1036
-812
211
665
-266
-617
108
300
444
1067
650
-209
587
2102
2339
1548
710
65
-411
-783
-1103
-1311
-1344
-1194
-932
-685
-512
-410
-346
-248
-127
-93
-95
3
98
116
330
733
865
778
934
1167
1125
982
912
860
748
570
630
736
-127
-1499
-1632
-1002
-1265
-1875
-1806
-1474
-1016
-289
-28
-486
-737
-330
211
550
856
1198
1434
1512
1470
1438
1598
1868
2068
2287
2359
1796
811
128
-239
-789
-1574
-2249
-2592
-2596
-2325
-1978
-1836
-1787
-1581
-1507
-1596
-1401
-1735
-3299
-3597
-575
2686
2797
1447
1243
1512
1193
948
1175
1350
1244
937
384
-276
-695
-803
-848
-949
-949
-791
-691
-710
-650
-544
-541
-521
-473
-559
-630
-594
-651
-599
-101
617
1305
1818
1791
1471
1531
1767
1908
2162
1715
-163
-1939
-2123
-1477
-894
-331
2
57
300
567
350
-142
-441
-425
-119
299
584
780
1018
1207
1286
1310
1332
1452
1654
1702
1595
1620
1771
1703
1121
-9
-1249
-1926
-2043
-2169
-2309
-2092
-1788
-1671
-1413
-1194
-1324
-1128
-897
-1671
-1650
862
2762
1584
87
466
1252
1423
1439
1236
630
8
-377
-608
-755
-859
-953
-996
-920
-720
-480
-270
-104
-32
-82
-221
-419
-502
-264
188
790
1485
1533
551
-358
-389
-162
-20
267
548
810
871
-110
-1633
-2001
-1387
-1008
-715
-361
-333
-158
314
264
-172
-207
-25
15
124
340
541
826
1132
1248
1291
1507
1813
1901
1616
1109
684
419
104
-232
-292
-328
-825
-1317
-1382
-1854
-2726
-2395
-1010
-535
-905
-917
-1284
-2296
-1966
279
2370
3113
2892
1852
451
-158
300
1038
1354
1042
554
388
89
-714
-1265
-1140
-930
-889
-772
-597
-437
-295
-319
-501
-628
-748
-931
-873
-523
-336
-285
162
746
758
507
605
749
795
1024
792
-227
-650
-41
48
-630
-687
0
386
81
-509
-696
-311
-43
-262
-511
-444
-69
504
974
1202
1412
1639
1725
1799
1985
2031
1756
1362
1082
866
529
88
-341
-860
-1396
-1509
-1289
-1290
-1411
-1335
-1349
-1600
-1638
-1055
-304
-594
-1732
-1542
645
2802
3238
1921
35
-614
264
1114
1242
1174
941
347
-286
-664
-837
-915
-927
-828
-627
-434
-333
-319
-326
-335
-459
-713
-874
-819
-700
-654
-564
-155
533
889
603
257
239
212
165
197
-250
-994
-817
71
239
-236
-416
-444
-491
-116
431
519
264
-83
-444
-383
251
906
1293
1515
1479
1279
1269
1385
1337
1127
847
581
416
215
-109
-346
-581
-1194
-1968
-2315
-2263
-2096
-1823
-1599
-1334
-708
-713
-2064
-2284
447
3208
3264
2015
1085
396
286
1008
1762
1986
1729
1085
323
-292
-767
-1073
-1162
-1169
-1143
-1016
-863
-800
-778
-715
-665
-651
-581
-517
-627
-833
-900
-659
-13
857
1392
1188
659
623
949
947
1076
1547
810
-1101
-1622
-588
-320
-858
-827
-526
-455
-204
81
-101
-505
-637
-430
-50
331
605
799
1045
1396
1709
1845
1870
1880
1866
1789
1558
1175
881
737
422
-146
-596
-692
-664
-946
-1580
-2032
-1951
-1563
-1177
-1203
-1814
-1965
-744
842
1614
1687
1075
-93
-513
508
1803
2228
1960
1690
1744
1871
1524
560
-473
-1006
-1078
-1048
-1042
-969
-781
-568
-493
-588
-709
-829
-921
-681
-191
-168
-667
-920
-869
-1040
-1277
-1187
-855
-547
-377
56
996
1342
464
-218
-77
-235
-732
-832
-702
-425
2
-16
-388
-399
-166
-50
126
382
516
555
546
495
510
540
418
239
224
327
322
92
-335
-775
-960
-960
-1131
-1365
-1222
-918
-1035
-1357
-1203
-685
-384
-165
186
-18
-693
-141
1928
3402
3183
2150
957
9
24
733
1097
962
749
506
242
83
-60
-285
-441
-368
-118
134
300
385
374
300
206
8
-238
-252
-20
182
283
361
385
356
307
245
280
407
478
608
689
191
-447
-257
120
-343
-984
-1069
-907
-531
23
172
-11
84
414
679
812
712
540
700
1108
1338
1326
1279
1154
682
0
-297
-106
10
-100
-151
-357
-1091
-2024
-2533
-2578
-2505
-2300
-1930
-1828
-1827
-1297
-910
-1278
-1544
-1718
-1831
-36
2778
2736
464
-138
893
1389
1398
1474
1262
737
258
-74
-340
-637
-878
-845
-641
-573
-589
-484
-367
-350
-291
-217
-280
-344
-348
-451
-274
704
1792
1838
1085
684
847
867
774
1213
1475
468
-512
60
836
435
-239
-437
-324
107
474
294
-34
-126
-142
-42
264
583
854
1112
1238
1226
1219
1238
1210
1144
1076
916
626
376
152
-196
-522
-930
-1769
-2507
-2417
-1826
-1224
-973
-1159
-743
-131
-1055
-1262
520
-1474
-7176
-6933
-823
1607
360
886
1935
1716
1885
2094
1183
259
12
-181
-368
-300
-202
-234
-187
116
463
579
593
534
147
-233
-66
176
-11
90
899
1364
812
86
-78
147
497
698
668
862
981
131
-734
-51
1150
1163
471
67
-11
224
619
673
447
377
423
387
354
414
545
673
693
673
767
854
763
570
283
-167
-557
-681
-859
-1421
-2112
-2520
-2493
-2052
-1510
-1067
-586
-505
-910
-581
-107
-829
-410
870
-2453
-7276
-4478
1784
1915
-580
566
2477
2413
2092
1902
1219
548
88
-292
-405
-374
-423
-416
-302
-209
-147
-95
-106
-181
-239
-228
-164
-128
-130
59
625
1201
1250
880
542
326
266
477
635
538
707
1022
494
-500
-589
-69
-64
-323
-282
-248
-370
-322
-158
-223
-440
-437
-104
355
670
767
934
1308
1527
1490
1529
1606
1525
1365
941
94
-553
-496
-272
-557
-1141
-1323
-1187
-1594
-2396
-2410
-1672
-1265
-1148
-719
-499
-1024
-1231
107
2132
2924
2157
1033
416
471
1086
1717
1743
1215
655
315
49
-300
-699
-1051
-1266
-1261
-1101
-931
-724
-452
-329
-432
-525
-508
-410
-69
487
765
503
72
-130
-177
-288
-342
-167
49
344
1082
1713
1216
25
-661
-784
-857
-839
-519
-50
156
-55
-356
-512
-644
-719
-574
-359
-271
-155
214
726
1062
1114
1096
1183
1211
990
648
358
115
-131
-521
-1098
-1474
-1494
-1617
-1826
-1644
-1435
-1701
-1908
-1589
-1052
-751
-998
-1118
252
2313
2783
1949
1500
1113
296
160
956
1427
1101
588
267
100
60
93
66
-6
22
159
372
693
1028
1321
1616
1556
816
45
80
676
1037
939
708
513
227
-85
-134
72
273
285
16
-316
-414
-635
-1296
-1710
-1404
-978
-759
-513
-452
-744
-946
-941
-1022
-1036
-727
-287
131
644
1201
1597
1879
2196
2372
2140
1637
1145
698
323
91
-187
-696
-1248
-1591
-1751
-1846
-1802
-1486
-1203
-1387
-1527
-1067
-908
-1445
-1732
-2520
-4168
-3150
1020
2571
155
-1008
258
881
790
1248
1503
1095
632
195
-311
-640
-778
-840
-755
-562
-434
-402
-400
-384
-341
-288
-220
-128
-80
-72
45
292
549
974
1742
2400
2427
2009
1574
1418
1353
311
-1547
-1822
-76
951
373
-197
-408
-643
-440
53
96
-171
-240
-50
293
699
1054
1262
1269
1160
1125
1308
1610
1648
1386
1268
1151
550
-5
90
168
-232
-537
-835
-1647
-2167
-1727
-1260
-1060
-573
-387
-423
92
-761
-3399
-3052
1135
3064
1002
-495
222
1253
1843
2084
1864
1424
955
431
10
-259
-553
-896
-1167
-1285
-1249
-1108
-916
-772
-778
-819
-733
-649
-672
-561
-186
199
386
383
232
93
167
373
505
546
647
800
489
-593
-1423
-889
208
339
-479
-1113
-1018
-645
-586
-743
-705
-509
-329
-85
203
468
845
1321
1638
1740
1848
2031
2004
1520
881
590
595
497
290
224
222
26
-267
-533
-1130
-2058
-2497
-2276
-1985
-1564
-1163
-1416
-1491
-608
-26
54
850
1379
376
-598
-189
673
1049
968
676
410
209
-72
-399
-606
-686
-728
-702
-542
-360
-234
61
446
301
-418
-875
-657
-121
387
679
590
171
-279
-440
-327
-174
20
164
11
-5
475
706
297
-179
-655
-1245
-1417
-1048
-556
-67
264
240
166
279
323
265
460
935
1259
1203
1054
1111
1263
1271
1051
648
251
71
46
-25
-201
-480
-733
-775
-837
-1192
-1426
-1156
-761
-716
-855
-582
-155
-1058
-3009
-2991
-252
2126
2428
1697
745
113
363
859
861
687
554
317
151
128
27
-187
-401
-511
-405
-120
161
307
322
379
576
747
856
1068
1338
1629
2035
2323
2257
1908
1247
557
263
-27
-226
241
-144
-2255
-2991
-993
467
53
-375
-419
-503
-265
-51
-298
-472
-366
-306
-232
65
567
1049
1278
1476
1886
2150
2159
2236
1991
1032
132
-208
-568
-1052
-1231
-1302
-1532
-1651
-1564
-1496
-1434
-1134
-727
-683
-721
-287
-262
-1094
-995
348
818
326
252
208
-1
511
1322
1489
1253
907
327
-256
-619
-911
-1175
-1301
-1305
-1263
-1234
-1219
-1138
-1062
-1136
-1238
-1235
-1262
-1331
-1280
-1118
-837
-262
521
1103
1236
986
628
518
691
838
865
593
-443
-1557
-1331
-332
-207
-731
-923
-911
-899
-774
-727
-748
-549
-242
-46
137
363
545
702
826
847
905
1116
1270
1211
1020
681
179
-258
-506
-745
-1121
-1519
-1683
-1560
-1406
-1350
-1193
-893
-671
-469
-179
-217
-579
-216
1135
2185
2248
1870
1291
632
623
1398
2001
1927
1617
1350
1038
785
649
544
592
738
753
916
1270
1157
701
604
