# session 6
-1290
-1908
-3541
-2547
90
-197
-1630
-920
-25
-440
-508
303
1281
2416
3618
4522
5309
6181
6840
7156
7428
7643
7317
6315
5091
4002
3037
2181
1304
-31
-1869
-3777
-5566
-6651
-6346
-5736
-5239
-3216
-1842
-4328
-4470
4161
13856
15656
12870
9661
5139
1940
3253
5599
5318
3949
3041
1900
645
-59
-615
-1353
-1976
-2500
-3020
-3227
-3058
-2863
-2724
-2499
-2352
-2464
-2539
-2279
-1901
-1510
-716
571
1755
2097
1509
996
1126
970
1014
2932
4431
2322
-573
-822
-631
-2272
-4373
-5158
-3935
-1587
-332
-857
-1864
-2356
-2062
-1115
-101
646
1277
1901
2544
3120
3396
3452
3568
3602
3281
2648
1600
-16
-1607
-2612
-3642
-5248
-6776
-7391
-6887
-5917
-5563
-5451
-4737
-4340
-3852
-1876
-1337
-2891
494
9103
13197
10901
7887
4651
1568
2135
4452
4340
2982
2249
1044
-794
-2045
-2569
-2844
-2983
-2958
-2703
-2324
-2124
-2009
-1703
-1511
-1819
-2253
-2241
-1800
-1211
-403
708
1503
1392
994
967
825
496
594
868
1489
3298
4474
2295
-1803
-4446
-4939
-4569
-4275
-3652
-2054
-744
-1147
-2150
-2364
-2109
-1556
-349
1051
2039
2871
3930
4970
5601
5937
6320
6590
6240
5183
3870
2794
1924
799
-591
-2104
-4331
-6897
-7784
-6922
-6440
-6257
-5107
-4014
-3399
-2186
-1658
-1812
1725
8571
11767
9357
5339
1985
641
2355
4613
4762
3715
2746
1736
686
-394
-1666
-2804
-3382
-3312
-2756
-2135
-1703
-1264
-818
-683
-924
-1338
-1576
-1330
-1028
-1367
-1837
-1400
-321
369
559
835
1146
1112
1151
1429
1137
1105
3053
4545
1740
-3119
-5021
-4409
-5146
-7370
-7661
-4984
-2220
-1415
-1516
-1276
-708
57
1004
2040
3047
3675
3819
4069
4745
5386
5644
5443
4629
3478
2447
1296
-248
-1986
-3835
-5088
-4751
-4030
-4727
-5681
-5359
-4725
-4500
-4409
-4682
-4485
-3184
-2714
-2253
2578
9831
12575
10405
7083
3387
859
1980
4404
4520
3264
2574
1878
622
-539
-1436
-2407
-3185
-3314
-3004
-2698
-2483
-2478
-2873
-3326
-3436
-3372
-3076
-2056
-456
1002
1834
1885
1493
1264
1262
1234
1173
1115
1264
1706
1886
2104
3392
4269
2366
-746
-2293
-2991
-3921
-3925
-2916
-2237
-1951
-1700
-1755
-1786
-1331
-696
60
1218
2625
4014
5177
5821
6030
6057
5669
4735
3793
3150
2455
1632
828
-487
-2609
-4552
-5658
-6417
-6877
-6739
-6112
-4882
-3793
-3680
-2718
-1393
-3797
-5821
928
10664
12220
8179
5158
2591
907
2236
4038
3773
2754
1796
358
-1083
-1882
-2289
-2655
-2937
-2880
-2488
-2193
-2094
-1792
-1350
-1191
-1216
-1188
-1199
-1118
-760
-418
-177
233
599
712
831
746
395
568
976
994
1979
3424
1833
-1838
-3099
-2554
-3041
-3622
-3445
-3329
-2570
-1004
-528
-1389
-1828
-1233
-222
784
1569
2089
2568
3007
3192
3271
3571
4104
4778
5477
5746
5199
4000
2474
787
-1006
-2986
-5136
-7003
-7952
-7872
-7389
-6853
-5950
-5094
-4675
-3590
-2455
-3151
-2206
4303
10841
11071
7770
4446
1082
-75
2186
4196
3850
2816
1918
861
-106
-898
-1589
-2103
-2599
-2953
-2726
-2142
-1763
-1580
-1406
-1409
-1694
-1842
-1312
-394
-64
-488
-823
-856
-1031
-1128
-889
-560
349
2165
3539
3967
4672
4749
1953
-2136
-3806
-3063
-2792
-3454
-2802
-550
801
313
-378
-427
-335
-125
455
1206
1940
2655
3375
4168
4881
5237
5489
6004
6199
5310
3759
2331
902
-754
-2148
-2903
-3337
-4098
-5499
-6441
-5260
-2933
-1960
-1786
-1312
-2722
-4995
-1839
6404
11027
9036
5433
2653
-15
-1145
11
1008
513
-200
-484
-820
-1207
-1527
-1974
-2415
-2578
-2543
-2322
-1768
-1130
-885
-1181
-1847
-2489
-2730
-2684
-2455
-1554
-163
406
-17
-152
169
370
885
1553
1767
2887
5160
5392
2508
-764
-3023
-4506
-4921
-4467
-3535
-2214
-1471
-1767
-1948
-1551
-1286
-1135
-489
724
2211
3670
4728
5198
5458
5920
6179
5587
4398
3220
2052
861
-138
-1235
-2656
-3739
-4332
-5402
-7011
-7924
-7468
-6262
-5447
-4767
-2891
-1888
-4575
-5725
829
8981
10098
6733
4075
1741
148
1432
3791
4169
3114
2253
1449
444
-338
-957
-1716
-2349
-2534
-2400
-2215
-2058
-1839
-1540
-1431
-1716
-2092
-2048
-1436
-367
1070
2408
2768
2082
1392
1132
836
748
1230
1812
2938
4974
5361
2395
-989
-2233
-2488
-2727
-2358
-1318
-148
626
600
-39
-566
-454
187
880
1511
2260
2889
3079
3137
3459
3863
4013
3908
3607
2988
2016
735
-917
-2620
-3775
-4479
-5086
-5365
-5288
-5009
-4330
-3808
-3658
-2563
-1950
-4608
-5899
70
7361
7997
5377
4375
3304
1994
2618
3810
3710
3084
2270
926
-321
-1124
-1838
-2384
-2549
-2543
-2546
-2523
-2447
-2351
-2305
-2281
-2165
-2045
-2134
-2366
-2506
-2447
-2097
-1206
273
1649
2094
1815
1423
1218
2096
4014
4266
1983
374
533
-46
-1512
-1611
-190
1145
1432
660
-472
-1056
-848
-286
260
805
1394
1899
2253
2481
2605
2713
2797
2681
2318
1715
845
-53
-818
-1668
-2481
-3178
-4612
-6759
-7746
-6911
-5673
-4635
-3344
-1889
-879
-1025
-1529
162
3865
5951
5072
2841
259
-1519
-802
1776
3757
3975
2976
1690
585
-401
-1253
-1769
-2063
-2280
-2255
-2070
-1976
-1790
-1439
-1301
-1302
-1163
-1371
-2140
-2573
-2064
-979
145
914
1231
1273
1179
1404
2083
2493
3450
6172
7492
4129
-543
-2352
-2510
-2797
-2433
-990
615
1317
962
467
428
651
1071
1632
2041
2411
2983
3416
3385
3155
2943
2783
2988
3513
3497
2482
1106
215
116
429
328
-548
-1724
-2844
-4329
-6492
-8290
-8109
-6301
-4924
-4405
-3654
-2662
-943
2950
7050
7480
4761
1925
-127
-880
247
1526
1211
249
-75
-81
-309
-525
-538
-784
-1433
-1814
-1575
-1210
-1060
-1124
-1419
-1714
-1842
-2069
-2311
-2071
-1580
-1494
-1491
-686
661
1397
1417
1599
1908
1808
1944
2747
2912
1778
460
-553
-1440
-1625
-1000
-275
267
318
-340
-913
-860
-698
-630
-269
475
1385
2213
2780
3147
3532
4082
4626
4549
3549
2224
1303
845
410
-329
-1104
-1852
-3518
-6089
-7557
-7001
-5682
-4689
-4359
-3878
-2133
-1643
-4194
-3657
3491
8959
7149
3438
1539
92
-66
1648
2737
2470
2137
1600
523
-414
-1054
-1639
-1903
-1727
-1389
-1006
-723
-854
-1367
-1877
-2162
-2212
-2143
-2064
-1839
-1377
-682
587
2285
3234
2920
2192
1863
1931
1899
2072
3174
3243
400
-1473
906
3107
1536
-774
-1679
-2150
-1956
-881
-208
-367
-778
-1000
-564
537
1602
2369
3065
3542
3634
3586
3508
3256
2759
1974
1073
436
-83
-1010
-2300
-3611
-4816
-5697
-6074
-5783
-4787
-3897
-3186
-1713
-1386
-3627
-3156
2919
7613
6495
3669
1707
372
1052
3147
3947
3516
3111
2330
983
-226
-1097
-1767
-2177
-2366
-2416
-2337
-2192
-1952
-1719
-2067
-3089
-3856
-3946
-3902
-3783
-3469
-3231
-2278
270
2656
2865
2037
1993
2508
2719
2616
3076
4172
3800
1188
-981
-1401
-1699
-2408
-2774
-2558
-1699
-737
-581
-915
-917
-569
-8
723
1204
1270
1487
2241
3111
3591
3708
3611
3344
3144
2945
2143
843
-95
-566
-847
-861
-1363
-3179
-5112
-5631
-4969
-3994
-3420
-3136
-2125
-1473
-2689
-2345
2454
7499
9163
8952
7075
3334
1207
2132
2931
2134
1196
486
-438
-1180
-1567
-1999
-2486
-2709
-2583
-2291
-1951
-1527
-1249
-1441
-1820
-2109
-2544
-2647
-1504
74
378
-552
-1542
-2229
-2694
-2614
-1777
-739
-125
544
1521
1411
378
1096
2993
2679
1228
1493
1481
-533
-1575
-395
329
-308
-713
-334
328
1233
2482
3662
4225
4306
4515
4867
4808
4184
3377
2707
2085
1273
598
583
605
-138
-868
-1177
-2487
-4975
-6579
-6337
-5533
-5488
-5525
-4323
-3581
-4938
-3948
2670
8499
7422
2708
-840
-2149
-910
1543
2411
1613
829
202
-606
-1254
-1672
-2031
-2240
-2263
-2253
-2244
-2131
-1956
-1857
-1771
-1632
-1485
-1229
-1006
-1181
-1163
-43
1439
1845
1233
599
424
604
984
1930
3493
3975
1929
-1106
-2847
-3257
-3192
-2736
-1913
-1059
-401
-92
-174
-388
-385
99
1168
2473
3483
4277
5171
5845
6065
6335
6653
6148
4750
3345
2182
860
-604
-2009
-3520
-5133
-6338
-6819
-6603
-5553
-4146
-3112
-1621
-51
-1371
-3709
-891
5099
6723
4646
3666
2882
1092
774
2081
2699
2492
2238
1578
586
-125
-718
-1501
-2144
-2348
-2343
-2406
-2484
-2480
-2443
-2357
-2223
-2244
-2422
-2470
-2401
-2369
-2007
-899
651
1880
2214
1714
1081
1099
1861
2390
1656
143
-773
-734
-452
-531
-871
-937
-578
-230
-227
-487
-738
-715
-348
244
930
1629
2325
3040
3681
4133
4559
5164
5577
5199
4151
3020
2009
1006
-207
-1751
-3096
-3771
-4318
-4941
-4958
-4386
-3676
-2946
-2381
-1434
-239
-1171
-3290
-1533
3306
5122
3297
1195
-327
-607
1117
2751
2602
1840
1226
322
-591
-1119
-1549
-2024
-2381
-2521
-2398
-2149
-2000
-1833
-1538
-1534
-2040
-2442
-2339
-2049
-1366
179
1658
1825
1124
625
599
980
1403
1253
824
554
-668
-3195
-4295
-2279
97
206
-714
-853
-478
-354
-547
-803
-1053
-1460
-1783
-1429
-480
575
1809
3274
4473
5287
6002
6240
5459
4115
2929
1844
707
-302
-1308
-2353
-2900
-2999
-3373
-3769
-3497
-2904
-2439
-1955
-1275
-367
-197
-1392
-858
3987
8753
8301
4598
1698
419
594
1710
2285
1904
1319
738
145
-291
-722
-1270
-1694
-1859
-1854
-1695
-1279
-642
-172
-229
-609
-960
-1318
-1640
-1572
-1038
-338
133
-30
-673
-930
-569
-186
459
1675
2277
2296
3649
4976
2638
-2108
-4871
-4756
-3412
-2004
-1230
-991
-952
-1469
-2132
-1939
-1294
-953
-395
863
2299
3331
3921
4365
4774
4722
3890
2760
1896
1200
405
-557
-1667
-2621
-3123
-3407
-3563
-3358
-3165
-3144
-2618
-1931
-1714
-1032
-429
-1894
-3370
-1554
1843
4041
4787
3516
792
-251
1209
2670
2817
2283
1479
498
-340
-918
-1425
-1866
-2031
-1903
-1619
-1176
-705
-570
-756
-940
-1159
-1485
-1621
-1491
-1412
-1429
-1092
-3
1412
1965
1240
398
350
532
568
911
1268
952
292
-212
-588
-833
-1046
-1160
-633
254
430
-114
-628
-995
-1226
-925
-58
926
1825
2700
3455
3972
4255
4266
4019
3582
2854
1835
834
-41
-954
-1873
-2815
-3898
-4670
-4696
-4398
-4006
-3453
-3033
-2195
-957
-1710
-3558
-1492
3423
5027
3320
2040
1401
1171
2033
2828
2695
2484
2311
1687
879
229
-278
-705
-1092
-1298
-1220
-1108
-1104
-1041
-903
-856
-984
-1257
-1456
-1339
-1050
-816
-492
17
593
1217
1646
1565
1336
1248
1228
1878
2932
2286
-90
-1499
-1475
-1697
-1876
-911
322
538
-71
-772
-1280
-1464
-1231
-728
-13
1051
2209
2979
3379
3675
3831
3746
3487
3140
2707
2058
1120
130
-787
-1911
-3189
-4056
-4522
-5058
-5357
-4802
-3737
-2865
-2127
-1357
-1243
-1891
-1496
851
3253
4155
3633
1673
-538
-639
1047
2081
1882
1370
808
133
-476
-919
-1252
-1562
-1802
-1812
-1619
-1370
-1074
-762
-545
-481
-627
-947
-1238
-1516
-1920
-2063
-1521
-735
-209
390
1226
1750
1944
2366
2803
2995
3529
3696
1627
-1663
-3110
-2459
-1520
-768
52
659
749
231
-683
-1413
-1571
-1242
-646
64
825
1682
2622
3427
3945
4309
4596
4563
3941
2778
1481
502
-161
-902
-1896
-2973
-3879
-4155
-3461
-2549
-2589
-3346
-3592
-2837
-1715
-1384
-2024
-1711
1148
4717
5632
3274
300
-639
396
1555
1878
1655
1121
470
77
-124
-455
-871
-1192
-1325
-1244
-1114
-1000
-717
-436
-580
-987
-1246
-1442
-1815
-2248
-2397
-2085
-1388
-168
1691
3124
2719
1201
710
1475
1864
1455
1308
1448
739
-782
-1660
-1233
-262
602
1144
838
-263
-1133
-1502
-1963
-2420
-2403
-1826
-556
1319
3031
4038
4715
5466
5781
5023
3754
2906
2359
1735
1249
881
377
-378
-1937
-4299
-5915
-5901
-5147
-4487
-4075
-3393
-2068
-1654
-2460
-1234
2294
4051
3274
1925
187
-871
228
1652
1684
1466
1541
1149
375
-344
-984
-1457
-1701
-1738
-1547
-1297
-1101
-835
-674
-847
-1127
-1423
-1915
-2331
-2264
-1961
-1797
-1204
662
2882
3354
2088
1275
1830
2648
2817
2455
1805
715
-723
-1661
-1621
-1314
-1103
-394
520
562
-150
-1086
-2474
-3455
-2152
900
2824
2547
1792
2056
3036
3860
4127
3805
3085
2293
1610
1016
463
-117
-780
-1592
-2728
-4093
-5019
-5074
-4554
-3814
-3169
-2712
-1802
-786
-1070
-1131
1731
5114
5030
2719
950
-114
-125
1321
2546
2437
1869
1236
341
-341
-644
-961
-1159
-1164
-1415
-1703
-1450
-1032
-1002
-1086
-1118
-1472
-2113
-2507
-2439
-2279
-2109
-1022
1217
2746
2319
1375
1267
1682
2211
2663
3092
3708
3322
910
-1559
-2073
-1592
-1411
-1371
-1068
-442
-14
-357
-978
-1442
-2207
-2666
-1283
1301
2700
2462
2124
2214
2152
2216
3021
3988
4086
3187
1929
966
441
-4
-510
-919
-1574
-2725
-3496
-3336
-3023
-2875
-2489
-1985
-1240
-316
-552
-1320
405
3878
5081
3807
2399
947
-264
325
1731
1754
828
180
-387
-963
-1200
-1367
-1711
-1897
-1764
-1584
-1488
-1324
-1053
-902
-1025
-1297
-1528
-1618
-1571
-1458
-1166
-483
279
521
320
119
-62
-48
493
1008
1108
1687
2594
1926
-605
-3036
-3916
-3190
-1756
-847
-633
-531
-634
-1040
-1235
-1225
-1414
-1377
-467
931
2041
2832
3541
4024
4221
4223
3763
2845
2127
1615
620
-587
-1141
-1169
-1346
-1897
-2675
-3144
-2650
-1579
-1204
-1452
-920
-239
-1267
-2513
-1439
799
2391
3242
2450
213
-532
926
2082
2162
2241
2167
1438
656
269
-66
-560
-999
-1190
-1166
-1037
-827
-591
-482
-547
-759
-1218
-1750
-1792
-1389
-1101
-460
1175
2507
2101
946
552
850
1179
1237
1261
1536
1342
331
-226
-98
-579
-1302
-1141
-723
-571
-180
-23
-769
-1566
-1572
-1139
-566
278
1197
1839
2118
2185
2281
2501
2784
3044
3110
2870
2399
1732
785
-664
-2499
-3639
-3311
-2453
-2131
-2142
-2072
-1814
-1441
-1176
-663
11
-660
-2236
-1666
1256
3360
3198
1747
321
132
1146
1920
1893
1655
1277
540
-249
-814
-1233
-1544
-1658
-1578
-1458
-1367
-1197
-1024
-1059
-1205
-1396
-1820
-2156
-1925
-1700
-2069
-2024
-568
1275
1958
1519
1040
1156
1535
1716
2107
2652
1782
-733
-2575
-2527
-1788
-1456
-1442
-1172
-605
-471
-943
-1653
-2700
-3150
-1274
1728
2792
1970
1557
2033
2622
3250
3890
4058
3625
2932
2204
1518
997
519
-265
-1286
-2255
-3181
-3815
-3657
-2961
-2466
-2517
-2793
-2535
-2104
-2856
-3397
-693
3547
4756
3028
1403
348
-524
-328
732
1221
887
496
260
-50
-241
-118
-221
-898
-1398
-1150
-723
-632
-624
-469
-406
-724
-1289
-1630
-1621
-1437
-703
902
2247
2064
1107
724
786
920
1380
1869
2125
2549
2412
750
-1031
-1445
-1204
-771
-21
93
-577
-804
-560
-627
-1257
-2490
-2864
-352
3257
4278
3044
2243
2468
3272
4471
5122
4515
3388
2529
1853
1156
402
-446
-1242
-1659
-1720
-2005
-2620
-2630
-1852
-1383
-1247
-633
-106
19
401
-29
-1616
-1041
2394
3965
1807
-220
454
2112
2440
1370
270
-254
-701
-1333
-1877
-2173
-2302
-2359
-2321
-2157
-1996
-1892
-1730
-1618
-1712
-1783
-1702
-1630
-1388
-805
-413
-597
-924
-1025
-1031
-946
-655
