# session 35
-8
-80
-88
-28
-7
-46
-55
-64
-73
43
210
318
464
477
54
-423
-419
-191
-166
-214
-185
-203
-249
-197
-125
-119
-111
-66
-27
-11
-28
-61
-12
124
189
151
189
319
351
284
259
225
129
91
121
98
42
19
0
-16
-3
13
30
53
48
63
148
187
123
88
97
54
13
27
46
69
53
-14
54
225
259
371
672
527
-163
-519
-313
-175
-264
-301
-287
-303
-315
-327
-343
-335
-315
-307
-306
-292
-249
-196
-149
-64
50
95
71
89
145
115
1
-57
-62
-127
-230
-283
-260
-169
-121
-204
-243
-122
-55
-119
-88
56
108
69
54
70
88
95
143
267
294
188
291
687
1035
1295
1661
1854
1381
447
-164
-226
-218
-319
-319
-263
-279
-281
-289
-377
-426
-407
-498
-639
-610
-539
-647
-748
-657
-577
-594
-488
-273
-188
-163
6
180
141
18
-7
-3
-41
-55
-58
-105
-110
-44
-70
-177
-134
29
74
25
37
83
70
9
-3
51
26
-74
-50
45
65
133
264
368
542
560
106
-320
-222
-10
-29
-75
-64
-58
-29
4
12
4
-28
-42
-8
6
-2
62
186
279
341
423
509
522
458
411
400
340
255
222
193
131
78
39
28
57
59
53
125
223
309
442
582
689
793
867
973
1213
1380
1158
598
19
-348
-483
-522
-574
-641
-710
-771
-796
-810
-868
-945
-985
-997
-1036
-1092
-1086
-1020
-977
-919
-765
-605
-503
-363
-196
-97
-30
7
-41
-85
-22
53
25
-57
-62
14
34
-20
-9
84
114
43
-11
23
87
111
132
164
116
42
152
373
443
392
375
376
367
352
316
312
317
254
263
418
552
735
1012
890
237
-219
-149
2
32
47
-21
-124
-74
3
-64
-122
-73
-58
-77
-21
4
-27
83
130
-210
-459
-149
184
130
72
124
28
-112
-128
-152
-214
-197
-175
-229
-229
-158
-160
-206
-195
-158
-90
-10
-37
-112
-97
-96
-169
-158
-46
34
16
-70
-43
184
334
288
263
173
-145
-393
-336
-96
50
-215
-615
-448
59
149
-36
-24
85
93
41
20
97
200
206
208
324
441
465
478
500
454
350
256
174
93
35
12
1
-35
-105
-153
-101
-6
-22
-104
-46
108
112
-8
-68
-94
-144
-138
-105
-142
-163
-131
-189
-253
-110
111
198
212
138
-147
-460
-514
-355
-245
-269
-308
-304
-281
-220
-202
-300
-292
-103
-64
-210
-190
-5
90
100
142
202
230
262
324
289
165
162
71
-391
-667
-323
22
-25
-56
39
51
52
97
95
99
167
224
233
225
181
86
46
128
179
132
165
219
126
149
388
463
518
868
852
97
-435
-258
-83
-174
-157
-80
-162
-238
-174
-134
-211
-277
-250
-209
-204
-187
-136
-84
-33
42
132
187
196
192
176
113
17
-75
-136
-148
-155
-201
-230
-215
-206
-185
-139
-165
-228
-153
5
42
2
44
117
129
145
252
460
696
830
916
1205
1614
1641
1102
415
-9
-173
-226
-247
-273
-307
-335
-372
-426
-472
-512
-560
-612
-681
-765
-805
-780
-768
-808
-809
-699
-543
-407
-293
-215
-141
-23
43
-4
-15
65
83
34
29
30
-12
-43
-45
-36
-11
7
6
34
86
83
37
28
32
14
38
86
76
48
32
20
88
189
270
484
606
167
-432
-467
-193
-152
-214
-181
-163
-163
-102
-31
-18
-49
-46
20
66
69
109
152
109
100
255
445
515
523
533
492
396
320
263
169
78
56
67
54
41
48
42
30
89
192
211
168
196
312
421
492
604
785
918
1025
1305
1579
1352
648
14
-299
-449
-533
-546
-534
-537
-573
-647
-688
-664
-698
-842
-924
-856
-818
-924
-979
-855
-749
-782
-746
-527
-302
-181
-99
-41
-41
-52
-39
-49
-76
-44
19
28
-2
-9
19
42
26
36
120
137
59
136
350
356
217
293
508
660
869
1111
1192
1168
957
298
-452
-683
-548
-444
-296
-89
-36
-79
-86
-136
-196
-132
-78
-178
-269
-242
-234
-273
-236
-156
-129
-82
32
106
117
184
290
284
167
66
30
12
-52
-148
-168
-113
-113
-165
-160
-123
-124
-131
-105
-78
-66
-52
-30
-8
-5
-28
-42
-43
-77
-109
-68
-11
-19
-81
-130
-52
104
133
181
443
442
-109
-500
-298
-49
-87
-128
-60
-28
-22
50
146
181
166
155
150
141
136
144
186
251
282
268
267
322
391
395
333
273
208
130
92
42
-94
-163
-79
-32
-76
-60
-27
-73
-72
19
38
-28
-54
-51
-86
-124
-131
-124
-120
-156
-223
-189
-29
71
49
-28
-252
-560
-596
-339
-165
-170
-185
-188
-222
-225
-162
-136
-218
-275
-214
-144
-126
-120
-119
-59
99
216
255
320
372
365
382
369
238
140
116
-1
-81
11
-97
-452
-435
-11
182
119
172
241
205
236
312
261
165
197
301
345
379
501
622
680
846
1125
1336
1608
1882
1457
319
-440
-503
-595
-794
-719
-608
-696
-714
-590
-556
-648
-715
-716
-724
-761
-757
-712
-736
-819
-795
-641
-522
-455
-299
-137
-121
-121
-38
-31
-113
-91
-5
-26
-110
-145
-152
-141
-92
-53
-44
9
89
64
-24
15
135
122
12
12
100
81
41
223
468
498
492
536
312
-67
-111
93
155
124
157
174
139
118
118
132
159
162
149
161
164
151
192
265
296
323
378
414
426
434
401
330
254
138
0
-74
-127
-220
-246
-161
-111
-151
-176
-152
-134
-141
-143
-128
-124
-160
-218
-248
-239
-222
-200
-150
-127
-121
15
200
228
261
338
65
-410
-461
-221
-199
-267
-186
-139
-213
-258
-230
-203
-206
-192
-141
-128
-154
-108
-8
19
2
75
225
337
396
433
408
330
267
215
147
103
96
88
58
27
39
72
70
60
100
155
168
136
89
72
85
70
17
-37
-44
3
10
-7
140
390
568
810
969
546
-159
-380
-246
-274
-363
-309
-264
-319
-372
-375
-362
-353
-359
-392
-407
-360
-306
-290
-253
-214
-233
-209
-99
-61
-104
-92
-64
-104
-159
-182
-174
-156
-180
-234
-239
-178
-117
-113
-118
-57
31
53
21
56
162
125
-24
59
173
-135
-398
-79
303
371
455
589
691
810
591
10
-212
32
134
44
82
189
192
112
68
129
175
98
82
200
178
-36
-129
-33
60
120
207
293
350
325
226
181
126
-41
-96
-88
-404
-696
-407
-71
-236
-382
-186
-93
-207
-189
-20
74
62
50
91
174
287
432
574
662
784
1095
1422
1275
541
-215
-478
-411
-418
-528
-565
-536
-526
-520
-513
-554
-628
-670
-672
-680
-719
-739
-699
-650
-621
-533
-355
-182
-60
70
192
240
252
270
254
226
226
198
157
170
147
63
76
185
238
203
122
80
180
306
274
174
146
124
68
45
54
81
119
79
3
85
238
287
405
544
254
-294
-443
-253
-191
-229
-193
-163
-173
-165
-151
-137
-113
-114
-134
-122
-84
-66
-70
-60
-1
93
160
171
160
171
212
224
127
-29
-96
-91
-146
-196
-123
-63
-87
-24
39
-105
-182
79
341
320
227
219
202
160
155
166
169
188
175
106
136
280
368
564
911
770
36
-360
-143
-22
-161
-186
-127
-148
-187
-207
-205
-153
-136
-198
-215
-141
-85
-97
-106
-47
39
69
48
43
47
13
-66
-165
-238
-274
-303
-316
-288
-270
-277
-254
-218
-231
-245
-190
-102
-54
-77
-137
-161
-148
-149
-150
-139
-128
-92
-79
-108
-2
219
304
354
462
202
-360
-438
-60
-54
-377
-335
-5
132
123
117
52
28
130
160
63
62
187
247
229
278
378
415
419
473
496
389
260
225
183
83
39
46
-2
-55
-32
0
-23
-60
-48
18
80
85
45
-11
-92
-154
-113
-48
-128
-249
-183
-51
-69
-39
201
426
535
567
302
-212
-439
-284
-185
-262
-329
-331
-291
-272
-307
-283
-207
-228
-262
-173
-83
-93
-130
-124
-65
4
61
140
167
116
139
90
-239
-416
-123
139
84
53
113
76
30
58
56
43
109
195
224
208
188
171
151
128
93
43
36
84
83
53
156
285
288
448
790
663
-15
-426
-289
-139
-205
-264
-234
-202
-208
-238
-275
-293
-276
-236
-216
-231
-224
-160
-84
-18
63
130
162
179
159
109
74
-13
-153
-180
-117
-167
-280
-265
-183
-180
-206
-201
-197
-164
-77
-17
8
28
-33
-99
-16
34
-23
101
181
-247
-583
-99
545
575
500
783
817
268
-169
-84
84
84
85
72
17
54
105
44
21
79
43
-17
50
68
-41
-31
116
151
106
156
226
202
156
145
120
51
-45
-126
-144
-124
-140
-200
-229
-202
-179
-193
-195
-149
-93
-77
-84
-70
-50
-60
-43
66
193
247
303
443
581
695
1016
1551
1682
964
-25
-494
-511
-493
-500
-516
-566
-554
-494
-507
-541
-533
-572
-649
-654
-641
-744
-871
-825
-635
-474
-383
-310
-199
-9
139
126
112
201
208
121
159
233
164
95
125
127
94
97
145
239
284
228
224
277
217
139
178
183
127
170
220
142
125
262
413
559
565
142
-383
-429
-206
-177
-201
-116
-112
-187
-165
-108
-128
-139
-86
-56
-71
-76
-70
-45
17
67
86
141
240
301
276
191
126
125
86
-77
-214
-174
-126
-212
-223
-96
-88
-141
-77
-181
-453
-321
143
292
163
158
199
153
123
129
157
207
177
135
271
419
464
685
884
480
-153
-242
-35
-53
-115
-68
-102
-156
-96
-48
-92
-141
-143
-105
-80
-100
-84
-8
17
-21
-18
36
79
99
86
17
-88
-187
-254
-285
-294
-295
-294
-279
-239
-190
-158
-154
-180
-182
-98
-5
-34
-107
-81
-39
-76
-69
49
166
207
233
382
651
835
929
1024
797
135
-346
-334
-251
-272
-200
-97
-103
-120
-105
-138
-191
-214
-251
-306
-350
-388
-419
-450
-469
-409
-318
-284
-193
-15
52
42
135
193
86
5
49
72
23
-8
-6
-18
-30
-13
10
43
110
145
97
50
69
89
49
-10
-34
-22
-5
-36
-67
38
194
221
217
190
-91
-411
-356
-123
-47
-42
-49
-112
-122
-87
-147
-218
-183
-141
-128
-64
2
-5
1
96
225
335
425
479
513
550
474
260
174
187
-115
-499
-340
67
100
-12
70
137
75
36
90
207
279
219
156
184
169
95
120
190
164
133
200
339
552
778
954
1114
1000
366
-233
-260
-152
-270
-299
-193
-201
-261
-312
-342
-254
-361
-831
-961
-509
-286
-471
-486
-365
-393
-371
-204
-136
-165
-93
-7
-84
-182
-154
-153
-227
-224
-215
-304
-304
-190
-213
-311
-233
-65
-5
-7
39
133
151
23
-52
30
59
33
89
60
96
416
245
-627
-769
24
205
-252
-190
153
130
24
73
122
111
72
79
123
123
168
244
178
136
254
278
259
421
518
443
477
549
437
297
265
255
228
170
64
19
73
1
-185
-71
134
-337
-1028
-761
50
240
4
-4
84
53
40
151
296
382
497
672
805
1064
1500
1551
933
193
-233
-479
-654
-676
-595
-539
-549
-609
-609
-501
-494
-656
-726
-667
-673
-743
-820
-866
-790
-692
-654
-459
-266
-451
-583
-172
230
169
74
172
200
128
103
116
136
169
185
166
134
154
241
297
268
241
263
271
228
190
188
160
121
138
142
130
214
316
443
758
885
373
-259
-292
-23
-140
-536
-574
-221
-32
-122
-162
-114
-115
-123
-107
-90
-35
43
72
89
172
249
251
251
268
227
148
81
-5
-84
-96
-109
-165
-182
-167
-175
-167
-113
-34
16
8
105
305
291
298
699
758
151
185
1204
1745
1306
709
282
-37
-161
-187
-241
-270
-280
-323
-361
-378
-439
-562
-643
-617
-604
-696
-788
-782
-714
-629
-538
-422
-260
-116
-21
68
95
26
-17
16
59
88
79
20
-14
-5
-26
-55
-29
0
-21
-41
-17
11
14
23
47
53
36
23
9
-22
-49
-32
-14
-56
-94
-92
-133
-139
-15
79
171
399
366
-159
-528
-379
-183
-167
-143
-117
-114
-42
33
20
-19
-2
62
123
150
158
170
200
266
347
398
425
446
456
447
383
279
225
188
60
-44
14
43
-81
-92
90
128
-32
-42
154
298
349
410
504
663
851
939
1010
1227
1364
1016
209
-525
-740
-602
-511
-521
-536
-572
-594
-584
-619
-694
-746
-791
-837
-856
-887
-959
-984
-905
-798
-706
-573
-410
-263
-136
-59
-20
53
108
142
301
484
525
662
984
1195
1378
1723
1742
1046
165
-268
-292
-238
-235
-226
-163
-93
-106
-231
-371
-425
-466
-581
-677
-722
-790
-796
-639
-460
-350
-186
41
168
180
211
267
239
153
150
212
202
146
166
213
198
198
243
204
113
150
223
121
-34
-39
-1
-44
-70
-35
-23
-34
-25
-26
-38
-19
16
35
39
-4
-87
-88
-3
-18
-136
-138
-31
-11
-56
-40
-24
-63
-76
-61
-80
-78
-41
-62
-46
108
198
204
367
454
122
-219
-119
116
154
137
178
180
123
95
121
135
104
84
105
119
111
112
126
135
168
228
261
270
269
201
120
129
115
-18
-98
-70
-96
-170
-187
-195
-194
-109
-30
-46
-66
-36
-1
35
33
-59
-156
-169
-168
-211
-245
-217
-161
-131
-56
144
368
526
574
291
-262
-517
-367
-326
-450
-403
-302
-369
-436
-379
-316
-299
-310
-336
-310
-231
-192
-194
-162
-101
-25
67
129
142
145
119
33
-26
27
107
100
28
-12
11
52
64
46
19
22
88
172
218
249
274
248
201
182
177
169
164
192
235
184
132
287
457
500
683
794
390
-92
-137
46
