# session 60
7
-3
16
34
31
21
16
12
8
1
-8
-27
-27
40
146
224
276
328
405
563
755
869
1006
1282
1425
1124
528
31
-207
-284
-322
-348
-352
-357
-373
-389
-401
-422
-451
-487
-513
-526
-569
-639
-665
-643
-635
-621
-534
-402
-266
-117
28
116
147
153
129
81
40
12
-4
3
7
-14
-17
15
36
33
43
73
90
84
80
90
94
89
91
96
89
75
71
71
64
57
60
63
58
52
46
35
43
96
153
161
137
114
86
62
66
65
30
5
18
44
56
41
8
5
9
-18
17
134
245
443
663
458
-110
-355
-180
-84
-139
-120
-75
-81
-77
-75
-103
-112
-96
-91
-86
-60
-32
-13
11
51
101
164
240
298
329
371
409
387
313
225
127
36
-23
-59
-98
-137
-146
-127
-123
-132
-127
-126
-129
-96
-44
15
109
232
410
677
891
1002
1227
1445
1176
460
-114
-313
-374
-451
-509
-509
-490
-519
-580
-587
-557
-578
-653
-719
-759
-786
-813
-846
-870
-840
-716
-532
-353
-174
16
152
207
227
210
133
53
24
17
5
-6
-20
-29
-8
19
26
30
34
33
46
72
82
79
82
88
83
80
99
117
103
93
102
90
62
64
83
86
82
72
51
46
59
64
55
47
44
46
54
72
86
74
61
92
158
211
219
181
135
122
115
89
70
64
48
31
19
-3
-5
0
-39
-17
133
251
342
494
394
-74
-360
-222
-87
-127
-136
-104
-110
-108
-93
-107
-121
-101
-82
-78
-71
-59
-40
-7
18
46
119
196
227
259
309
302
240
196
161
76
-42
-124
-155
-174
-200
-212
-213
-227
-232
-216
-214
-226
-203
-150
-121
-124
-124
-106
-100
-113
-119
-123
-132
-98
-20
28
41
61
77
97
156
231
344
530
675
774
1047
1403
1367
812
157
-249
-405
-435
-436
-443
-441
-422
-418
-436
-452
-458
-463
-476
-502
-546
-592
-605
-586
-592
-619
-582
-470
-356
-249
-114
28
148
233
276
354
504
610
736
1108
1522
1559
1282
902
389
-124
-386
-447
-449
-400
-343
-335
-339
-332
-334
-339
-334
-325
-317
-308
-292
-260
-212
-143
-51
61
184
283
317
290
237
167
103
77
74
52
17
-3
-3
4
3
1
6
-4
-35
-50
-47
-52
-44
-17
-24
-66
-79
-61
-43
-17
1
-18
-42
-45
-35
-14
9
13
8
10
1
-15
-1
28
20
-12
-8
25
30
8
-14
-24
-10
13
4
-29
-33
-10
-1
-10
-20
-18
1
15
1
-15
-13
-11
-4
5
-9
-16
0
-20
-58
-38
2
-16
-73
-105
-86
-32
22
74
113
98
51
47
54
25
20
51
49
22
10
15
28
-3
-33
90
285
380
475
492
134
-307
-319
-115
-92
-137
-110
-97
-96
-64
-45
-45
-29
-11
-4
6
31
53
61
83
137
191
220
253
300
337
346
329
304
269
200
115
63
24
-47
-125
-165
-171
-177
-201
-220
-209
-185
-185
-212
-231
-224
-208
-194
-185
-185
-192
-215
-250
-243
-170
-93
-55
-20
11
-7
-55
-77
-80
-89
-90
-78
-68
-63
-56
-60
-61
-44
-54
-74
7
151
283
451
468
73
-378
-395
-196
-149
-161
-132
-134
-123
-72
-81
-120
-81
-37
-58
-52
-3
5
7
57
99
130
207
298
360
406
435
430
386
313
230
142
59
12
-4
-29
-67
-92
-94
-88
-87
-86
-73
-62
-59
-55
-60
-78
-83
-81
-92
-86
-40
18
75
138
192
252
324
378
481
669
778
774
758
547
83
-200
-175
-230
-393
-384
-276
-263
-293
-293
-294
-308
-328
-360
-396
-422
-448
-487
-527
-547
-547
-524
-458
-346
-230
-138
-38
95
223
288
277
233
197
158
106
68
58
68
68
36
17
56
88
90
153
287
440
642
863
1008
1180
1452
1516
1110
463
-41
-287
-374
-409
-404
-370
-376
-436
-469
-424
-338
-293
-342
-450
-538
-600
-664
-725
-763
-753
-682
-566
-391
-150
46
105
130
205
215
122
77
105
96
54
36
31
46
83
88
64
79
110
104
80
68
64
66
70
66
61
57
57
64
59
46
51
54
40
37
40
35
48
73
72
55
57
68
65
51
49
49
33
21
26
21
1
-9
-4
-1
-8
-22
-19
0
-1
-26
-27
-5
-3
-24
-35
-45
-66
-78
-78
-79
-52
3
26
17
14
-4
-44
-48
-28
-39
-51
-42
-36
-2
28
-28
-19
163
301
362
474
350
-127
-405
-255
-116
-155
-168
-143
-148
-149
-148
-158
-145
-120
-114
-109
-88
-64
-45
-25
11
62
113
162
214
261
299
314
293
256
226
179
101
23
-22
-49
-79
-85
-50
-3
47
114
248
533
874
1091
1326
1714
1862
1379
531
-153
-466
-543
-571
-574
-523
-480
-491
-501
-502
-552
-641
-716
-774
-822
-838
-820
-777
-684
-542
-383
-227
-84
29
104
135
127
103
80
58
44
35
25
25
38
40
30
29
33
30
23
21
26
30
21
7
-5
-12
-8
2
-2
-16
-30
-34
-19
-7
-22
-38
-32
-37
-53
-48
-41
-51
-47
-35
-44
-48
-21
6
11
12
12
3
-3
1
6
8
8
4
-1
-3
-9
-23
-20
10
27
27
57
102
95
55
35
23
3
0
6
10
26
30
20
42
48
28
114
280
406
567
612
214
-277
-295
-95
-91
-113
-46
-65
-118
-77
-46
-77
-69
-24
-7
1
30
64
92
110
128
160
213
281
339
365
369
373
375
335
237
125
42
-26
-87
-123
-147
-180
-195
-174
-145
-125
-121
-131
-121
-86
-68
-72
-63
-55
-56
-51
-49
-19
107
279
437
645
863
940
1010
1251
1374
1038
422
-102
-387
-462
-452
-489
-529
-503
-492
-528
-526
-508
-551
-602
-618
-661
-734
-773
-789
-817
-817
-753
-648
-510
-333
-137
35
154
205
185
124
72
46
25
-17
-67
-69
-28
-23
-56
-59
-47
-56
-55
-36
-25
-19
-12
-10
0
23
45
49
39
48
80
83
61
74
97
83
74
87
80
77
101
97
74
107
180
221
229
230
231
229
223
215
211
204
181
164
169
159
140
148
122
86
193
358
441
578
647
283
-213
-273
-96
-89
-140
-108
-93
-119
-128
-117
-98
-80
-72
-75
-76
-59
-33
-24
-7
47
96
132
198
277
327
353
363
331
251
148
55
-24
-102
-161
-200
-243
-271
-259
-246
-268
-281
-252
-218
-209
-198
-176
-164
-168
-169
-166
-166
-158
-120
-57
-13
-18
-43
-55
-69
-91
-98
-91
-87
-89
-91
-96
-91
-83
-88
-87
-75
-105
-111
1
137
254
402
334
-96
-409
-292
-115
-113
-112
-74
-82
-87
-64
-56
-50
-31
-28
-35
-24
-1
21
55
103
141
175
231
303
375
432
452
432
394
331
238
141
66
17
-12
-23
-22
-27
-47
-63
-68
-84
-91
-56
-17
19
100
187
282
508
790
974
1203
1457
1284
644
75
-183
-307
-373
-387
-407
-426
-421
-430
-463
-497
-530
-576
-637
-696
-735
-765
-811
-847
-838
-787
-681
-505
-289
-84
77
179
229
241
215
162
108
67
42
36
21
1
20
52
43
32
49
49
46
69
81
75
79
75
58
58
68
73
76
76
80
88
83
72
65
50
46
58
41
10
6
11
9
3
-18
-33
-14
-7
-26
-9
57
122
156
133
65
31
44
41
21
21
19
6
0
-5
8
34
-4
-16
146
344
470
635
605
126
-310
-249
-62
-84
-115
-62
-59
-83
-70
-68
-90
-94
-81
-69
-56
-42
-23
6
41
83
144
213
276
334
384
411
403
364
305
225
134
53
-11
-56
-80
-92
-109
-122
-125
-130
-141
-138
-121
-111
-111
-111
-107
-105
-100
-93
-99
-121
-138
-119
-59
-6
2
-19
-43
-67
-84
-99
-130
-156
-154
-157
-165
-143
-132
-145
-125
-121
-155
-62
128
238
382
504
196
-340
-459
-249
-185
-226
-196
-175
-186
-166
-145
-151
-150
-131
-113
-99
-81
-60
-38
-10
33
93
160
230
300
357
390
394
361
294
207
110
21
-38
-71
-100
-126
-130
-111
-90
-90
-115
-125
-88
-46
-53
-75
-67
-49
-49
-60
-63
-30
37
82
77
55
37
15
-1
-4
-19
-38
-26
-13
-36
-47
-36
-43
-37
-18
-33
20
197
356
518
708
561
11
-336
-240
-120
-141
-127
-89
-100
-104
-83
-74
-69
-58
-60
-70
-55
-21
-5
-4
13
39
64
105
163
199
214
234
246
222
171
110
41
-12
-37
-55
-74
-74
-60
-58
-64
-53
-35
-31
-28
-17
2
66
170
258
414
697
883
948
1242
1580
1315
553
-20
-251
-374
-431
-436
-464
-497
-502
-507
-533
-577
-607
-614
-642
-688
-717
-757
-811
-816
-779
-724
-612
-440
-262
-95
58
153
173
145
115
106
91
45
10
30
61
56
36
23
35
82
103
58
25
47
74
85
87
79
83
110
128
111
78
76
109
114
79
58
75
105
115
96
78
89
107
105
98
104
105
88
78
80
74
65
53
21
9
61
123
139
135
123
79
42
47
44
5
-22
1
29
-12
-67
-38
-22
-93
-45
169
292
335
375
138
-313
-434
-223
-139
-194
-169
-118
-117
-123
-126
-133
-119
-95
-88
-83
-64
-45
-30
-6
29
73
130
191
249
302
335
338
321
288
228
144
61
-4
-64
-119
-152
-166
-172
-157
-117
-75
-31
27
121
330
629
855
1071
1437
1620
1197
451
-90
-356
-473
-456
-370
-322
-333
-364
-395
-431
-479
-528
-567
-612
-671
-722
-748
-752
-721
-630
-502
-363
-201
-48
30
51
67
54
12
-5
-21
-35
18
45
-45
-83
6
11
-160
-402
-645
-802
-781
-620
-413
-194
-5
87
78
59
89
121
132
158
187
204
248
331
426
538
672
790
860
891
882
821
718
577
412
282
202
107
0
-62
-98
-150
-181
-168
-160
-172
-165
-145
-143
-140
-123
-114
-97
-38
17
19
-5
-18
-40
-73
-100
-117
-121
-129
-149
-151
-136
-140
-155
-158
-143
-119
-133
-152
-46
126
263
469
570
191
-327
-377
-166
-134
-161
-117
-127
-162
-132
-105
-114
-107
-97
-93
-59
-10
14
30
58
89
140
228
306
335
349
370
355
283
196
125
66
11
-50
-93
-86
-71
-99
-121
-89
-57
-72
-92
-68
-35
-31
-29
-14
2
66
172
240
310
444
592
783
1000
1020
778
419
10
-297
-321
-256
-319
-349
-273
-264
-310
-290
-268
-316
-371
-396
-426
-470
-512
-557
-600
-610
-591
-568
-515
-407
-291
-194
-97
-5
56
81
85
86
81
61
32
11
2
5
11
17
27
34
32
33
43
54
56
53
54
57
56
52
54
59
68
81
92
95
99
103
99
94
96
94
82
75
75
69
61
63
69
60
28
12
66
149
178
160
144
115
73
67
75
51
31
49
69
72
59
46
55
40
0
58
184
316
626
917
599
-93
-343
-191
-169
-244
-215
-186
-200
-194
-194
-216
-218
-197
-174
-149
-124
-100
-76
-47
-8
44
93
136
191
249
275
265
242
202
151
98
27
-55
-102
-109
-112
-126
-142
-149
-140
-134
-139
-134
-122
-129
-139
-128
-118
-127
-141
-148
-143
-130
-119
-93
-37
13
24
12
-3
-19
-21
-21
-45
-69
-57
-45
-58
-56
-45
-51
-41
-37
-75
-41
89
188
314
448
238
-247
-424
-235
-124
-152
-130
-98
-108
-97
-65
-55
-55
-42
-13
12
17
26
58
89
105
137
202
284
347
374
387
398
384
329
242
144
62
11
-18
-41
-61
-81
-102
-114
-116
-122
-127
-115
-84
-55
-36
7
100
207
329
544
784
926
1118
1414
1402
870
233
-124
-264
-334
-362
-374
-396
-404
-394
-413
-467
-503
-518
-556
-617
-688
-760
-806
-820
-831
-824
-738
-563
-353
-164
-9
122
213
239
223
195
159
113
68
29
8
-6
-25
-22
6
12
-7
-8
0
-9
-4
25
30
8
5
18
13
-2
0
13
17
5
-12
-16
-15
-27
-36
-18
-3
-24
-44
-27
-12
-20
-20
-8
-1
5
14
30
49
43
25
64
154
203
189
171
163
142
112
84
69
76
78
58
50
60
87
121
106
110
247
405
557
831
881
348
-212
-234
-90
-141
-177
-120
-120
-154
-156
-146
-134
-123
-124
-123
-120
-126
-117
-86
-51
-6
61
136
214
298
370
421
454
459
420
347
256
166
96
47
8
-17
-31
-40
-34
-27
-50
-73
-54
-30
-42
-57
-50
-50
-67
-77
-77
-74
-63
-32
47
172
291
421
620
787
845
980
1246
1274
817
158
-303
-485
-524
-535
-545
-555
-570
-576
-563
-555
-563
-577
-601
-645
-695
-734
-773
-816
-840
-820
-758
-664
-532
-370
-210
-87
-11
24
19
-19
-67
-107
-140
-163
-166
-161
-168
-172
-164
-157
-149
-133
-120
-116
-118
-128
-124
-95
-79
-96
-99
-71
-57
-64
-68
-86
-106
-90
-70
-79
-63
-8
25
22
19
19
21
53
116
164
165
138
112
96
88
80
82
105
131
137
135
141
147
161
171
132
131
271
422
546
766
787
309
-148
-90
114
121
108
154
152
121
122
136
133
112
107
130
156
169
167
182
240
303
341
394
462
520
580
618
603
572
534
450
333
218
126
88
92
67
7
-16
21
55
41
13
26
87
164
230
338
574
860
1037
1206
1491
1543
1025
300
-114
-246
-344
-444
-501
-536
-575
-626
-688
-740
-767
-788
-838
-920
-1004
-1077
-1123
-1137
-1144
-1145
-1077
-918
-737
-572
-407
-281
-242
-252
-280
-345
-405
-406
