# session 21
-15
19
43
76
104
98
132
266
384
410
458
519
455
354
375
411
310
150
64
35
-5
-47
-53
-40
-47
-39
0
-15
-117
-197
-207
-212
-206
-134
-55
-49
-69
-34
16
7
-13
1
20
34
6
-47
43
219
272
404
631
356
-312
-472
-176
-117
-203
-174
-240
-353
-332
-306
-264
-162
-192
-163
32
-249
-820
-495
415
592
280
335
518
500
454
396
274
177
91
4
-12
1
-27
-59
-60
-34
6
8
-7
55
144
148
99
68
73
102
92
12
-47
-34
-46
-132
-132
23
114
102
222
286
-77
-499
-433
-148
-144
-338
-432
-377
-277
-235
-248
-237
-205
-172
-87
17
60
96
152
164
179
236
246
206
200
201
156
47
-116
-227
-204
-154
-189
-235
-179
-86
-85
-155
-205
-204
-105
35
-38
-257
-151
245
357
148
47
81
100
169
210
150
210
394
454
520
642
371
-220
-410
-153
-30
-114
-107
-26
-21
-56
-56
-39
-24
-11
-17
11
139
267
285
261
276
337
393
354
328
389
118
-506
-600
-31
214
-102
-345
-353
-308
-256
-263
-308
-273
-196
-121
-4
79
63
56
80
17
-92
-94
-34
-31
-79
-171
-210
-34
192
265
340
301
-128
-506
-391
-205
-259
-226
-17
2
-217
-273
-216
-500
-761
-369
161
201
146
293
394
452
545
542
492
504
477
395
324
205
64
27
8
-76
-68
25
-22
-155
-152
-77
-56
-6
91
136
167
200
115
-48
-97
-48
-55
-116
-120
-91
-159
-211
-10
260
275
135
-84
-464
-694
-517
-294
-288
-298
-252
-222
-150
-44
0
14
21
-20
-39
-1
-5
-30
4
38
74
174
240
214
218
254
198
60
-108
-274
-293
-156
-100
-175
-186
-115
-64
-55
-116
-153
18
262
305
227
215
240
244
216
121
26
42
83
25
2
102
191
402
849
921
272
-321
-313
-162
-192
-216
-147
-65
-74
-191
-215
-63
42
-4
-74
-87
-50
-1
24
38
49
77
176
308
342
221
13
-166
-240
-227
-202
-223
-264
-245
-164
-103
-101
-112
-72
11
65
52
19
13
-5
-79
-134
-112
-92
-58
52
92
56
193
341
230
176
258
-6
-434
-390
-45
40
-181
-353
-140
293
363
28
-162
-87
-63
-105
-49
50
107
135
85
-14
15
164
233
183
123
61
-31
-117
-176
-218
-254
-271
-230
-165
-163
-166
-58
51
47
61
139
132
41
-12
-39
-50
-13
-8
-43
31
142
60
-65
25
171
235
303
163
-282
-495
-241
13
43
10
-23
-28
-12
-34
-14
31
-22
-59
-1
23
53
131
150
225
437
499
313
194
245
263
187
88
31
56
-4
-169
-74
11
-595
-1198
-737
84
250
117
209
408
465
308
170
209
198
111
124
161
198
239
143
132
395
529
457
519
455
18
-282
-162
17
33
23
119
216
90
-219
-469
-660
-909
-1062
-966
-828
-821
-716
-403
-176
-138
-61
62
73
14
-64
-204
-310
-277
-203
-164
-123
-126
-197
-202
-103
-34
-58
-105
-72
61
161
140
87
36
-16
49
173
137
33
34
11
-13
160
326
312
417
574
270
-345
-552
-228
70
43
-26
92
228
250
233
205
163
167
204
212
210
238
273
281
294
377
459
414
334
342
318
196
133
137
72
-21
-54
-66
-73
-46
-38
-64
-37
4
-42
-15
137
10
-373
-353
22
79
-133
-202
-192
-205
-138
6
129
151
148
206
69
-327
-479
-273
-152
-167
-138
-141
-135
-64
-89
-147
-86
-82
-158
-52
109
33
-122
-76
109
233
262
298
317
285
372
335
-260
-697
-125
530
268
-154
-66
50
-8
1
6
-72
-156
-274
-372
-358
-356
-396
-326
-222
-261
-341
-268
-87
-21
-113
-97
100
208
280
503
476
-1
-280
-90
17
-104
-70
57
6
-20
56
-146
-449
-234
201
166
-74
-30
93
104
179
320
380
413
484
491
400
305
180
-34
-210
-229
-203
-244
-271
-217
-167
-203
-270
-235
-72
51
33
9
29
-75
-269
-297
-185
-107
19
104
-59
-87
110
-262
-883
-441
440
262
-319
-154
221
212
157
203
166
75
22
28
86
97
60
138
266
212
86
158
346
429
437
467
481
437
356
295
289
261
140
33
-6
-52
-52
-21
-126
-149
60
-94
-656
-612
55
246
-83
-203
-151
-188
-180
-144
-184
-144
-28
-39
-36
151
238
166
319
479
81
-488
-518
-259
-212
-253
-201
-177
-187
-109
-17
-59
-161
-190
-202
-214
-107
36
49
72
183
176
155
291
111
-432
-383
275
387
-73
-167
81
124
17
-32
-41
-23
7
0
-2
58
132
144
97
52
28
19
25
18
7
49
86
88
190
321
314
452
792
662
-17
-401
-268
-135
-192
-342
-442
-312
-102
-119
-277
-343
-311
-252
-192
-137
-56
36
84
125
210
283
316
352
345
240
113
22
-73
-162
-191
-179
-186
-214
-215
-157
-85
-91
-180
-229
-193
-162
-160
-159
-177
-138
-47
-98
-134
50
-132
-859
-947
-41
536
372
420
726
526
6
-130
35
74
37
52
25
0
67
57
-62
-41
70
-7
-103
49
185
116
134
314
396
387
425
459
433
364
261
165
99
25
-71
-147
-163
-171
-246
-293
-158
13
-36
-198
-199
-87
-54
-72
-65
-87
-112
-54
0
-28
-46
-40
-29
68
156
135
240
389
77
-464
-531
-281
-228
-226
-94
-79
-201
-231
-224
-296
-297
-193
-158
-139
-4
80
54
127
238
233
321
532
542
383
343
374
323
231
155
87
42
18
-19
-61
-59
-46
-72
-63
28
105
111
71
21
14
34
3
-72
-90
15
128
46
-90
-8
119
186
437
571
110
-439
-458
-295
-319
-294
-135
-84
-185
-293
-353
-370
-342
-303
-273
-210
-105
-22
32
118
230
295
310
318
286
184
87
15
-106
-219
-206
-139
-157
-241
-267
-197
-117
-94
-101
-108
-119
-135
-171
-222
-213
-128
-70
-129
-298
-411
-226
146
289
217
240
305
410
687
679
96
-341
-194
22
20
-6
-26
-51
-20
3
-20
-32
-42
-30
49
113
104
107
149
193
266
376
491
597
607
456
278
193
104
-32
-125
-185
-202
-78
21
-124
-291
-241
-190
-245
-164
35
51
-111
-171
-53
68
44
-90
-154
-40
90
64
36
151
282
410
494
187
-392
-553
-282
-149
-187
-154
-180
-361
-486
-392
-196
-141
-193
-88
17
-163
-186
99
-186
-911
-704
261
614
411
407
460
332
225
180
87
-12
-47
-50
-60
-37
24
36
-2
-3
57
138
178
148
119
134
130
79
18
11
120
215
150
143
312
379
392
546
423
-128
-412
-246
-193
-309
-286
-229
-276
-304
-264
-231
-223
-225
-225
-204
-138
-22
88
137
153
190
257
306
279
189
115
74
5
-97
-159
-170
-192
-221
-213
-200
-230
-249
-175
-84
-125
-188
-71
45
-16
-60
-134
-398
-381
120
383
181
85
192
298
421
476
552
842
845
212
-317
-240
-45
-47
-52
-28
-86
-147
-90
10
-3
-97
-125
-72
-15
2
-7
53
170
188
124
136
196
219
230
183
32
-89
-100
-114
-183
-232
-254
-304
-343
-298
-216
-195
-200
-131
-37
-43
-109
-125
-124
-137
-85
-9
-4
-10
-40
-134
-64
151
194
281
560
341
-392
-621
-301
-199
-263
-227
-338
-481
-294
-54
-70
-66
34
-23
-60
17
-178
-424
-109
411
533
484
530
544
497
438
344
227
97
4
-16
-42
-90
-95
-90
-86
-47
-52
-92
-6
125
70
-49
14
109
27
-43
81
200
168
84
12
50
244
334
289
371
307
-167
-445
-196
-9
-151
-269
-239
-185
-149
-154
-186
-178
-153
-144
-86
23
93
123
171
217
253
310
339
312
284
218
51
-93
-109
-97
-107
-71
-52
-138
-210
-164
-99
-99
-142
-116
36
96
-13
10
-25
-539
-861
-341
183
96
32
187
156
158
372
446
489
748
695
90
-330
-228
-98
-137
-125
-79
-108
-139
-133
-143
-144
-108
-84
-94
-78
2
82
74
13
30
131
194
188
172
148
98
14
-143
-294
-272
-181
-256
-402
-397
-282
-179
-109
-88
-86
-38
26
42
26
20
39
70
69
31
20
46
0
-115
-115
15
134
291
429
196
-297
-471
-284
-180
-210
-192
-190
-244
-230
-145
-71
-64
-166
-185
98
341
183
-3
132
307
331
358
419
442
411
310
203
164
116
25
-17
-12
-27
-54
-73
-68
-20
22
9
9
90
171
129
20
21
121
131
16
-42
41
108
77
114
225
256
366
500
104
-589
-655
-273
-256
-456
-412
-278
-257
-267
-251
-233
-213
-141
-16
52
26
7
46
120
209
256
244
264
337
319
141
-49
-103
-91
-151
-269
-354
-403
-423
-368
-256
-166
-109
-82
-90
-32
92
17
-278
-363
-109
148
233
202
158
188
172
97
249
509
520
522
616
325
-189
-274
-108
-141
-190
-95
-41
-52
-64
-87
-49
36
27
12
143
237
161
126
209
244
229
250
251
213
167
44
-114
-92
98
167
24
-147
-248
-288
-222
-93
-39
-44
69
402
863
1196
1159
768
323
76
-59
-276
-477
-461
-358
-413
-536
-548
-542
-612
-651
-654
-729
-829
-855
-806
-719
-641
-500
-212
2
108
411
494
-176
-638
-65
505
322
134
294
378
329
301
249
181
146
137
167
217
218
182
176
198
187
128
86
101
121
91
59
83
104
90
149
277
260
92
36
100
92
64
111
125
110
167
291
499
649
391
-146
-428
-417
-436
-514
-549
-574
-617
-627
-551
-417
-315
-272
-258
-256
-247
-214
-164
-116
-85
-29
57
67
-21
-39
53
85
28
4
6
-37
-89
-113
-131
-116
-44
53
140
150
67
29
55
1
-48
59
180
212
259
295
281
299
302
282
405
552
559
688
847
482
-121
-192
75
132
66
55
60
78
60
18
108
204
47
-166
-108
61
71
51
167
244
163
116
174
122
-63
-85
126
214
-24
-314
-398
-347
-290
-259
-240
-191
-114
-56
16
125
172
102
43
109
199
162
81
104
132
64
-3
19
158
344
344
196
114
-154
-715
-978
-790
-703
-810
-811
-752
-735
-675
-556
-397
-234
-180
-217
-193
-109
-41
38
131
182
183
202
275
313
248
168
109
43
21
-14
-134
-152
-47
-86
-198
-147
-53
-41
-24
42
161
264
256
250
257
105
21
235
305
76
103
259
-63
-351
70
574
538
226
-150
-444
-368
-131
-97
-113
-37
1
21
80
97
111
171
154
58
52
128
172
181
170
136
133
187
244
252
230
220
172
26
-87
-66
-75
-134
-70
-19
-87
-1
47
-366
-628
-126
385
287
116
162
153
115
161
153
92
123
151
41
8
207
359
434
708
790
217
-371
-312
-58
-121
-286
-275
-176
-148
-160
-116
-71
-100
-131
-117
-86
-39
-54
-92
52
129
-202
-400
13
403
259
-44
-215
-308
-302
-236
-219
-239
-256
-244
-180
-140
-164
-149
-25
118
128
-16
-114
-58
-44
-159
-219
-178
-126
-76
-71
-52
123
251
169
152
108
-313
-654
-437
-124
-74
-97
-111
-84
-127
-506
-777
-369
139
136
42
145
220
300
427
433
404
484
542
524
510
442
307
210
141
52
-5
-34
-79
-91
-62
-67
-89
-75
-67
-42
106
274
252
118
69
46
-40
-58
7
-28
-127
-98
48
198
273
209
126
109
-75
-424
-528
-352
-248
-244
-162
-73
-96
-130
-110
-163
-248
-155
7
-36
-158
-93
63
125
155
247
359
369
226
60
-8
-42
-70
-64
-105
-164
-165
-241
-282
-110
-255
-892
-1010
-309
204
206
240
349
329
283
259
226
219
191
149
171
196
219
343
414
392
586
779
398
-188
-265
-44
31
17
-43
-143
-115
26
105
90
6
-79
-40
37
18
31
111
80
35
193
353
271
112
44
-24
-125
-185
-219
-265
-294
-297
-297
-268
-187
-123
-141
-181
-156
-81
-36
-68
-138
-186
-203
-193
-153
-136
-157
-152
-131
-123
-60
7
9
115
260
53
-365
-465
-292
-183
-162
-179
-142
68
230
104
-67
-32
64
96
138
190
200
209
251
284
298
313
303
274
265
229
112
-7
-15
42
13
-101
-151
-104
-58
-33
17
63
69
89
134
117
36
-16
-33
-80
-140
-135
-60
19
14
-106
-194
-113
-8
9
36
-58
-413
-613
-387
-178
-234
-225
-69
-23
-88
-119
-117
-106
-89
-124
-173
-125
-36
-1
66
225
343
341
329
333
250
137
115
124
95
11
-140
-157
-91
-497
-1094
-825
24
266
22
83
343
417
392
410
420
403
455
628
789
811
823
1047
1435
1548
1041
274
-162
-297
-412
-435
-352
-402
-540
-523
-426
-423
-475
-519
-554
-578
-619
-641
-625
-655
-637
-510
-533
-597
-289
110
162
116
174
154
62
-1
-48
-47
-28
-40
4
82
81
91
153
113
49
131
207
179
226
353
406
408
454
617
879
1060
1104
1020
553
-207
-553
-327
-160
-332
-472
-305
-235
-726
-1152
-724
-99
-104
-280
-195
-176
-283
-302
-312
-370
-374
-319
-224
-75
61
156
245
290
274
248
204
148
111
61
30
84
118
76
79
116
86
38
20
14
60
128
112
31
-20
-33
-24
-3
-30
-131
-208
-183
-148
-138
-9
182
237
289
373
108
-383
-454
-152
-27
-75
-49
-55
-147
-145
-72
-95
-145
-116
-95
-134
-160
-146
-103
-13
110
211
229
180
153
164
152
123
116
105
70
35
6
-30
-49
-30
26
104
159
160
151
180
224
217
133
56
59
