# session 32
-15
187
241
224
236
271
302
297
269
280
300
232
123
134
268
335
269
239
313
344
311
358
482
570
619
665
669
608
504
380
253
135
24
-72
-122
-143
-177
-210
-208
-169
-106
-18
82
170
298
578
914
1060
1147
1422
1479
872
77
-280
-346
-422
-458
-452
-486
-520
-537
-557
-552
-555
-620
-687
-698
-719
-789
-814
-750
-678
-633
-550
-403
-231
-79
49
198
346
406
384
378
388
339
250
226
277
279
198
154
190
197
123
66
106
158
105
16
10
36
5
-36
-22
23
42
19
1
14
9
-9
15
32
-13
-50
-53
-83
-120
-123
-125
-123
-91
-78
-101
-99
-75
-100
-144
-130
-107
-152
-191
-147
-91
-103
-143
-136
-76
-41
-69
-98
-101
-117
-131
-102
-68
-87
-133
-81
84
225
385
599
482
-80
-434
-268
-64
-55
-33
8
-19
-56
-69
-54
-36
-75
-103
-30
28
-25
-81
-63
-43
-69
-66
9
67
100
211
348
357
265
208
224
224
129
11
-44
-104
-221
-306
-310
-314
-367
-402
-382
-385
-449
-474
-410
-370
-408
-437
-414
-369
-305
-212
-44
182
286
229
222
256
116
-64
-34
99
301
806
1431
1608
1305
1032
981
909
719
547
442
366
294
194
73
-21
-88
-134
-137
-129
-122
-79
-42
-41
0
74
87
83
119
121
88
87
65
-12
-38
-12
-42
-103
-132
-150
-127
-69
-77
-132
-142
-141
-168
-196
-209
-189
-142
-133
-170
-209
-246
-256
-208
-179
-228
-279
-293
-309
-317
-311
-336
-348
-280
-193
-174
-195
-201
-193
-184
-172
-174
-197
-205
-208
-233
-215
-188
-245
-208
14
136
190
440
487
-39
-507
-400
-178
-203
-186
-8
76
16
3
58
75
73
107
150
174
201
232
229
200
212
264
295
318
381
452
474
458
471
516
472
313
207
171
46
-91
-71
-32
-119
-199
-194
-208
-234
-213
-204
-225
-192
-113
-77
-107
-164
-159
-62
-16
-105
-193
-198
-204
-230
-234
-226
-225
-209
-162
-130
-147
-141
-89
-72
-37
87
215
395
569
271
-405
-629
-317
-173
-294
-275
-131
-88
-117
-107
-93
-118
-123
-82
-51
-17
48
68
34
71
157
149
139
288
478
573
649
702
649
546
451
314
170
121
130
74
-9
27
120
66
-56
-15
113
166
229
389
622
912
1142
1271
1531
1835
1597
754
13
-248
-306
-378
-441
-490
-504
-458
-448
-524
-596
-619
-652
-715
-786
-844
-895
-974
-1059
-1058
-968
-877
-786
-640
-469
-323
-175
-11
70
30
-30
-60
-86
-80
-58
-80
-90
-59
-61
-81
-44
7
-18
-87
-49
73
58
-19
53
50
-167
-179
105
246
203
244
308
260
222
266
282
245
250
272
234
206
244
250
201
162
128
105
127
144
147
209
257
168
64
79
92
10
-41
-2
18
-12
4
42
-13
-50
95
262
350
503
473
-44
-515
-422
-176
-174
-199
-144
-151
-174
-120
-98
-165
-173
-91
-95
-185
-179
-125
-158
-183
-120
-57
-19
57
142
175
213
302
339
272
213
190
132
86
33
-103
-118
-31
-323
-778
-593
-8
160
33
60
128
90
50
63
82
71
50
80
133
143
126
108
71
27
-5
-37
-57
-49
-63
-126
-143
-85
-99
-199
-163
7
165
450
774
563
-104
-418
-267
-173
-173
-113
-140
-227
-192
-140
-187
-208
-152
-124
-147
-150
-112
-75
-67
-52
23
111
128
121
190
292
339
338
297
217
161
129
35
-87
-124
-97
-100
-146
-200
-209
-162
-143
-149
-43
65
53
237
566
399
36
451
1333
1719
1595
1224
609
70
-126
-183
-238
-241
-259
-316
-305
-249
-271
-382
-473
-487
-526
-660
-765
-773
-789
-823
-814
-819
-831
-713
-482
-284
-119
67
203
241
239
220
181
143
109
65
42
49
52
48
48
42
32
32
23
-2
10
70
101
58
-4
-11
30
21
-57
-78
-35
-69
-141
-100
-25
-42
-75
-33
33
35
-37
-94
-41
72
136
147
127
77
55
87
97
98
181
270
251
227
277
243
152
278
526
664
874
1040
634
-15
-139
34
-1
-49
21
-6
-82
-66
-27
-22
-44
-93
-123
-111
-112
-138
-120
-43
11
3
9
66
117
183
287
315
240
192
168
80
-36
-129
-205
-268
-332
-375
-340
-299
-335
-343
-272
-259
-304
-268
-182
-170
-216
-237
-212
-217
-254
-151
51
116
204
427
273
-323
-563
-292
-167
-235
-157
-109
-139
-32
-139
-600
-623
-25
321
188
119
199
229
246
271
269
304
393
456
469
471
480
474
413
269
78
-31
9
42
-55
-150
-173
-215
-210
-91
-62
-187
-204
-63
-1
-63
-84
-45
-39
-43
7
41
-32
-124
-120
-83
-103
-147
-175
-166
-117
-104
-164
-167
-50
56
55
4
-35
-45
-45
-77
-111
-92
-86
-104
-61
-57
-123
9
276
363
462
615
289
-327
-444
-178
-63
-64
-91
-128
-48
-77
-351
-373
-25
148
80
92
140
135
151
172
187
236
262
286
395
506
530
544
556
502
440
396
284
150
121
124
37
-63
-52
8
-17
-107
-144
-99
-45
-35
-89
-175
-183
-109
-107
-162
-129
-153
-379
-554
-522
-475
-454
-373
-343
-388
-351
-271
-264
-235
-175
-272
-367
-146
126
183
384
608
159
-585
-651
-291
-230
-316
-257
-215
-241
-208
-155
-163
-162
-99
-53
-71
-71
-18
38
76
114
178
280
380
450
528
605
631
619
589
513
384
265
223
211
127
28
21
11
-74
-86
32
133
151
195
358
595
823
1027
1270
1652
2021
1829
911
4
-335
-398
-462
-460
-472
-575
-629
-621
-660
-713
-729
-768
-842
-891
-906
-930
-974
-996
-973
-947
-905
-751
-510
-330
-214
-67
67
106
109
111
57
-6
49
146
90
-48
-37
68
58
-9
26
88
71
62
123
184
204
202
219
281
329
310
295
315
305
270
256
240
223
229
219
171
121
101
135
189
130
0
55
245
219
21
7
107
25
-116
-82
-8
-43
-70
-12
20
-32
-38
91
248
410
609
515
-58
-512
-420
-229
-259
-257
-165
-169
-210
-183
-152
-135
-97
-100
-174
-210
-165
-143
-189
-215
-174
-116
-76
-54
-22
66
162
193
226
286
244
125
85
53
-59
-103
-82
-167
-190
-83
-251
-592
-460
-16
98
11
73
138
96
69
87
121
151
146
129
106
59
53
84
32
-46
-10
53
47
54
41
-5
102
291
391
585
722
283
-357
-417
-136
-84
-155
-141
-123
-122
-100
-75
-79
-138
-200
-182
-134
-133
-146
-127
-91
-56
-23
25
132
259
292
245
261
329
273
98
-1
-30
-139
-250
-234
-213
-268
-265
-194
-187
-216
-168
-111
-151
-145
25
162
229
467
713
715
840
1312
1679
1623
1222
612
72
-173
-243
-280
-281
-287
-327
-355
-363
-363
-378
-456
-548
-562
-541
-604
-720
-773
-788
-854
-883
-770
-619
-509
-374
-215
-70
88
210
226
203
178
113
76
125
145
69
8
30
52
19
-12
9
38
23
-7
6
58
92
68
35
57
88
65
33
23
-7
-33
1
36
17
4
32
83
145
169
140
125
122
85
37
45
115
116
52
146
191
-179
-418
52
578
648
765
904
505
-44
-86
99
113
89
108
83
56
73
84
56
-3
-37
-19
-2
-11
-41
-93
-98
-20
8
-45
-2
142
214
211
227
259
281
272
184
51
-31
-58
-128
-254
-334
-342
-355
-384
-379
-353
-336
-320
-296
-270
-241
-215
-195
-179
-151
-117
-141
-236
-297
-273
-261
-321
-355
-283
-217
-239
-233
-208
-248
-146
120
198
186
311
144
-394
-585
-317
-161
-208
-221
-193
-157
-97
-39
4
8
-36
-31
35
15
-75
-45
67
77
64
165
267
302
374
462
460
410
391
385
353
273
173
163
240
263
217
226
287
298
274
322
438
511
524
569
630
604
580
743
995
1079
1058
1178
1315
1113
575
52
-238
-364
-437
-479
-496
-525
-582
-631
-653
-675
-701
-718
-775
-889
-940
-893
-921
-1041
-1050
-951
-925
-932
-822
-649
-501
-321
-83
95
132
111
129
146
89
25
58
145
196
217
231
231
218
197
169
166
198
220
221
223
217
209
231
247
202
146
144
136
78
55
97
99
50
52
122
194
205
131
74
113
116
14
-24
20
-11
-56
-18
-49
-140
-41
155
204
263
351
76
-417
-513
-261
-144
-171
-157
-149
-170
-174
-167
-163
-164
-180
-184
-174
-191
-227
-204
-124
-78
-80
-56
2
70
156
244
277
255
240
247
218
134
44
-8
-5
48
84
67
52
57
49
51
79
79
60
76
82
36
10
29
54
103
144
58
-96
-118
-48
-64
-126
-120
-106
-141
-160
-146
-140
-87
17
98
289
620
580
-35
-536
-489
-287
-252
-304
-361
-383
-356
-338
-321
-272
-240
-234
-207
-171
-146
-105
-58
-36
-37
-28
40
151
199
176
179
199
220
286
267
62
-93
-47
-3
-51
-41
25
33
-12
-40
-12
37
17
-22
79
241
289
348
563
779
917
1084
1228
1327
1602
1986
1990
1403
596
38
-136
-133
-173
-242
-267
-294
-332
-328
-346
-433
-485
-477
-530
-641
-686
-680
-720
-783
-805
-815
-797
-656
-431
-268
-153
16
161
178
168
201
161
56
29
36
-14
-21
32
5
-51
20
110
53
-34
-1
39
-17
-41
15
0
-96
-121
-72
-61
-98
-111
-104
-131
-129
-29
49
22
-12
-38
-97
-105
-64
-97
-163
-183
-196
-176
-113
-124
-108
102
300
371
480
386
-141
-562
-477
-294
-304
-331
-309
-309
-330
-363
-382
-384
-421
-449
-409
-385
-399
-366
-319
-334
-344
-297
-242
-210
-187
-159
-112
-88
-143
-244
-321
-375
-458
-591
-722
-796
-832
-870
-902
-901
-865
-849
-895
-920
-866
-821
-775
-606
-351
-18
493
981
1221
1481
2047
2913
3952
4584
4211
3282
2613
2232
1883
1573
1364
1284
1221
1123
1183
1170
591
-115
-210
3
-46
-211
-248
-235
-229
-219
-237
-287
-310
-298
-326
-391
-402
-379
-403
-423
-379
-363
-392
-330
-195
-166
-203
-164
-151
-265
-373
-399
-452
-559
-632
-653
-675
-701
-705
-694
-687
-684
-686
-677
-632
-589
-585
-561
-458
-322
-222
-165
-97
35
175
244
379
689
817
405
-205
-487
-528
-625
-683
-607
-592
-672
-671
-635
-691
-745
-740
-762
-787
-758
-758
-820
-863
-869
-886
-883
-785
-638
-533
-422
-208
23
155
240
311
329
345
409
458
453
428
441
488
457
436
713
1117
1168
962
889
880
774
706
715
667
577
543
535
496
463
458
454
470
507
510
477
451
417
364
329
322
333
347
328
280
227
194
252
387
470
540
614
377
-176
-448
-273
-122
-134
-111
-102
-148
-105
-31
-75
-150
-152
-145
-162
-181
-207
-231
-231
-206
-176
-160
-116
1
105
127
152
193
158
102
85
-8
-177
-255
-266
-329
-383
-393
-439
-485
-440
-373
-380
-405
-389
-374
-380
-377
-369
-368
-344
-322
-350
-378
-366
-377
-399
-365
-349
-423
-487
-499
-546
-549
-377
-203
-145
1
86
-294
-820
-876
-640
-574
-642
-694
-746
-772
-746
-698
-657
-628
-563
-438
-343
-300
-200
-38
82
160
269
425
598
754
870
942
970
978
996
997
934
838
777
765
767
754
735
716
704
720
709
608
544
630
723
721
754
879
992
1059
1112
1138
1129
1119
1111
1075
1108
1356
1620
1448
806
170
-136
-235
-330
-425
-461
-454
-458
-501
-558
-577
-568
-602
-683
-742
-758
-779
-849
-929
-931
-886
-913
-947
-832
-643
-526
-427
-288
-188
-166
-199
-247
-240
-211
-256
-314
-280
-227
-243
-283
-293
-272
-232
-198
-158
-72
48
222
457
584
551
567
588
410
314
476
357
-224
-616
-577
-541
-626
-620
-549
-516
-509
-524
-537
-527
-558
-604
-577
-571
-648
-656
-595
-594
-570
-462
-387
-316
-157
-12
49
101
184
276
337
338
316
332
375
373
319
318
384
376
302
294
310
255
190
195
227
202
138
120
145
160
170
175
162
163
187
190
174
190
225
199
108
59
83
85
32
20
87
147
137
114
125
123
90
86
111
89
33
53
111
44
-39
94
290
393
564
570
28
-531
-457
-165
-187
-293
-251
-205
-216
-206
-180
-179
-191
-210
-249
-237
-112
8
19
33
118
191
244
314
368
426
495
506
494
534
522
413
341
293
169
66
46
33
39
66
25
-14
20
-3
-105
-147
-146
-153
-67
93
194
269
341
314
362
672
848
508
-26
-355
-500
-538
-490
-465
-485
-463
-412
-412
-432
-383
-316
-370
-488
-504
-480
-548
-636
-676
-713
-745
-751
-725
-598
-381
-213
-134
-118
-202
-317
-324
-278
-266
-216
-111
-49
-29
-8
25
106
235
345
429
516
568
573
583
632
685
693
667
637
556
431
406
474
425
272
230
285
298
313
334
246
113
47
-35
-150
-201
-237
-294
-333
-379
-347
-182
-24
233
568
377
-274
-451
-133
-36
-91
9
71
58
121
172
183
246
295
298
343
403
420
441
454
440
479
526
451
355
371
375
235
15
-156
-222
-246
-325
-456
-573
-654
-709
-757
-803
-811
-754
-703
-780
-918
-857
-575
-339
-215
-69
45
54
83
175
237
271
291
265
313
502
641
719
944
1057
634
15
-192
-85
-111
-308
-439
-488
-616
-750
-728
-684
-738
-724
-598
-524
-542
-580
-595
-569
-558
-612
-632
-507
-304
-146
-55
10
52
39
-14
-42
-30
-14
-13
-27
-7
81
145
119
116
180
210
219
265
277
249
282
358
447
585
722
868
1163
1474
1582
1735
2124
2220
1624
840
431
305
225
184
192
