# session 13
64
307
309
139
40
54
39
1
48
107
75
115
302
282
-92
-331
-195
-89
-184
-160
92
324
377
323
256
175
77
10
1
40
103
187
291
342
278
222
279
280
93
-96
-128
-70
-19
-36
-129
-220
-295
-383
-450
-512
-590
-581
-483
-403
-299
-164
-23
329
808
824
312
-130
-273
-250
-60
153
182
124
80
7
-45
-54
-102
-155
-161
-157
-138
-82
-26
41
113
136
147
218
346
477
460
221
-16
-66
-42
-27
13
36
19
-24
-122
-124
110
228
-109
-548
-640
-520
-455
-380
-225
-115
-126
-177
-190
-166
-107
-12
93
243
482
678
758
852
810
355
-164
-260
-155
-221
-368
-444
-475
-470
-482
-609
-774
-804
-641
-339
-74
-38
-60
93
78
-257
-268
173
490
771
1092
778
22
-131
248
400
341
354
294
88
-80
-136
-162
-226
-334
-400
-314
-128
-24
-56
-92
-38
45
146
355
631
890
1155
1349
1402
1511
1599
1172
325
-258
-431
-440
-262
-145
-521
-967
-875
-650
-793
-973
-876
-708
-644
-662
-701
-670
-576
-506
-419
-257
-84
71
244
385
432
432
455
460
342
122
-37
-89
-154
-262
-326
-340
-366
-444
-519
-444
-253
-184
-172
27
167
-47
-320
-479
-591
-215
640
882
319
60
339
510
574
697
672
668
823
607
-38
-347
-193
-141
-225
-143
5
36
17
8
-23
-35
61
232
377
423
310
114
26
27
-8
20
207
390
448
428
279
-100
-506
-542
-202
61
-34
-267
-317
-171
-49
-60
-101
-90
-81
-97
-61
40
129
185
242
274
262
239
194
130
105
55
-76
-113
-57
-147
-186
34
-44
-643
-961
-697
-441
-380
-333
-319
-276
-243
-427
-480
15
544
548
324
158
-34
-80
162
373
366
320
319
289
232
179
110
-4
-119
-175
-234
-335
-325
-178
-131
-239
-290
-221
-137
-74
-5
80
133
132
173
240
211
162
143
50
20
119
56
-138
-153
-34
90
193
162
48
-93
-418
-702
-539
-209
-153
-206
-124
19
180
364
485
549
616
580
393
216
110
14
-2
70
74
18
18
2
-97
-177
-190
-166
-166
-293
-371
-245
-380
-832
-726
-100
131
156
383
265
-100
70
499
551
451
464
412
254
94
-41
-97
-107
-179
-261
-285
-254
-116
27
53
198
403
139
-350
-288
74
23
-188
-6
333
341
93
-17
61
39
-91
-35
47
-244
-496
-106
396
316
60
138
321
376
322
137
-56
-83
-59
-72
5
95
73
111
231
181
62
141
204
37
-68
30
20
-163
-258
-284
-406
-491
-417
-382
-487
-512
-356
-239
-225
-31
274
175
-148
-94
-129
-751
-1018
-415
99
73
-22
26
213
464
484
202
-94
-141
-2
18
-82
-4
177
182
150
256
313
260
278
318
230
127
119
98
46
71
146
201
216
123
-60
-151
-99
-48
-59
-89
-120
-82
55
81
-75
-122
23
105
31
-104
-198
-188
-155
-88
188
485
567
696
838
533
47
-22
152
168
39
-130
-258
-288
-300
-359
-469
-611
-669
-596
-495
-405
-323
-241
-101
5
7
56
-46
-446
-386
373
665
122
-168
176
509
570
507
360
190
69
-25
-93
-123
-170
-235
-209
-70
7
-73
-124
-66
-87
-171
-91
109
268
407
438
253
77
52
86
295
580
373
-241
-435
-128
-56
-371
-535
-375
-187
-151
-229
-315
-261
-76
64
84
52
30
50
129
239
371
532
674
731
718
649
474
250
95
-57
-241
-285
-230
-297
-409
-435
-505
-610
-570
-496
-566
-609
-450
-229
-98
-91
-244
-408
-269
128
384
286
-3
-150
10
285
436
430
355
432
664
529
-82
-451
-317
-199
-255
-230
-147
-145
-198
-223
-154
-53
-21
46
215
273
175
121
98
-1
4
230
411
345
275
323
110
-374
-440
28
314
229
162
114
-32
-97
-48
-23
-21
-29
-70
-52
92
264
394
509
565
496
395
364
328
258
308
499
681
913
1269
1329
721
-106
-572
-797
-977
-988
-952
-993
-834
-597
-803
-1210
-1219
-873
-417
-116
-370
-854
-811
-407
-190
-62
115
164
98
64
90
147
164
92
0
-46
-64
-79
-112
-149
-122
-35
20
23
33
67
137
276
404
401
325
288
280
235
101
-26
30
88
-138
-291
50
426
293
12
101
367
495
580
531
62
-443
-402
-82
51
100
200
269
317
340
268
145
62
45
41
-45
-188
-253
-222
-208
-253
-285
-258
-197
-101
27
92
60
55
64
-46
-203
-364
-562
-429
136
337
-93
-282
97
436
491
474
415
280
151
62
-13
-90
-160
-168
-105
-69
-74
-36
-18
-57
-6
114
271
651
957
597
-68
-284
-211
-253
-284
-221
-161
-87
-55
-113
-138
-181
-398
-552
-350
-12
112
65
57
130
205
230
226
224
196
135
102
124
145
160
220
283
257
170
110
61
-30
-138
-234
-303
-308
-275
-256
-226
-174
-196
-360
-600
-766
-738
-556
-345
-149
-31
-81
-103
165
559
778
695
205
-387
-405
77
334
250
175
125
31
-24
-94
-227
-267
-206
-209
-196
-56
29
-23
-27
21
29
110
278
362
370
379
313
196
110
-23
-135
-70
-53
-121
48
10
-678
-908
-24
571
171
-114
74
93
-15
10
-25
-109
-78
-14
31
96
178
329
489
486
470
600
621
551
661
529
-181
-680
-465
-202
-249
-258
-257
-412
-489
-501
-645
-636
-388
-327
-236
96
-193
-904
-577
121
-210
-376
410
694
376
579
891
733
571
486
234
22
-23
-67
-157
-258
-326
-264
-121
-100
-198
-186
-31
49
0
-6
88
163
171
153
136
158
245
265
130
93
249
237
144
348
254
-526
-807
-93
312
-85
-370
-266
-175
-127
-49
-35
-46
-17
-40
-110
-46
172
325
315
290
401
559
569
517
610
635
328
-24
-148
-265
-493
-666
-760
-798
-736
-668
-612
-482
-442
-566
-550
-389
-392
-387
-40
433
682
657
385
35
-25
261
556
617
449
256
272
354
278
275
350
28
-492
-537
-271
-232
-329
-325
-278
-251
-259
-277
-203
-77
-43
-20
124
270
315
327
312
280
290
309
403
600
482
-109
-535
-443
-271
-282
-265
-144
-46
-26
-80
-178
-232
-199
-138
-79
12
120
212
324
413
357
222
196
230
160
33
-36
-78
-159
-230
-148
7
-47
-140
45
13
-585
-940
-637
-350
-344
-397
-560
-542
42
632
633
431
359
178
-61
-15
276
543
661
593
410
299
297
258
176
149
113
-23
-160
-177
-115
-76
-85
-92
-54
13
94
174
142
-46
-213
-246
-258
-273
-198
-136
-205
-215
-35
71
-3
104
469
570
197
-139
-71
128
192
244
241
-101
-564
-624
-355
-174
-117
-48
12
50
121
209
245
198
99
-24
-160
-255
-257
-208
-207
-281
-293
-158
-55
-89
-75
10
-24
-140
-219
-254
-188
-184
-462
-592
-262
29
171
481
498
-74
-398
-35
397
528
532
463
319
196
83
-17
-28
-32
-88
-92
-72
-65
54
163
157
337
524
129
-407
-256
216
321
192
89
-19
-96
-84
-51
-90
-167
-69
169
152
-121
-219
-130
-134
-157
-69
56
212
364
350
206
141
163
145
113
153
206
194
183
205
154
76
138
208
49
-200
-298
-293
-275
-234
-205
-241
-336
-409
-341
-204
-247
-455
-534
-361
-74
126
136
75
100
136
88
4
-96
-155
-44
168
292
337
360
309
188
62
-23
-51
-78
-142
-162
-132
-148
-166
-97
0
61
108
155
221
295
287
207
172
158
62
-51
-80
-107
-196
-213
-150
-223
-388
-366
-183
-31
73
79
-29
-39
87
108
-15
-116
-151
-131
-60
1
94
322
529
622
818
908
420
-195
-228
-47
-171
-336
-374
-457
-501
-423
-369
-382
-483
-695
-742
-462
-231
-232
-117
122
137
104
346
623
699
656
462
175
101
217
254
229
230
179
84
11
-66
-132
-150
-148
-136
-147
-226
-230
-45
92
25
-9
116
225
288
389
390
192
-30
-132
-97
49
193
339
578
644
296
-99
-209
-238
-305
-285
-243
-277
-258
-129
-60
-122
-206
-240
-247
-233
-160
-2
175
285
382
516
555
462
408
357
137
-114
-217
-321
-531
-693
-746
-739
-653
-530
-465
-425
-333
-229
-207
-233
-138
-13
-143
-324
-209
-25
115
401
461
66
-111
212
440
411
532
746
679
494
522
448
-40
-454
-377
-164
-162
-212
-154
-104
-177
-244
-183
-121
-133
-88
6
75
237
450
434
252
239
364
397
333
272
291
303
58
-283
-217
108
93
-244
-446
-384
-208
-79
-71
-88
-57
-72
-122
-62
95
200
232
270
271
168
104
189
232
132
50
-65
-283
-371
-358
-404
-214
80
-222
-816
-826
-483
-373
-367
-326
-327
-310
-321
-335
-30
532
784
552
231
141
249
415
607
796
837
696
549
472
361
196
63
-35
-138
-223
-272
-298
-325
-386
-450
-439
-369
-318
-297
-289
-274
-159
124
435
546
425
248
146
90
69
111
91
-88
-248
-233
-109
48
150
151
151
51
-311
-588
-475
-304
-303
-251
-106
-22
52
181
257
261
269
254
220
261
319
238
70
-35
-65
-77
-88
-97
-120
-186
-269
-332
-398
-398
-270
-186
-228
-252
-328
-553
-580
-134
468
807
736
320
-86
-82
244
513
570
453
252
95
10
-67
-128
-142
-166
-243
-261
-116
32
88
295
552
319
-286
-520
-224
98
138
13
-72
-119
-214
-283
-244
-163
-71
-33
-192
-343
-100
323
430
314
299
304
216
151
157
141
55
-74
-174
-189
-131
-26
96
199
266
291
277
261
259
200
28
-170
-234
-166
-148
-260
-358
-334
-269
-231
-201
-224
-309
-396
-494
-436
1
354
106
-206
-109
-3
98
379
305
-113
-87
235
254
223
352
292
89
68
105
-7
-133
-133
-65
-25
-51
-88
-26
119
181
124
107
167
168
91
43
24
4
57
149
132
19
-48
-42
-54
-165
-285
-218
5
159
177
145
66
-55
-107
-58
-32
-94
-169
-158
-51
39
98
270
471
537
624
675
320
-151
-142
83
9
-190
-268
-350
-446
-463
-510
-593
-518
-368
-375
-380
-220
-156
-186
-23
2
-238
-5
419
-60
-661
-151
489
322
180
453
578
466
332
178
45
-35
-89
-86
-76
-159
-224
-131
-25
-69
-123
-87
-114
-225
-215
-70
45
118
193
163
37
88
308
384
456
706
598
-42
-433
-335
-291
-318
-152
-33
-97
-110
-96
-186
-215
-110
-70
-136
-146
-81
-26
58
229
415
539
625
693
689
595
462
290
54
-137
-194
-267
-416
-459
-411
-439
-464
-414
-423
-483
-453
-349
-258
-184
-100
-55
-138
-210
-11
342
482
337
138
133
301
385
383
439
437
485
783
753
24
-544
-434
-282
-376
-368
-260
-239
-241
-221
-204
-169
-142
-108
43
234
244
110
17
-20
16
129
143
75
107
155
194
364
380
-27
-381
-276
-106
-215
-326
-231
-156
-216
-248
-211
-210
-206
-107
80
341
608
723
714
745
741
611
566
728
918
982
803
259
-422
-792
-809
-780
-799
-778
-734
-683
-596
-519
-487
-525
-708
-981
-1142
-960
-357
168
-28
-554
-539
-106
166
322
501
530
442
384
300
214
210
151
-5
-53
1
-44
-137
-122
-82
-93
-58
25
71
110
166
183
213
352
504
475
283
147
104
52
102
232
69
-262
-210
50
32
-49
55
189
384
536
210
-334
-365
-25
88
23
58
115
146
242
336
335
307
303
260
152
26
-72
-147
-204
-190
-117
-94
-114
-111
-105
-55
-12
-153
-252
-158
-432
-932
-670
-172
-524
-681
244
795
292
21
389
629
584
519
416
250
124
50
-50
-155
-171
-126
-83
-37
-57
-101
72
354
475
643
843
515
-157
-335
-47
91
17
-62
-126
-125
-61
-93
-180
-125
-77
-335
-669
-602
-259
-122
-222
-293
-253
-114
50
69
-46
-98
-62
-46
-33
5
16
11
30
40
53
128
190
151
106
124
85
-63
-196
-258
-307
-367
-455
-566
-552
-352
-185
-206
-245
-180
-176
-264
-272
-286
-257
262
914
748
103
-50
109
155
300
479
403
249
180
87
-10
-55
-110
-155
-136
-86
-25
31
48
86
214
326
298
246
347
465
343
88
-28
-56
-154
-210
-138
-92
-138
-135
-81
-128
-162
50
261
103
-194
-293
-290
-229
-30
101
36
-22
-16
-57
-37
119
210
233
407
632
723
798
743
268
-278
-353
-173
-173
-268
-298
-352
-436
-464
-487
-554
-567
-483
-364
-222
-106
-81
-21
71
-45
-193
-35
196
407
833
1000
466
-47
32
264
324
329
307
246
169
65
-19
-59
-112
-171
-212
-225
-164
-59
-20
-50
-71
-69
-55
5
131
251
247
130
118
324
473
359
303
475
375
-182
-503
-265
-134
-437
-592
-384
-325
-525
-596
-464
-262
-31
52
-102
-184
0
211
247
237
337
494
580
557
486
449
419
299
120
5
-57
-155
-272
-380
-514
-684
-838
-877
-713
-484
-432
-476
-376
-224
-164
-69
-8
-254
-530
-277
317
611
474
154
-96
25
463
727
761
851
714
77
-466
-459
-284
-263
-278
-266
-247
-217
-230
-254
-194
-150
-220
-251
-120
21
46
84
223
355
492
710
760
489
300
365
281
68
93
51
-371
-634
-433
-279
-383
-430
-347
-238
-113
-70
-157
-213
-145
-32
58
129
198
252
294
392
541
640
662
650
690
904
1189
1316
1308
1136
528
-333
-823
-841
-799
-814
-724
-585
-541
-538
-505
-440
-372
-492
-806
-787
-248
147
2
-297
-428
-376
-121
186
304
298
343
385
361
323
255
132
50
62
98
104
99
91
67
