# session 54
-10
17
80
107
77
41
-25
-128
-198
-233
-283
-326
-338
-342
-327
-310
-331
-316
-255
-255
-192
-46
-255
-703
-594
-50
105
-71
-92
-38
-52
-47
-34
-43
-33
15
92
146
261
567
688
215
-356
-386
-132
-84
-184
-183
-71
-15
-81
-127
-59
10
9
20
80
110
110
197
340
394
409
483
487
332
166
81
-4
-122
-184
-151
-132
-206
-265
-232
-202
-223
-222
-197
-175
-118
-35
-9
-52
-107
-133
-109
-68
-96
-176
-165
-49
-3
-31
47
179
249
372
421
62
-381
-361
-118
-74
-103
-49
-15
-55
-125
-135
-71
-84
-162
-92
74
159
220
309
367
413
444
432
424
397
271
114
22
-22
-60
-85
-77
-74
-118
-146
-90
-8
24
-5
-67
-60
49
113
57
-8
-6
0
-22
-9
33
-1
-83
-97
-63
-7
97
169
204
258
104
-324
-551
-382
-206
-193
-174
-129
-114
-91
-66
-75
-85
-57
-23
-29
-47
10
140
239
264
262
289
350
353
228
81
26
-8
-87
-170
-205
-185
-163
-142
-87
-136
-329
-321
-25
124
23
13
130
148
64
21
32
35
37
58
56
24
10
20
83
184
230
377
730
753
139
-386
-319
-150
-182
-175
-122
-166
-206
-163
-121
-142
-181
-129
15
79
33
48
156
236
270
299
288
223
136
23
-98
-168
-201
-247
-258
-215
-202
-220
-206
-202
-233
-239
-242
-254
-159
-1
26
-59
-122
-139
-98
-27
-45
-121
-95
-25
-47
-8
183
306
336
414
290
-192
-549
-454
-231
-139
-64
6
-48
-102
-8
78
12
-48
23
98
78
88
225
345
349
378
482
499
390
297
257
163
6
-71
-11
59
33
-38
-51
-5
24
23
29
26
17
55
109
80
-9
-53
-43
-57
-87
-91
-104
-140
-157
-168
-142
-13
117
173
262
248
-89
-413
-365
-224
-231
-217
-179
-243
-271
-167
-93
-131
-162
-116
-43
-7
2
58
146
199
250
327
340
275
213
151
45
-85
-171
-163
-105
-76
-78
-78
-92
-132
-144
-78
2
-3
-45
-4
96
149
142
93
8
-36
14
56
22
17
44
1
6
108
118
240
727
908
273
-374
-377
-199
-203
-191
-123
-114
-130
-127
-129
-141
-139
-108
-70
-60
-63
-41
26
111
168
196
232
239
169
89
48
-38
-170
-196
-136
-182
-283
-227
-97
-119
-196
-151
-86
-112
-127
-60
14
4
-75
-111
-75
-54
-48
-53
-92
-37
28
-181
-354
-62
290
343
346
209
-219
-438
-233
-65
-110
-140
-90
-37
-37
-69
-26
78
129
151
192
200
212
297
381
427
511
606
626
597
558
443
251
141
155
115
-8
-29
47
19
-92
-98
-12
-9
-96
-85
119
374
513
576
656
725
791
855
665
103
-417
-557
-520
-546
-596
-610
-612
-630
-689
-775
-820
-803
-813
-889
-914
-837
-799
-798
-647
-372
-176
-76
27
119
149
110
50
34
46
56
84
101
75
79
127
143
148
171
145
90
119
192
184
118
92
129
149
87
36
102
188
189
161
139
105
104
150
189
177
118
55
29
49
87
132
330
731
848
340
-213
-255
-104
-91
-88
-67
-100
-91
-29
-17
-52
-79
-86
-65
-37
-16
37
133
222
283
319
331
310
220
87
15
10
-29
-111
-144
-104
-97
-168
-191
-119
-103
-164
-131
-45
-63
-105
-52
-4
-34
-73
-70
-33
-7
-42
-75
2
97
61
30
142
208
206
410
577
226
-288
-359
-185
-155
-186
-148
-100
-90
-104
-131
-167
-134
8
47
-74
-67
46
67
188
300
15
-186
206
522
321
134
107
-49
-157
-117
-230
-433
-406
-249
-201
-217
-205
-198
-206
-183
-111
-47
-48
-65
-53
-78
-117
-77
-58
-131
-123
-50
-93
-72
134
228
270
525
507
-104
-532
-336
-118
-147
-106
-17
-77
-127
-27
49
-1
-39
-6
-2
-25
13
107
198
296
424
496
432
337
296
201
36
-41
-31
-68
-116
-92
-79
-137
-186
-178
-145
-102
-65
-51
2
126
215
183
109
86
75
35
23
75
135
142
73
-13
48
251
352
342
380
250
-192
-486
-359
-187
-218
-264
-218
-186
-206
-185
-104
-77
-115
-111
-79
-65
-7
60
77
141
243
264
273
314
254
114
19
-51
-125
-177
-220
-230
-184
-166
-211
-216
-134
-58
-53
-56
-13
61
133
172
149
105
78
34
3
33
43
2
14
43
14
37
151
360
763
997
541
-142
-273
-102
-135
-227
-207
-174
-184
-260
-292
-157
-78
-160
-132
-3
22
31
107
219
311
181
-53
29
248
171
-23
-91
-152
-226
-230
-226
-235
-209
-183
-188
-187
-181
-171
-127
-107
-186
-217
-60
77
-22
-156
-114
-52
-78
-84
-74
-76
-45
-72
-114
67
280
281
363
461
77
-434
-398
-137
-132
-160
-63
-23
-43
-4
48
40
22
47
75
86
134
199
228
287
414
469
400
360
346
210
40
1
-1
-66
-103
-84
-85
-99
-86
-76
-98
-120
-91
-30
-2
16
68
82
24
-1
25
-18
-106
-100
-47
-67
-97
-91
-116
-78
92
201
240
344
252
-158
-400
-280
-179
-198
-171
-168
-211
-160
-82
-111
-133
-33
50
15
18
148
228
195
221
321
354
328
301
238
128
-1
-103
-117
-76
-79
-104
-95
-75
-57
-27
-28
-58
-52
-37
-64
-77
-33
22
73
101
38
-44
-32
-43
-128
-74
97
67
-99
-59
84
150
440
876
711
-33
-422
-261
-142
-205
-214
-165
-147
-157
-174
-181
-183
-193
-174
-133
-122
-116
-52
43
118
175
221
235
210
145
58
-23
-101
-182
-225
-207
-182
-173
-148
-115
-99
-98
-120
-116
-45
-38
-155
-199
-81
40
49
-16
-31
54
87
38
92
184
136
86
109
91
129
249
285
371
540
349
-152
-329
-160
-89
-122
-91
-51
-65
-106
-115
-52
4
-15
-37
-16
25
79
129
161
201
267
362
443
409
251
119
92
54
-48
-73
-45
-172
-353
-309
-154
-139
-206
-232
-225
-202
-183
-167
-111
-69
-94
-61
41
-6
-182
-184
-38
-53
-166
-117
-48
-116
-94
86
252
501
708
356
-302
-458
-227
-175
-187
-84
-69
-132
-102
-43
-42
-66
-87
-73
-6
62
114
191
288
370
438
478
458
385
286
186
106
44
-13
-49
-56
-65
-92
-102
-91
-103
-110
-63
-19
-37
-60
-56
-66
-70
-14
66
79
33
16
24
-5
-34
-33
-45
-49
-48
-96
-84
55
118
55
18
-106
-392
-512
-338
-176
-159
-156
-128
-116
-119
-117
-105
-102
-86
-42
-26
-14
65
142
179
266
361
376
379
382
282
130
62
27
-70
-148
-119
-88
-151
-194
-118
-30
-23
-34
-21
-23
-40
-40
-30
-16
29
108
150
113
62
39
-3
-51
-36
2
-1
12
53
98
257
472
561
765
1135
938
82
-429
-334
-278
-342
-286
-231
-232
-231
-263
-267
-204
-205
-260
-253
-219
-217
-222
-217
-180
-98
-13
38
60
62
50
30
-13
-71
-104
-102
-114
-155
-153
-98
-91
-137
-119
-37
8
11
2
-22
9
118
154
62
-1
7
-34
-79
-28
7
-26
8
101
112
45
-9
4
76
166
309
424
233
-160
-271
-73
31
-35
-69
-15
40
43
27
49
93
102
53
14
76
176
194
145
99
162
360
411
192
51
98
111
91
11
-139
-50
47
-419
-871
-531
-31
-37
-144
-88
-84
-87
18
105
107
108
118
56
-28
-20
9
-32
-39
-5
-64
-130
-52
13
-33
22
171
214
306
475
255
-291
-446
-182
-89
-181
-152
-103
-120
-55
-68
-343
-472
-167
109
69
40
172
276
308
339
378
405
397
350
291
218
131
52
-26
-77
-65
-32
-24
-25
-63
-128
-97
6
-37
-157
-76
11
-184
-295
-82
27
-36
29
51
-35
15
-71
-431
-470
-116
18
-125
-181
-90
20
108
235
307
25
-449
-536
-249
-96
-148
-168
-149
-160
-152
-105
-77
-96
-112
-62
6
31
86
216
318
360
422
501
517
445
326
205
76
-55
-133
-168
-224
-255
-204
-162
-179
-147
-61
-50
-116
-141
-109
-58
24
110
140
108
61
38
16
-50
-100
-62
27
83
68
31
17
21
119
290
325
413
788
829
145
-391
-226
0
-92
-161
-102
-96
-141
-165
-166
-147
-139
-162
-160
-99
-36
8
89
201
270
294
323
331
255
119
-4
-97
-170
-203
-205
-212
-210
-170
-125
-108
-116
-144
-160
-131
-103
-102
-71
-11
-9
-56
-83
-96
-105
-87
-58
-43
-26
6
51
48
-5
40
140
140
286
634
556
-42
-370
-226
-107
-98
-61
-73
-88
-30
-30
-50
48
88
-33
-52
83
115
46
72
163
214
258
316
327
263
166
80
10
-32
-50
-99
-186
-215
-172
-175
-230
-231
-226
-269
-214
-79
-99
-172
-60
42
-43
-108
-88
-134
-180
-114
-73
-141
-123
35
95
103
299
512
656
964
1024
324
-408
-395
-155
-197
-217
-136
-211
-300
-214
-191
-322
-339
-219
-184
-190
-120
-80
-118
-121
-23
114
188
179
166
176
141
43
-25
0
20
-45
-90
-47
-31
-59
-43
-28
-42
-3
40
19
34
101
154
225
256
151
49
65
67
-3
-49
-32
-29
-76
-41
114
188
200
310
231
-197
-447
-267
-99
-131
-145
-121
-142
-159
-154
-140
-106
-109
-156
-125
-1
83
121
197
265
302
385
447
378
277
219
138
55
-14
-133
-206
-140
-71
-58
-13
-8
-76
-76
-34
-60
-68
-23
-24
-16
76
138
103
38
-15
-24
13
29
48
100
63
-13
106
316
448
715
1031
803
64
-425
-382
-208
-167
-183
-180
-165
-139
-107
-98
-125
-172
-201
-183
-162
-191
-217
-182
-117
-52
10
33
19
19
31
-4
-97
-191
-208
-162
-168
-245
-276
-227
-179
-175
-195
-205
-169
-107
-80
-83
-67
-30
-21
-56
-69
-34
-34
-76
-58
-67
-210
-306
-205
-4
190
308
409
574
488
-3
-342
-218
-37
-28
-54
-55
-29
2
-8
-8
34
58
63
59
53
158
334
357
334
508
670
586
462
445
385
222
70
11
7
-23
-79
-129
-183
-202
-165
-161
-192
-171
-144
-188
-230
-193
-137
-127
-117
-57
-42
-125
-148
-56
-8
-22
-33
-113
-172
-2
194
192
320
590
359
-273
-458
-216
-152
-203
-130
-93
-104
-50
-55
-129
-91
-3
-36
-81
6
94
72
84
229
365
387
372
359
290
163
47
-8
-19
-41
-79
-91
-93
-118
-132
-118
-109
-104
-84
-77
-103
-128
-104
-12
95
108
10
-61
-41
-31
-59
-53
-21
9
24
-42
-105
2
146
167
191
121
-256
-573
-456
-228
-197
-206
-165
-142
-115
-89
-96
-71
4
35
17
33
79
119
176
261
329
361
374
381
358
266
137
43
-24
-76
-71
-72
-151
-199
-131
-47
-43
-104
-137
-50
75
72
11
51
130
130
95
81
71
65
57
36
30
24
-5
11
53
17
1
91
221
494
791
546
-113
-373
-226
-204
-256
-200
-177
-196
-175
-187
-204
-132
-98
-145
-59
35
-193
-410
-159
194
250
229
262
229
164
73
-71
-145
-149
-209
-253
-208
-189
-215
-201
-186
-220
-238
-198
-162
-201
-236
-154
-34
17
48
59
-5
-58
-39
-30
-49
-32
-18
-48
-42
2
10
66
208
304
418
525
249
-263
-361
-108
-20
-59
-27
-18
-47
-24
17
33
40
52
82
115
132
172
242
264
258
342
477
516
460
389
294
171
78
38
1
-50
-58
-20
0
6
27
25
8
20
0
-82
-117
-51
15
11
-22
-63
-129
-180
-184
-190
-209
-192
-167
-158
-119
-98
-136
-82
45
42
83
306
233
-256
-492
-292
-158
-188
-140
-73
-99
-126
-116
-122
-109
-42
-7
-39
-31
58
123
128
166
255
328
360
342
262
169
95
19
-41
-53
-60
-83
-86
-83
-106
-114
-91
-82
-86
-84
-82
-62
-8
57
120
145
70
-28
-39
-36
-95
-113
-72
-91
-143
-120
-72
-48
7
109
286
483
384
-69
-400
-377
-281
-243
-200
-204
-253
-255
-229
-218
-190
-151
-126
-96
-48
8
77
163
228
248
273
322
322
253
177
100
15
-28
-46
-101
-141
-108
-94
-160
-177
-90
-56
-127
-144
-76
-11
74
171
197
196
216
182
120
138
161
107
99
180
230
252
342
455
517
573
719
1034
1379
1294
608
-104
-308
-219
-229
-319
-353
-352
-353
-358
-401
-503
-593
-586
-540
-538
-524
-498
-500
-466
-415
-337
-83
52
-291
-556
-249
61
-16
-109
-84
-105
-128
-99
-82
-79
-63
-32
3
25
51
73
69
109
202
222
159
109
70
28
28
79
135
89
-36
8
110
-147
-456
-201
251
308
260
360
239
-180
-473
-388
-77
113
71
46
132
146
92
103
132
138
167
185
161
178
234
251
291
400
434
385
415
421
246
100
113
81
-56
-138
-120
-83
-108
-165
-146
-102
-104
-61
-37
-104
-8
154
-86
-421
-258
40
-6
-121
-119
-169
-213
-155
-147
-200
-136
-47
-129
-145
113
309
317
381
254
-268
-566
-332
-134
-222
-255
-157
-133
-181
-164
-92
-54
-24
22
38
46
93
176
283
369
408
458
472
351
192
111
32
-89
-161
-153
-141
-169
-204
-218
-209
-180
-157
-141
-110
-103
-140
-128
-55
-24
3
95
126
35
-9
38
29
-42
-28
27
-34
-119
-77
-32
-32
63
160
255
568
739
263
-328
-341
-134
-176
-248
-164
-94
-116
-167
-193
-175
-151
-149
-130
-82
-49
-22
51
157
234
266
286
294
255
174
81
-9
-65
-73
-84
-125
-143
-124
-123
-148
-175
-192
-168
-117
-125
-149
-64
51
60
