# session 31
17
7
29
-8
31
232
379
534
798
676
47
-316
-138
2
-95
-141
-92
-75
-92
-108
-108
-96
-82
-63
-46
-48
-47
-20
11
21
36
86
157
203
216
238
281
302
285
257
220
164
102
36
-32
-83
-115
-154
-191
-197
-188
-184
-171
-143
-127
-127
-110
-71
-48
-50
-44
-20
13
74
167
252
374
611
832
912
1069
1428
1585
1188
507
-7
-250
-341
-358
-349
-376
-433
-453
-439
-456
-492
-514
-566
-652
-703
-715
-742
-789
-821
-823
-791
-721
-618
-497
-361
-200
-34
91
148
151
140
132
101
48
26
39
40
35
50
63
56
48
51
56
54
53
56
52
47
58
74
76
74
77
73
66
70
75
83
102
117
109
87
85
114
123
86
65
80
67
30
38
66
55
35
63
120
151
139
109
89
81
78
80
80
74
65
54
54
63
39
33
141
279
400
571
550
103
-332
-311
-130
-125
-163
-132
-112
-115
-110
-93
-71
-63
-57
-22
7
-1
-4
21
36
43
83
137
179
236
301
318
298
312
339
312
242
162
55
-41
-75
-98
-155
-194
-195
-209
-226
-206
-179
-190
-216
-214
-191
-189
-214
-213
-175
-160
-191
-204
-145
-46
8
-15
-57
-63
-57
-65
-73
-63
-35
-20
-54
-85
-52
-48
-93
-10
177
285
428
577
297
-286
-474
-252
-137
-163
-135
-109
-122
-111
-102
-112
-94
-67
-72
-68
-30
-14
-24
-6
35
65
112
186
260
328
369
380
399
400
304
161
70
3
-89
-158
-169
-169
-181
-185
-178
-176
-174
-143
-90
-59
-57
-52
-49
-69
-100
-106
-77
-67
-107
-129
-73
-1
18
10
4
-9
-17
-2
8
-6
3
37
28
19
67
39
-33
111
342
433
636
850
482
-181
-316
-93
-77
-144
-97
-95
-153
-150
-122
-136
-162
-167
-157
-157
-169
-171
-146
-111
-85
-63
-17
60
146
217
276
324
334
294
231
157
66
-13
-55
-87
-129
-151
-141
-133
-134
-118
-99
-91
-72
-34
29
127
218
351
636
927
1046
1187
1420
1329
772
182
-155
-328
-405
-401
-395
-415
-418
-411
-427
-456
-483
-512
-550
-591
-633
-672
-700
-720
-735
-714
-624
-486
-338
-182
-21
115
202
241
246
235
207
160
120
108
112
111
102
94
92
90
84
72
56
46
43
39
37
44
47
45
50
59
64
72
85
97
106
111
107
101
103
104
99
93
90
87
78
66
60
53
27
7
23
30
-7
-28
-5
1
-23
-39
-62
-105
-115
-77
-58
-92
-103
-40
12
-16
-63
-77
-91
-104
-96
-87
-78
-65
-69
-60
-26
-36
-41
88
251
353
475
434
13
-376
-322
-126
-114
-147
-125
-132
-156
-153
-154
-164
-161
-150
-146
-145
-133
-114
-98
-77
-38
12
58
100
151
210
255
278
292
296
271
223
177
128
58
-15
-59
-83
-101
-103
-88
-88
-97
-79
-32
2
17
52
136
250
367
539
811
1059
1196
1382
1622
1537
974
313
-79
-216
-274
-331
-359
-361
-377
-403
-418
-441
-476
-499
-517
-560
-628
-685
-712
-732
-762
-768
-713
-602
-461
-288
-87
86
175
201
198
165
122
105
89
44
-7
-27
-12
2
-15
-30
-17
-17
-36
-30
-19
-24
-7
8
-23
-38
-12
-26
-65
-45
-11
-21
-26
-22
-38
-38
-6
12
6
-11
-37
-39
0
19
-6
-18
-12
-19
-20
-26
-69
-88
-53
-56
-118
-118
-34
24
34
41
18
-25
-20
6
-11
-19
4
0
14
63
29
0
159
342
456
696
787
309
-256
-296
-114
-120
-170
-147
-131
-108
-72
-74
-87
-67
-50
-54
-48
-18
15
36
49
64
85
125
192
271
337
386
407
388
334
266
198
123
40
-29
-71
-97
-112
-119
-130
-135
-120
-95
-76
-64
-59
-59
-53
-45
-40
-31
-31
-50
-53
-8
70
153
229
333
550
830
993
1092
1370
1677
1524
855
151
-239
-375
-422
-458
-494
-513
-514
-530
-563
-587
-606
-642
-685
-711
-732
-777
-837
-881
-894
-867
-800
-718
-605
-428
-230
-82
32
131
166
141
114
95
62
26
4
-10
-20
-25
-23
-9
-1
2
20
40
39
41
56
54
53
79
90
75
74
88
93
97
100
98
97
90
83
87
85
77
82
83
74
90
122
120
115
162
224
235
222
219
198
159
147
152
149
159
166
140
124
118
65
58
174
280
373
508
390
-77
-365
-235
-79
-75
-56
-14
-17
-16
-3
-10
-17
-15
-16
-9
-1
-7
-3
23
40
53
87
133
174
218
264
293
298
280
241
179
103
16
-82
-173
-226
-236
-235
-257
-297
-301
-264
-251
-267
-253
-216
-203
-200
-181
-165
-162
-166
-181
-193
-183
-163
-160
-173
-171
-136
-94
-89
-119
-151
-165
-165
-153
-147
-141
-91
-14
17
31
80
71
33
145
320
448
669
748
290
-251
-266
-67
-73
-114
-70
-64
-83
-65
-59
-83
-95
-81
-56
-39
-38
-20
9
8
22
107
185
216
276
349
375
406
444
398
285
185
91
5
-27
-27
-46
-76
-80
-60
-57
-88
-118
-110
-84
-78
-94
-98
-85
-77
-67
-53
-53
-71
-85
-71
-48
-66
-90
-53
7
33
47
35
-29
-66
-33
-17
-43
-54
-62
-66
-14
-2
-100
-62
174
301
338
441
260
-252
-463
-260
-155
-220
-224
-204
-220
-205
-174
-168
-173
-179
-174
-142
-103
-74
-46
-24
-13
20
90
162
219
283
343
364
362
355
295
171
52
-33
-106
-157
-179
-190
-192
-186
-177
-170
-161
-135
-91
-26
82
219
376
619
903
1094
1312
1658
1750
1240
428
-170
-403
-402
-344
-339
-373
-403
-434
-454
-446
-445
-469
-486
-501
-542
-587
-625
-673
-706
-695
-655
-564
-392
-196
-39
96
204
241
217
176
134
95
65
43
34
36
34
34
53
77
80
78
96
110
100
97
110
103
87
98
104
81
71
86
94
89
87
81
66
54
54
62
55
13
-33
-39
-31
-54
-82
-80
-68
-70
-78
-88
-92
-89
-93
-97
-82
-65
-54
-42
-46
-65
-55
-10
21
20
6
-3
3
13
5
-7
9
47
72
60
15
-21
-20
-19
-41
-43
-22
-35
-54
-15
-3
-44
29
205
330
473
578
294
-212
-342
-140
-67
-114
-90
-69
-96
-91
-76
-84
-84
-85
-95
-87
-68
-60
-47
-28
-12
21
74
116
147
189
231
259
275
266
232
191
143
91
48
-2
-72
-124
-139
-142
-138
-132
-148
-164
-127
-69
-51
-13
108
245
408
695
966
1031
1094
1284
1206
652
53
-222
-266
-257
-266
-317
-377
-410
-436
-458
-472
-498
-530
-564
-614
-651
-667
-717
-779
-767
-714
-674
-565
-371
-210
-97
43
159
179
163
140
78
13
-5
21
77
101
100
240
486
592
692
1058
1409
1325
874
320
-141
-330
-275
-213
-230
-249
-263
-318
-379
-381
-344
-336
-381
-439
-453
-427
-434
-474
-460
-379
-292
-201
-82
43
164
272
325
313
276
243
215
187
136
62
5
-2
26
39
2
-34
7
91
115
86
75
75
55
46
55
49
36
33
30
28
19
3
37
76
41
93
314
455
522
673
557
20
-302
-145
-20
-95
-102
-51
-59
-54
-23
-22
-26
-9
1
2
15
27
29
34
52
86
139
201
251
279
291
287
254
190
118
44
-40
-119
-168
-197
-244
-294
-303
-276
-259
-261
-259
-252
-246
-237
-224
-218
-226
-240
-244
-228
-202
-180
-139
-71
-12
14
8
-16
-40
-43
-32
-38
-60
-62
-31
-22
-44
-37
-40
-86
-24
156
287
440
584
326
-209
-384
-204
-126
-152
-124
-110
-116
-91
-80
-76
-42
-31
-50
-36
-2
13
37
75
108
153
201
229
278
357
396
384
381
377
324
235
155
101
51
-15
-66
-66
-47
-57
-78
-60
-21
5
95
329
606
803
1010
1258
1226
694
8
-357
-399
-380
-394
-411
-417
-403
-381
-398
-448
-480
-501
-558
-623
-647
-654
-681
-684
-622
-536
-469
-378
-209
-13
115
163
168
155
151
141
108
137
202
171
212
458
581
541
751
1016
783
242
-150
-366
-431
-329
-235
-253
-282
-282
-284
-283
-282
-296
-311
-313
-308
-313
-328
-323
-274
-213
-148
-33
116
227
296
354
386
389
373
323
246
184
156
145
127
106
115
144
137
111
120
114
67
62
96
61
-27
-39
33
68
27
-9
-6
-23
-70
-98
-100
-83
-54
-52
-65
-49
-36
-51
-57
-62
-38
84
267
478
612
358
-194
-445
-302
-202
-205
-161
-150
-165
-116
-77
-93
-81
-39
-24
-32
-22
20
66
97
143
209
259
304
360
385
380
379
338
240
146
61
-28
-94
-154
-237
-295
-294
-268
-249
-242
-246
-236
-205
-185
-170
-132
-115
-131
-106
-62
-63
-58
-39
-77
-88
37
148
107
53
90
105
73
101
147
118
85
97
95
109
145
69
-39
71
306
491
664
585
31
-473
-459
-290
-283
-254
-165
-165
-199
-168
-144
-179
-192
-152
-132
-139
-127
-124
-123
-64
4
18
58
178
293
339
343
335
323
297
232
108
-18
-31
7
-46
-69
-34
-144
-125
112
-309
-1262
-1210
-234
125
-123
-96
39
-50
-132
-107
-87
-95
-109
-87
-8
76
114
102
79
76
59
35
56
81
72
77
76
53
75
87
46
110
280
460
745
867
363
-293
-346
-94
-83
-150
-126
-164
-238
-209
-135
-111
-129
-176
-234
-232
-164
-116
-108
-86
-34
32
104
151
178
236
336
410
394
304
223
177
105
19
-8
-14
-44
-38
-7
-3
29
50
5
40
90
19
158
271
-502
-1412
-896
319
643
502
768
1029
995
1113
1448
1534
1136
520
75
-121
-229
-303
-293
-255
-267
-304
-332
-371
-416
-448
-480
-515
-537
-571
-635
-691
-710
-709
-664
-553
-427
-315
-178
-29
70
99
84
59
41
-6
-95
-156
-156
-150
-143
-95
-60
-93
-105
-43
-21
-71
-56
22
24
-31
-28
13
31
41
45
31
12
12
37
57
67
99
99
72
153
194
70
190
335
-392
-1300
-892
138
330
88
130
140
30
69
136
102
73
80
116
184
218
207
194
156
100
102
139
125
87
68
59
99
143
70
46
267
474
576
849
944
344
-328
-318
-73
-131
-240
-199
-155
-148
-172
-251
-288
-233
-198
-219
-219
-192
-187
-201
-195
-142
-71
-34
-3
77
158
205
263
303
272
232
232
212
138
57
6
-25
-63
-86
-69
-55
-76
-72
-32
-30
-67
-82
-87
-107
-112
-62
29
118
196
309
465
604
680
655
509
410
503
502
150
-216
-267
-200
-201
-193
-171
-187
-212
-239
-252
-216
-195
-231
-238
-212
-243
-283
-278
-296
-324
-285
-222
-192
-171
-153
-148
-134
-96
-49
-44
-120
-219
-247
-219
-195
-156
-100
-103
-166
-166
-50
47
7
-55
-13
29
10
30
67
35
5
46
90
88
70
93
128
117
138
215
192
154
221
156
82
312
115
-900
-1270
-347
336
138
14
152
125
82
128
107
116
235
291
242
206
200
191
187
178
157
157
143
87
104
175
118
67
226
383
510
783
755
134
-346
-263
-144
-201
-174
-125
-188
-224
-183
-163
-187
-229
-273
-284
-256
-222
-185
-151
-144
-118
-35
34
57
115
210
259
250
231
213
179
127
70
9
-74
-156
-177
-151
-151
-148
-115
-124
-125
-72
-118
-99
169
-69
-1099
-1498
-652
54
-4
-75
-7
-46
-3
116
93
24
13
9
30
58
29
19
83
105
36
27
110
98
23
144
385
551
784
909
447
-211
-295
-48
-23
-76
-23
-9
-58
-66
-20
7
-60
-126
-59
13
-56
-140
-149
-144
-93
-4
25
60
185
273
294
344
359
284
205
124
15
-65
-101
-138
-174
-187
-175
-182
-198
-104
84
178
232
478
850
1147
1378
1659
1987
1871
618
-1088
-1529
-729
-241
-351
-362
-324
-419
-431
-424
-552
-642
-606
-595
-679
-788
-835
-817
-818
-848
-812
-684
-522
-347
-172
-4
168
291
320
332
353
300
219
214
227
187
144
135
139
143
123
72
48
102
160
107
-25
-104
-92
-56
-33
-29
-28
-16
-22
-58
-57
-20
-18
-13
36
46
11
12
16
12
54
54
-24
8
120
71
-1
118
186
123
182
179
12
145
197
-615
-1302
-693
190
283
196
311
257
130
153
153
97
114
151
155
154
154
188
208
124
125
360
600
794
1000
814
162
-228
-125
-40
-113
-134
-119
-118
-112
-123
-130
-106
-89
-80
-65
-66
-69
-79
-105
-64
30
11
-80
-52
50
94
127
170
167
141
117
53
-35
-101
-169
-228
-215
-177
-210
-275
-300
-298
-261
-198
-214
-280
-253
-186
-186
-176
-125
-115
-122
-95
-62
-24
10
-27
-106
-116
-50
1
18
37
27
-29
-38
-5
-33
-23
124
264
460
808
806
198
-280
-199
-65
-124
-104
-25
-84
-163
-150
-177
-234
-161
-75
-135
-172
-96
-66
-74
-14
38
62
152
253
277
290
328
339
305
229
120
8
-107
-214
-264
-265
-269
-272
-269
-269
-248
-221
-227
-223
-176
-160
-187
-203
-224
-254
-215
-123
-105
-141
-109
-20
50
92
77
-1
-28
42
106
108
98
119
135
95
80
144
174
223
418
605
746
910
740
159
-164
-18
115
118
151
163
167
182
109
54
122
132
75
121
106
-106
-233
-164
-130
-124
2
157
269
413
528
513
462
467
419
235
50
-27
-88
-202
-283
-289
-290
-302
-293
-274
-272
-263
-218
-179
-205
-244
-230
-229
-275
-285
-263
-259
-227
-188
-200
-167
-68
-54
-121
-137
-101
-74
-77
-120
