# session 24
-53
-77
12
57
-48
-116
-53
-31
-106
-128
-77
-67
-99
-90
-21
88
164
118
36
62
121
153
204
117
-72
23
81
-450
-733
49
790
457
-153
-197
-6
40
43
61
74
103
79
18
75
173
142
103
164
183
156
200
245
298
473
505
225
163
511
649
426
277
183
4
-62
-19
1
-9
-130
-188
-75
-439
-1162
-907
-42
-350
-1223
-860
63
102
-252
-185
-24
-77
-129
-104
-50
51
52
-75
12
268
259
207
415
313
-257
-475
-198
-72
-150
-122
-42
-29
-42
-50
-18
54
57
-26
31
231
218
131
330
135
-862
-1291
-469
344
622
629
-62
-835
-394
388
275
24
135
64
-25
149
197
128
203
198
102
185
270
243
305
184
-277
-359
169
548
540
590
790
1006
1282
1513
1390
816
81
-361
-262
-47
-388
-923
-752
-217
-191
-433
-437
-407
-487
-523
-539
-591
-592
-531
-469
-395
-270
-141
-69
8
118
128
26
-25
-27
-59
-56
-22
-74
-177
-192
-120
-81
-108
-145
-197
-269
-281
-206
-84
15
-40
-133
-62
-149
-530
-539
-41
209
56
26
250
445
471
564
813
689
49
-331
-169
-49
-129
-104
-8
1
-12
13
42
60
61
42
32
66
136
208
279
362
414
396
365
381
382
284
147
79
6
-162
-249
-104
39
-51
-213
-252
-212
-176
-153
-139
-104
-40
-5
-13
-23
-32
-70
-104
-83
-53
-58
-52
-69
-146
-118
53
131
146
323
377
-149
-904
-1068
-571
-104
-30
-100
-88
-40
-2
51
65
-10
-32
120
254
216
186
303
443
522
575
596
556
461
342
251
196
117
18
-27
-20
-23
-53
-91
-77
11
13
-151
-216
-30
119
60
-9
3
-11
-60
-89
-84
-64
-79
-122
-120
-126
-220
-247
10
341
219
-364
-728
-585
-401
-446
-471
-369
-316
-335
-304
-231
-184
-129
-69
-74
-98
-56
39
133
179
197
306
471
494
366
249
179
119
66
11
-32
-68
-121
-118
-59
-80
-140
-233
-602
-990
-724
-27
266
158
182
313
273
150
149
218
205
146
129
121
169
330
427
465
620
543
-15
-398
-207
14
-54
-124
-52
24
25
23
104
196
178
78
39
95
87
45
203
255
-184
-441
46
492
318
60
14
-59
-153
-170
-195
-238
-249
-235
-196
-152
-144
-152
-136
-104
-52
40
111
88
-1
-64
-47
14
40
32
110
295
379
318
412
733
1016
1219
1197
560
-249
-405
-376
-821
-999
-458
-79
-236
-339
-243
-226
-279
-313
-355
-394
-423
-442
-416
-376
-370
-308
-149
-30
25
121
187
132
90
125
91
18
95
210
118
-43
-32
30
1
-27
-5
24
82
108
53
61
100
-74
-262
-102
114
17
-144
-180
-209
-138
40
111
188
326
130
-316
-393
-139
-59
-133
-78
14
-37
-118
-101
-104
-172
-136
-33
-47
-80
21
115
125
197
329
390
407
420
378
297
187
17
-106
-192
-399
-485
-189
94
34
-63
22
119
123
84
79
154
219
174
97
74
85
103
116
84
36
41
58
43
84
220
379
528
548
226
-238
-351
-96
115
106
14
-24
-7
-9
-52
-123
-214
-217
-69
32
-50
-84
84
226
223
261
332
276
183
170
132
31
-60
-123
-159
-197
-240
-218
-190
-250
-255
-184
-230
-281
-184
-129
-114
11
0
-190
-164
-17
-69
-110
-52
-68
13
164
195
393
399
-533
-1306
-802
-408
-883
-774
21
206
-33
11
81
41
79
90
42
75
142
162
180
233
315
363
331
325
387
353
207
140
152
86
2
36
113
113
53
17
44
51
-7
14
39
-231
-538
-351
66
146
-1
-71
-105
-151
-146
-122
-131
-132
-72
-11
-30
20
234
332
298
489
608
138
-419
-427
-198
-124
-164
-263
-280
-137
-66
-103
-65
-47
-102
-76
-37
-31
59
98
142
421
364
-342
-580
74
440
186
89
192
163
153
186
118
56
57
28
32
115
133
71
91
190
212
141
105
127
106
21
-26
20
72
29
-47
3
182
289
265
369
626
536
-51
-477
-307
-17
-190
-559
-484
-89
21
-143
-197
-155
-180
-213
-161
-41
41
37
71
212
321
295
247
308
357
142
-230
-392
-354
-368
-386
-303
-247
-290
-339
-317
-231
-216
-325
-327
-136
-10
11
53
-12
-110
-45
-230
-822
-969
-388
62
35
-11
128
316
475
704
969
797
93
-348
-163
36
-42
-80
-13
5
-22
-55
-55
11
40
-20
-22
67
118
134
165
196
280
419
498
456
313
222
242
8
-612
-956
-643
-186
-22
-48
-113
-149
-109
-85
-153
-171
-47
73
93
91
97
59
-9
-43
-38
-41
-20
43
2
-89
82
345
328
391
707
518
-224
-488
-163
-63
-198
-124
-42
-82
-8
-188
-872
-1135
-501
75
73
36
189
312
402
501
563
591
578
517
451
388
294
189
137
124
76
-1
-23
15
22
-16
-20
28
64
87
135
184
221
256
217
80
-20
-23
-33
-79
-79
-74
-152
-169
25
191
122
59
66
-180
-522
-482
-229
-186
-231
-168
-146
-200
-168
-92
-111
-169
-202
-256
-297
-278
-243
-185
-72
31
112
191
201
177
200
168
48
-11
-21
-60
-56
-47
-82
-46
-32
-201
-275
-84
7
-160
-310
-332
-319
-270
-185
-134
-137
-147
-145
-147
-118
-43
-34
-71
71
270
250
321
654
589
-38
-406
-239
-46
-33
-69
-83
-16
101
149
113
66
64
122
178
185
139
-2
-175
-114
229
452
350
214
214
174
50
-47
-108
-148
-141
-114
-127
-149
-89
9
-17
-122
-102
-9
-11
-22
34
35
3
33
31
-11
27
73
42
16
20
83
243
342
381
508
405
-97
-475
-614
-799
-710
-223
40
-35
-18
63
42
29
39
38
82
118
121
196
291
320
387
497
473
370
362
332
150
25
45
-7
-96
-58
-70
-190
-158
-27
2
53
60
-102
-60
107
-274
-772
-452
125
82
-162
-126
-91
-163
-143
-100
-153
-113
86
189
208
353
327
-115
-442
-305
-134
-174
-209
-173
-151
-157
-212
-255
-147
10
-8
-124
-122
-34
-1
7
120
277
269
219
338
218
-327
-517
-95
128
-59
-137
-62
-25
33
80
65
98
179
224
301
494
752
986
1191
1470
1780
1712
1020
150
-328
-436
-464
-476
-448
-444
-495
-552
-590
-631
-664
-675
-696
-728
-743
-742
-699
-628
-559
-368
-23
188
111
-34
-95
-120
-124
-94
-62
-54
-63
-54
-18
10
30
38
-2
-37
-13
-3
-21
-31
-86
-160
-152
-115
-102
-41
49
40
-46
-56
5
26
35
55
9
-22
69
91
-2
75
144
-179
-394
-3
384
412
548
615
179
-198
-61
119
88
97
158
158
162
195
202
175
111
53
75
133
145
140
151
179
271
377
384
367
406
402
322
232
151
114
73
-48
-75
-9
-248
-620
-451
48
129
-112
-185
-123
-94
-84
-110
-155
-138
-91
-80
-85
-84
-43
36
38
3
136
307
346
483
580
117
-511
-503
-151
-82
-129
-63
-79
-161
-123
-93
-149
-58
79
-24
-60
39
-420
-1180
-1070
-130
703
776
-207
-1207
-724
393
498
110
112
103
-68
-47
51
5
-53
8
100
58
-61
-29
147
238
178
101
82
75
35
-1
24
68
94
163
207
128
238
574
260
-791
-1127
-369
132
-15
-55
47
-12
-51
-18
-67
-123
-118
-117
-111
-63
-6
36
67
103
146
196
254
310
328
279
186
94
-11
-145
-219
-192
-180
-232
-254
-203
-172
-219
-191
-31
-21
-104
83
57
-677
-1083
-410
246
151
12
143
173
142
216
217
135
230
419
446
594
1016
974
208
-291
-86
94
-21
-34
29
-46
-94
-27
-3
-8
32
26
-6
38
56
20
36
39
65
234
140
-481
-846
-368
243
287
58
-45
-92
-153
-150
-97
-51
-11
27
60
80
65
57
120
204
235
262
347
411
369
351
553
898
1111
1047
744
341
-84
-549
-870
-770
-467
-386
-478
-490
-446
-473
-553
-582
-570
-652
-782
-754
-629
-610
-615
-480
-271
-108
1
100
208
275
242
176
187
246
254
219
199
197
214
253
244
146
39
-5
-9
3
12
-2
47
189
227
122
66
4
-65
102
134
-396
-773
-568
-503
-533
0
517
355
209
487
426
-160
-446
-225
-61
-63
-16
13
-18
-28
-28
5
69
48
-19
-22
-5
37
150
215
210
326
538
587
437
301
263
193
41
-23
28
-28
-148
-171
-406
-986
-1220
-698
-78
84
30
75
226
372
356
214
167
210
195
142
98
92
182
207
67
80
330
442
433
495
307
-161
-354
-212
-127
-124
-94
-84
-48
58
126
102
65
6
-204
-477
-490
-178
151
269
249
257
314
318
257
194
96
-54
-145
-141
-134
-155
-169
-181
-196
-195
-170
-156
-194
-220
-140
-33
-19
-33
-19
-40
-56
21
113
140
172
261
407
594
769
882
849
672
528
202
-630
-1206
-712
-8
-58
-326
-245
-129
-162
-200
-263
-355
-381
-402
-478
-502
-473
-499
-486
-360
-254
-157
9
81
17
32
121
131
103
129
177
144
22
-17
62
85
89
132
79
65
164
-42
-456
-391
18
138
45
7
-54
-119
-81
-18
-20
-35
60
218
282
347
445
218
-278
-465
-306
-208
-206
-195
-216
-218
-190
-215
-209
-99
-17
-13
-32
-61
-14
165
328
415
574
738
649
479
492
197
-669
-1064
-422
194
155
82
190
161
108
170
173
139
167
151
134
252
300
145
70
142
129
61
53
39
48
74
16
42
239
336
381
545
421
-124
-429
-224
-1
-74
-214
-139
-92
-402
-584
-190
165
12
-170
-113
-67
-40
85
153
88
119
329
449
364
265
187
66
17
16
-102
-221
-211
-203
-234
-225
-203
-155
-86
-114
-144
12
160
44
-150
-165
-138
-176
-76
27
-149
-126
156
-360
-1276
-912
138
314
202
381
110
-349
-248
-30
-71
-58
13
5
12
23
11
40
37
-15
26
119
120
100
163
240
273
316
373
373
326
296
220
39
-62
12
-38
-238
-165
-57
-504
-918
-485
127
123
-83
-93
-92
-88
-21
-36
-106
-101
-84
-86
-43
11
15
-19
-37
55
206
235
268
462
424
-69
-446
-349
-172
-197
-237
-142
-59
-135
-210
-123
-48
-65
-28
1
-1
93
11
-328
-266
285
546
401
362
437
412
353
300
203
106
61
47
23
-4
15
51
42
35
71
84
100
180
213
129
37
-1
-11
20
63
40
-29
-86
-98
9
161
206
324
551
391
-156
-513
-724
-905
-614
-87
-34
-211
-166
-142
-225
-206
-158
-158
-130
-58
65
167
152
183
365
473
455
473
435
236
90
107
76
-66
-134
-94
-74
-110
-157
-179
-193
-263
-331
-237
-28
20
-145
-185
-120
-532
-1202
-1045
-162
210
-11
116
552
591
426
548
528
20
-358
-244
-47
14
12
-48
-41
56
13
-87
6
112
31
-22
83
154
131
166
285
395
480
488
366
296
311
135
-32
88
-147
-931
-1079
-313
129
-78
-202
-151
-184
-190
-143
-171
-201
-128
-12
38
-1
-41
-10
24
13
-2
-18
-40
-47
-55
10
170
247
362
701
691
15
-445
-277
-169
-272
-211
-134
-154
-110
-76
-47
-31
-340
-698
-429
124
245
162
259
372
417
492
520
429
326
286
234
115
12
-22
-54
-75
-39
-32
-90
-100
-49
-4
39
51
16
55
171
166
59
73
162
159
197
301
259
286
554
452
-68
-3
647
775
238
-249
-465
-525
-474
-421
-408
-376
-353
-379
-408
-411
-411
-434
-493
-561
-587
-573
-566
-561
-519
-422
-274
-138
-64
-6
41
30
5
1
-22
-12
66
89
40
58
138
129
-7
-123
-75
85
205
264
277
235
210
242
246
212
206
240
273
212
123
236
454
557
719
846
446
-199
-346
-98
42
24
-50
-110
-62
-6
-44
-39
47
92
110
129
101
94
190
311
367
332
209
136
216
270
142
-30
-106
-159
-243
-278
-261
-288
-309
-217
-156
-242
-275
-156
-55
-41
-74
-136
-165
-155
-155
-160
-181
-152
18
155
164
278
333
-64
-504
-444
-215
-146
-89
-118
-250
-285
-526
-1027
-949
-243
96
-3
76
225
220
271
377
406
452
516
481
396
325
240
145
39
-60
-72
-29
-38
-80
-87
-55
-13
-20
-63
-48
-10
-16
21
116
161
186
183
72
29
76
-127
-429
-331
-36
2
-105
-125
-37
95
155
221
325
118
-351
-467
-231
-136
-161
-98
-59
-88
-101
-130
-175
-159
-93
-48
-42
-42
-20
42
142
227
269
317
361
324
262
243
132
-39
16
45
-431
-846
-465
98
115
-38
16
106
168
239
262
259
267
240
184
172
224
282
328
412
500
543
653
883
1002
917
882
854
419
-233
-441
-288
-304
-413
-367
-351
-441
-460
-461
-551
-601
-607
-704
-754
-593
-440
-475
-527
-478
-408
-329
-222
-140
-94
-68
-86
-124
-128
-117
-110
-85
-67
-82
-79
-44
-56
-131
-150
-63
15
41
100
155
103
33
37
4
-98
-91
50
104
70
213
451
452
396
489
200
-557
-807
-290
108
65
9
60
112
180
194
122
112
169
146
101
168
234
217
272
412
467
452
463
457
402
318
204
112
64
-20
-140
-168
-74
7
-27
-94
-91
-69
-71
-47
-27
-84
-134
-74
-41
-173
-296
-247
-185
-204
-199
-214
-237
-60
165
183
207
242
-84
-468
-360
-87
-107
-192
-150
-134
-158
-158
-181
-224
-238
-192
-57
79
58
-57
-60
47
123
160
210
232
172
57
