# session 47
17
-14
-96
-44
58
-12
-89
-4
96
149
228
373
567
541
82
-353
-288
-49
-56
-150
-118
-63
-108
-180
-159
-97
-110
-155
-147
-98
-29
36
77
154
273
331
306
255
168
57
-24
-86
-155
-196
-196
-188
-208
-261
-261
-150
-62
-109
-135
-29
61
61
70
64
-14
-76
-85
-95
-76
-43
-65
-19
111
10
-212
65
685
711
80
-311
-181
-22
-53
-100
-80
-22
21
20
19
45
66
72
79
107
150
167
190
274
337
301
238
227
244
203
59
-70
-89
-112
-158
-93
-29
-121
-194
-126
-91
-163
-209
-178
-128
-111
-138
-172
-186
-189
-173
-155
-167
-148
-76
-66
-74
51
168
168
266
345
25
-407
-447
-278
-214
-178
-169
-240
-236
-129
-80
-93
-75
-43
-29
19
132
191
177
301
451
248
-45
51
207
65
-47
0
-12
-21
19
-45
-102
-19
23
-44
-66
-24
46
137
127
41
77
132
17
-62
46
99
23
17
56
69
199
351
349
441
576
221
-359
-395
-86
-29
-134
-150
-115
-90
-125
-198
-183
-122
-143
-172
-123
-60
-17
37
138
265
312
267
247
213
92
-34
-164
-322
-359
-274
-289
-403
-411
-309
-249
-253
-206
-84
-4
-13
2
95
154
106
56
107
171
174
225
288
190
106
283
504
605
725
643
144
-282
-253
-89
-47
-26
-11
-44
-59
-26
-7
-19
-3
40
46
19
30
104
194
235
225
211
195
155
101
38
-48
-112
-97
-54
-76
-134
-162
-178
-204
-221
-237
-248
-222
-178
-174
-205
-205
-173
-185
-229
-191
-107
-124
-181
-169
-187
-207
-56
105
120
279
472
116
-423
-305
-102
-841
-1745
-1384
-217
391
458
507
402
401
641
184
-723
-554
237
326
303
705
803
591
599
613
441
322
275
186
126
132
105
62
107
141
46
-10
84
143
106
109
118
54
-13
-53
-90
-82
-83
-134
-79
-7
-140
-119
176
-18
-582
-475
-92
-376
-699
-443
-223
-291
-278
-214
-226
-184
-106
-114
-165
-186
-158
-62
16
-19
-41
79
218
260
282
329
322
230
109
7
-76
-143
-171
-161
-159
-188
-188
-113
-81
-194
-253
-75
41
-163
-308
-107
72
11
-10
69
60
39
94
95
96
261
443
565
819
987
637
52
-175
-23
208
336
293
191
194
247
223
144
100
95
78
61
65
75
124
155
74
126
337
53
-654
-703
-121
38
-215
-257
-183
-204
-198
-187
-217
-175
-97
-123
-191
-149
-35
-2
-68
-125
-141
-147
-126
-102
-117
-104
-65
-117
-135
36
171
213
444
565
97
-463
-470
-211
-108
-92
-63
-40
-23
-20
-11
22
30
9
18
64
107
129
161
237
313
311
279
314
342
243
102
27
-44
-117
-105
-76
-130
-192
-182
-152
-160
-175
-151
-110
-69
-20
-19
-80
-113
-129
-186
-215
-199
-209
-230
-253
-272
-180
-36
7
45
49
-224
-537
-467
-229
-186
-218
-191
-194
-200
-159
-157
-187
-134
-48
-35
-39
-25
-46
67
489
898
950
827
773
724
588
403
312
292
29
-370
-345
-1
99
31
61
69
39
81
98
80
142
195
125
40
30
56
74
38
-14
28
41
-68
9
310
395
340
455
328
-212
-481
-294
-165
-185
-150
-96
-92
-119
-124
-97
-148
-160
16
-79
-583
-603
27
313
142
196
355
260
132
80
-27
-95
-91
-159
-241
-242
-257
-300
-276
-245
-292
-334
-267
-141
-65
-44
-26
-38
-102
-132
-90
-55
-54
-44
-53
-84
-17
155
248
271
379
343
-50
-367
-268
-66
-21
-53
-93
-71
40
93
49
31
54
71
110
161
175
185
260
360
387
347
354
404
362
223
114
47
-33
-91
-109
-129
-138
-115
-103
-111
-100
-73
-71
-86
-78
-64
-82
-117
-158
-218
-245
-201
-171
-175
-120
-66
-83
-15
131
197
321
456
169
-345
-450
-248
-163
-167
-170
-175
-119
-74
-110
-108
-71
-93
-68
54
116
97
140
255
357
424
447
409
343
288
230
150
63
1
-8
23
31
-20
-74
-55
-4
-14
-62
-32
95
176
114
32
46
47
-19
-42
-34
-37
21
60
19
147
456
678
890
1028
591
-191
-492
-353
-325
-393
-386
-404
-452
-436
-411
-453
-509
-504
-457
-448
-486
-471
-365
-283
-287
-268
-157
-24
35
-29
-147
-183
-124
-74
-83
-130
-172
-186
-167
-110
-55
-79
-147
-106
66
171
107
33
41
44
19
7
-12
11
108
116
26
127
361
395
416
640
542
-45
-349
-126
36
1
33
78
65
84
98
79
102
130
123
183
294
305
269
381
578
632
561
569
604
442
190
115
123
16
-105
-131
-130
-153
-200
-249
-245
-181
-145
-181
-164
-2
116
40
-39
0
7
-47
-69
-79
-76
-65
-145
-167
75
285
270
393
536
148
-393
-373
-85
-44
-83
-36
-45
-95
-84
-47
-28
-40
-78
-71
21
127
209
302
401
445
422
394
384
340
224
83
-4
-30
-67
-138
-178
-149
-99
-105
-155
-137
-53
-52
-113
-58
50
11
-108
-151
-177
-205
-145
-123
-250
-316
-245
-239
-249
-155
-108
-116
-126
-400
-847
-928
-664
-522
-549
-559
-530
-476
-436
-478
-533
-501
-425
-403
-437
-411
-272
-183
-225
-197
-64
-59
-140
-127
-163
-285
-253
-164
-244
-297
-169
-64
-65
-45
47
149
192
201
267
373
435
451
439
394
363
384
429
465
491
523
546
510
481
564
663
757
1044
1257
852
182
61
323
318
151
197
305
260
182
179
187
201
252
286
272
281
342
401
444
481
476
433
401
348
230
112
28
-50
-88
-81
-95
-108
-87
-99
-134
-124
-133
-190
-171
-73
-54
-125
-156
-148
-182
-219
-222
-235
-211
-147
-211
-327
-207
18
48
43
50
-272
-716
-711
-429
-337
-385
-392
-344
-249
-232
-339
-341
-214
-214
-293
-208
-71
-66
-62
59
193
258
251
185
115
65
-11
-133
-240
-240
-185
-235
-320
-266
-191
-213
-186
-110
-135
-158
-55
33
5
-59
-99
-123
-143
-152
-156
-192
-229
-220
-216
-185
-27
117
155
235
208
-145
-432
-337
-206
-250
-254
-183
-146
-119
-88
-47
35
86
73
106
207
283
321
355
425
546
606
529
452
430
325
172
116
78
-28
-55
42
78
15
-5
29
30
25
74
138
176
209
231
212
161
113
97
119
128
107
125
140
74
79
221
303
420
716
695
105
-366
-322
-173
-135
-99
-117
-184
-180
-153
-181
-201
-170
-144
-158
-189
-196
-139
-35
33
58
122
198
190
130
70
-25
-139
-204
-223
-208
-172
-165
-200
-241
-222
-114
-102
-222
-67
157
-362
-1088
-761
52
151
-57
68
190
144
136
139
204
483
755
848
1022
1229
922
147
-327
-276
-185
-250
-267
-215
-229
-259
-207
-166
-245
-333
-311
-273
-301
-308
-271
-268
-248
-120
22
89
137
182
168
119
90
59
9
-20
-42
-85
-83
-69
-154
-228
-138
8
105
206
332
483
652
790
917
1074
1168
1026
559
-33
-380
-439
-456
-491
-504
-537
-557
-550
-592
-640
-620
-615
-679
-740
-747
-728
-728
-695
-530
-302
-108
55
100
81
219
196
-315
-616
-217
185
193
172
186
164
212
221
156
211
308
281
215
175
183
258
226
75
142
444
623
609
576
643
874
1129
1192
1093
821
288
-182
-231
-119
-183
-287
-255
-190
-203
-251
-284
-314
-358
-423
-506
-555
-536
-509
-514
-489
-388
-258
-148
-59
28
93
102
88
86
44
-24
-11
16
-59
-96
9
96
117
208
327
373
465
691
880
904
838
618
119
-344
-372
-199
-270
-449
-391
-224
-213
-272
-266
-287
-369
-426
-457
-500
-527
-530
-507
-421
-279
-116
57
209
319
377
364
314
279
231
159
116
109
125
125
37
-82
-90
-15
10
-19
-12
60
119
81
6
-5
1
-41
-39
42
91
124
209
258
312
560
854
889
650
242
-150
-225
-88
-168
-407
-440
-318
-287
-345
-392
-418
-429
-444
-511
-559
-512
-613
-955
-1016
-590
-233
-175
-90
81
200
236
188
194
332
335
140
63
145
180
173
184
179
175
178
157
162
213
223
163
118
141
170
138
110
155
173
104
81
142
132
53
60
111
80
56
151
222
163
112
127
109
94
102
26
23
171
33
-334
-198
319
420
81
-279
-502
-458
-222
-97
-79
-43
-55
-80
-32
-10
-51
-52
-27
-39
-38
29
111
149
191
334
484
463
357
344
351
240
57
-55
-56
-91
-208
-187
-99
-207
-238
-106
-416
-930
-705
-76
95
27
61
19
-53
-28
-9
-13
-20
-16
66
100
-5
28
258
353
337
370
156
-309
-418
-106
37
-100
-126
23
80
-3
-19
68
59
-27
18
58
-51
59
337
23
-635
-497
237
485
238
59
-4
-95
-196
-229
-209
-237
-262
-204
-189
-240
-226
-238
-333
-300
-153
-125
-172
-174
-198
-232
-191
-121
-124
-188
-167
-61
-110
-202
5
205
122
178
178
-374
-634
-249
-595
-1500
-1109
138
426
82
216
560
634
578
551
599
698
744
738
762
807
820
760
663
614
565
436
309
228
120
54
87
77
0
-8
20
10
14
23
0
11
42
8
-30
-10
-33
-132
-193
-196
-216
-261
-257
-194
-201
-272
-180
33
94
92
123
-98
-479
-522
-317
-275
-307
-248
-243
-301
-267
-188
-165
-145
-86
-25
-2
-34
-37
78
203
225
240
302
309
242
147
22
-73
-63
-33
-70
-109
-109
-126
-145
-116
-72
-46
-23
-10
12
66
104
87
48
12
-1
27
38
12
25
33
-58
-81
67
179
282
523
511
-12
-461
-418
-229
-183
-213
-231
-177
-104
-137
-200
-179
-147
-145
-139
-137
-110
-12
99
179
252
311
337
334
269
141
45
-1
-73
-139
-152
-186
-225
-163
-93
-124
-141
-72
-35
-57
-42
7
15
-26
-60
-57
-55
-48
28
56
-122
-284
-158
83
192
243
356
422
220
-177
-366
-213
-47
-50
-65
-29
-30
-38
29
94
82
65
78
82
107
171
244
323
378
391
439
506
465
334
217
127
58
-4
-74
-107
-116
-166
-188
-172
-241
-328
-271
-169
-143
-120
-112
-174
-183
-100
-113
-190
-114
-17
-88
-133
-90
-127
-89
102
223
366
508
174
-409
-496
-261
-226
-219
-92
-80
-143
-92
-37
-81
-81
14
50
-12
-21
78
177
239
330
444
487
441
366
278
153
43
9
4
-26
-31
-9
-28
-63
-53
-21
17
45
25
34
139
193
125
81
57
-41
-97
-45
-44
-119
-125
-93
-84
9
149
240
370
381
-24
-487
-488
-280
-256
-304
-294
-295
-293
-253
-213
-180
-138
-88
-26
13
12
58
175
231
221
265
301
244
179
115
41
15
-102
-268
-138
-40
-509
-873
-465
6
12
-46
-65
-67
139
160
-256
-367
63
265
96
73
163
119
89
130
90
74
207
287
339
653
854
381
-233
-245
-20
-64
-124
-14
13
-89
-123
-70
-50
-86
-110
-92
-59
-25
7
32
114
244
275
265
322
197
-147
-268
-146
-164
-256
-236
-248
-298
-252
-198
-194
-157
-131
-146
-83
20
-4
-69
-46
-48
-108
-81
-33
-108
-150
-26
27
-59
76
434
621
725
899
668
-10
-363
-225
-125
-150
-128
-134
-181
-204
-252
-277
-178
-67
-71
-119
-114
-66
-24
15
90
183
221
224
247
235
138
44
15
-3
-30
-35
-34
-20
28
44
5
9
50
66
109
186
210
168
103
27
-21
17
40
-128
-316
-212
-42
-93
-68
137
178
153
219
-3
-426
-430
-170
-164
-231
-128
-78
-138
-142
-110
-117
-119
-85
-33
10
30
52
110
207
342
459
452
356
301
258
138
18
-43
-132
-230
-199
-69
21
29
-16
-45
-6
25
1
32
127
161
135
110
54
12
63
85
-6
-28
54
15
-73
42
187
188
350
616
379
-237
-449
-224
-128
-220
-240
-205
-215
-230
-229
-238
-245
-236
-224
-199
-148
-77
21
126
181
199
243
275
214
97
2
-82
-165
-208
-215
-231
-245
-229
-197
-179
-192
-223
-228
-172
-75
-11
-36
-87
-63
-30
-99
-88
52
-129
-598
-579
-93
101
71
210
332
435
591
350
-218
-372
-129
-51
-104
-52
-5
-24
-5
33
34
29
42
60
94
157
224
270
336
457
564
558
469
408
358
246
132
78
3
-112
-151
-117
-137
-216
-237
-189
-195
-256
-220
-120
-117
-127
-52
-43
-128
-124
-51
-74
-140
-109
-46
-115
-197
-64
136
235
434
569
195
-341
-420
-224
-140
-107
-50
-61
-113
-97
-42
-35
-21
18
-10
-1
133
150
57
196
458
513
479
499
428
270
167
114
68
26
-13
-18
2
-32
-89
-47
48
22
-73
-33
86
101
77
109
93
-16
-109
-109
-62
-72
-118
-91
-34
20
141
198
169
335
463
60
-455
-455
-244
-243
-289
-255
-247
-255
-232
-202
-174
-138
-100
-74
-53
-9
52
101
144
208
275
294
237
146
76
5
-75
-110
-125
-198
-274
-264
-218
-226
-233
-181
-174
-208
-99
-33
-319
-558
-306
6
-29
-116
-57
1
25
68
129
210
335
522
733
1026
1528
1796
1157
99
-312
-196
-269
-445
-399
-302
-341
-424
-462
-483
-511
-523
-533
-570
-589
-546
-471
-408
-359
-260
-76
66
68
45
60
36
10
38
38
31
164
421
648
796
1014
1397
1609
1299
704
209
-158
-409
-491
-520
-583
-606
-611
-684
-759
-789
-855
-922
-907
-897
-929
-854
-650
-444
-240
11
230
305
288
332
377
266
227
366
177
-296
-224
299
450
323
361
392
330
364
411
381
378
406
426
444
409
338
321
