# session 15
-72
95
140
217
400
475
391
354
368
266
110
48
39
18
9
6
8
57
139
185
213
274
334
353
289
151
176
336
108
-380
-404
-182
-250
-228
66
201
228
364
453
480
510
432
291
182
77
56
107
9
-141
-63
57
-74
-212
-65
133
147
208
388
289
-137
-368
-236
-68
23
101
74
-27
-57
-102
-206
-239
-329
-480
-216
386
580
323
180
238
321
404
398
283
182
107
64
82
46
-65
-56
85
123
-18
-131
-37
95
-5
-198
-217
-195
-295
-387
-432
-495
-487
-420
-401
-327
-183
-212
-300
-165
-99
-206
27
232
-299
-611
23
323
-133
-115
378
445
256
219
195
149
117
27
-45
-57
-102
-154
-146
-125
-111
-76
-24
38
87
126
238
388
396
274
178
113
74
101
108
55
5
-72
-127
-111
-233
-431
-285
103
258
211
159
39
-86
-109
-180
-324
-327
-210
-166
-124
47
198
275
459
596
486
505
699
406
-244
-432
-307
-405
-470
-315
-284
-370
-327
-304
-437
-518
-443
-329
-233
-132
10
149
120
46
293
708
785
547
355
294
331
423
389
167
-36
-84
-72
-95
-145
-196
-238
-243
-215
-215
-238
-189
-82
-39
-84
-162
-194
-86
76
94
39
66
54
-54
-70
-24
-61
16
267
227
-134
-125
314
441
138
-67
-85
-127
-155
-130
-146
-201
-239
-241
-144
42
179
274
460
652
671
581
538
536
462
283
110
33
-35
-151
-229
-278
-464
-745
-834
-690
-538
-380
-206
-213
-234
-55
-76
-287
-99
122
-163
-292
52
200
121
274
496
470
302
263
385
403
329
437
407
-123
-588
-500
-279
-290
-379
-390
-297
-183
-155
-132
-80
-121
-155
-17
152
234
322
396
363
286
250
254
264
305
430
541
392
-25
-333
-285
-132
-167
-299
-336
-264
-171
-102
-26
46
65
111
234
284
237
223
196
102
10
-84
-114
-6
50
53
157
-7
-597
-914
-677
-408
-296
-213
-188
-183
-187
-231
-268
-438
-616
-247
351
308
-8
216
636
696
621
641
617
494
363
264
167
36
-97
-178
-227
-251
-214
-191
-233
-219
-145
-150
-162
-38
106
111
32
-22
-35
-20
-2
-12
-30
-40
-55
-40
16
38
-1
-30
-13
-8
-53
-41
79
152
194
344
308
-119
-427
-283
-52
31
102
195
261
280
216
132
105
56
-48
-114
-164
-237
-186
-13
27
-58
-3
125
21
-244
-311
-169
-74
-59
-74
-161
-123
220
511
404
121
-64
-108
36
268
328
217
130
92
48
4
-57
-152
-219
-221
-212
-215
-191
-186
-275
-282
-62
110
139
389
653
306
-303
-394
-177
-192
-310
-227
5
147
49
-142
-186
-123
-62
59
180
110
-70
-80
103
259
273
220
220
292
337
292
264
328
360
294
227
132
-54
-167
-148
-216
-377
-386
-302
-363
-469
-437
-425
-590
-703
-553
-354
-277
-143
-53
-285
-367
4
30
-342
-123
395
449
603
904
504
-86
28
267
115
38
113
-3
-173
-172
-133
-162
-212
-269
-274
-167
-79
-88
6
245
366
368
489
626
612
597
581
361
107
58
15
-122
-108
-30
-199
-360
-110
242
202
-96
-257
-178
9
131
112
33
3
30
67
100
153
239
350
430
390
329
440
558
519
556
538
-12
-723
-829
-511
-412
-583
-720
-703
-610
-523
-459
-400
-295
-159
-134
-211
-293
-483
-573
-22
806
880
331
171
515
729
615
395
210
80
-19
-90
-119
-145
-215
-302
-355
-338
-255
-195
-211
-225
-153
-25
25
-34
-26
114
145
-32
-165
-139
-123
-172
-142
12
154
183
239
394
310
-148
-451
-281
-43
-81
-248
-326
-255
-101
-5
-9
-28
-14
33
127
236
317
397
477
514
528
526
468
400
361
262
92
-48
-158
-255
-268
-257
-370
-536
-560
-470
-443
-461
-362
-166
-26
-10
-108
-151
85
416
398
65
-126
21
284
397
322
199
104
14
12
149
219
206
383
488
40
-514
-544
-359
-343
-302
-201
-199
-151
8
46
-42
-24
76
83
44
61
86
45
-18
39
223
347
374
419
376
154
-55
-171
-267
-261
-132
-76
-127
-168
-171
-130
-53
-3
62
175
227
222
272
315
272
192
68
-88
-148
-130
-152
-168
-186
-324
-405
-271
-234
-286
-11
205
-202
-568
-381
-285
-418
-344
-331
-492
-370
-72
83
246
382
368
442
563
398
145
182
317
262
208
337
433
351
249
202
123
19
-72
-165
-195
-126
-94
-139
-97
45
132
197
285
229
85
108
214
361
707
817
376
321
1150
1639
986
57
-332
-355
-351
-395
-486
-581
-592
-515
-462
-467
-440
-395
-398
-390
-378
-466
-561
-539
-530
-588
-547
-391
-283
-264
-258
-234
-261
-392
-503
-445
-311
-245
-200
-104
-9
55
106
176
325
496
486
273
103
154
349
498
492
384
288
224
170
148
165
187
168
90
28
47
62
7
6
107
125
36
120
388
514
571
811
815
213
-354
-336
-164
-219
-249
-155
-197
-375
-415
-282
-180
-187
-269
-393
-424
-249
-21
77
103
173
280
359
378
377
413
446
419
357
265
107
-75
-201
-244
-243
-267
-342
-410
-429
-428
-429
-420
-396
-387
-419
-444
-420
-373
-244
-6
72
-59
51
476
682
504
248
54
-10
224
678
896
533
-79
-306
-158
-81
-124
-138
-170
-198
-157
-157
-209
-157
-35
-17
-83
-85
9
128
261
415
510
481
409
383
363
271
105
-52
-106
-77
-88
-136
-123
-122
-246
-396
-417
-304
-160
-66
-16
21
16
11
105
196
128
59
180
312
274
214
288
355
167
-125
-83
147
117
73
159
-223
-953
-1099
-708
-491
-428
-297
-265
-267
-170
-264
-483
-299
82
123
67
139
88
80
348
584
648
705
701
615
558
419
161
32
21
-130
-303
-253
-184
-289
-326
-199
-154
-202
-142
-2
72
91
133
199
221
167
80
-18
-83
-47
-31
-93
32
216
-31
-323
-20
305
114
-1
115
-71
-324
-220
-123
-258
-289
-151
-55
10
106
178
202
187
137
113
141
144
103
92
124
125
65
22
46
43
-49
-166
-276
-366
-393
-366
-303
-219
-203
-217
-207
-374
-591
-308
252
271
-111
-121
229
434
414
339
250
138
40
3
10
-20
-58
-40
-62
-59
169
345
282
488
844
482
-242
-249
147
119
-112
-159
-190
-275
-281
-227
-165
-116
-116
-123
-112
-125
-90
45
122
69
17
29
89
204
306
305
235
169
98
38
55
120
127
95
92
56
-30
-40
27
39
-23
-84
-95
-40
-12
-139
-328
-367
-270
-207
-205
-202
-203
-250
-343
-327
-79
131
136
326
662
511
33
-119
-97
-185
-101
140
195
155
188
137
3
-11
47
31
-10
-60
-134
-91
41
59
43
91
64
65
217
268
192
210
157
-63
-180
-183
-199
-194
-251
-314
-215
-289
-647
-552
122
454
206
10
3
-102
-231
-170
-24
11
-27
-28
-33
-19
115
224
227
377
600
602
573
559
131
-467
-545
-309
-324
-482
-525
-526
-550
-542
-481
-375
-262
-192
-141
-32
93
75
-2
84
182
188
371
576
420
263
450
563
405
309
315
201
13
-72
-76
-125
-194
-188
-157
-157
-137
-136
-202
-182
-21
43
-63
-64
93
117
44
196
415
339
112
-34
-93
37
246
272
369
599
382
-124
-207
-117
-290
-366
-242
-264
-304
-148
-50
-153
-217
-74
136
181
90
152
351
369
295
410
522
447
385
329
131
-52
-159
-312
-424
-496
-666
-720
-507
-340
-335
-310
-277
-216
-104
-194
-353
-122
179
63
-75
65
174
222
336
377
346
326
249
183
152
39
36
234
269
234
483
501
-109
-581
-470
-335
-396
-353
-233
-182
-87
55
80
4
-71
-108
-70
-39
-128
-144
50
156
65
103
288
291
110
22
73
101
37
-66
-160
-233
-285
-301
-270
-202
-114
-17
95
213
248
147
58
116
194
151
50
-30
-97
-151
-192
-257
-331
-334
-285
-318
-359
-201
28
96
154
299
258
37
42
269
245
-78
-199
46
259
252
228
236
170
82
45
14
-42
-90
-95
-53
32
160
254
243
230
291
337
366
410
327
69
-140
-167
-143
-192
-260
-258
-208
-125
-42
-160
-448
-402
57
297
140
47
95
37
-58
-49
-19
-38
-54
-55
-71
-33
96
129
73
234
490
493
489
600
299
-335
-545
-367
-365
-489
-495
-495
-536
-522
-497
-507
-473
-361
-239
-192
-187
-83
39
-58
-105
335
916
1002
670
351
208
193
235
279
269
162
49
24
-23
-157
-220
-184
-212
-265
-208
-138
-142
-128
-129
-193
-155
6
81
72
156
285
274
137
19
-39
-44
-12
-51
-106
44
276
378
533
687
414
-113
-352
-344
-317
-216
-120
-162
-196
-145
-125
-111
-22
43
25
17
63
138
217
255
254
275
313
315
283
242
205
132
-50
-275
-385
-412
-480
-531
-495
-459
-452
-385
-270
-227
-302
-365
-218
128
322
125
-138
-54
269
483
490
375
212
66
0
13
19
-17
-76
-135
-89
80
195
305
542
519
2
-402
-292
-121
-184
-176
49
198
71
-139
-178
-58
29
-9
-45
-1
-64
-204
0
507
736
579
417
390
400
362
220
25
-113
-161
-155
-136
-102
-50
-39
-39
45
104
5
-84
-51
-69
-163
-167
-127
-173
-259
-309
-281
-182
-193
-426
-618
-532
-349
-282
-251
-164
-106
-162
-224
-68
311
666
812
601
24
-388
-170
247
287
104
25
35
36
-9
-73
-83
-87
-155
-185
-124
-74
-40
-4
-36
-64
43
208
340
451
446
272
108
45
-41
-148
-178
-175
-161
-152
-300
-470
-239
226
320
45
-156
-213
-252
-210
-55
96
176
189
143
87
94
166
234
228
186
199
212
109
-16
-39
-30
-55
-50
9
49
77
185
214
-130
-612
-692
-453
-312
-278
-219
-129
30
170
128
47
146
315
275
2
-136
148
526
588
480
434
400
363
351
284
177
108
27
-84
-146
-180
-235
-233
-158
-136
-163
-108
-35
-77
-97
54
226
228
93
-1
32
30
-107
-152
-77
-151
-236
-16
244
175
-109
-348
-400
-272
-145
-111
-131
-165
-68
161
294
402
567
385
-115
-254
-4
66
-47
-28
-6
-173
-316
-264
-264
-461
-602
-598
-654
-732
-640
-443
-276
-140
-54
8
132
191
40
-53
169
399
234
-156
-297
-103
124
210
233
245
223
186
146
113
107
118
141
171
167
169
248
304
250
197
213
237
270
305
273
212
208
241
224
107
-35
-99
-142
-193
-126
5
64
151
213
5
-315
-437
-434
-403
-305
-243
-308
-401
-426
-372
-266
-162
-70
18
85
165
279
330
321
391
449
345
277
377
379
202
102
63
-121
-368
-553
-748
-854
-682
-425
-337
-306
-270
-298
-181
145
327
337
399
305
-32
-129
181
484
551
490
381
257
170
120
74
42
29
13
12
88
166
124
91
220
300
256
465
833
681
88
-181
-90
-130
-272
-302
-320
-337
-272
-246
-252
-128
-57
-199
-185
158
386
257
55
52
228
408
502
568
607
557
483
460
428
366
354
384
368
319
299
274
179
40
-90
-191
-235
-227
-215
-201
-175
-188
-245
-274
-275
-320
-405
-446
-362
-213
-203
-291
-182
112
283
284
267
191
-93
-392
-297
38
122
132
283
54
-583
-864
-757
-813
-992
-1035
-1022
-1056
-1117
-1086
-945
-1028
-1381
-1514
-1393
-1353
-1205
-871
-828
-1031
-936
-645
-587
-599
-396
-152
-48
-75
-295
-489
-204
361
593
517
490
496
466
516
620
667
695
738
743
745
826
923
979
1062
1149
1128
1072
1056
954
790
764
825
796
750
816
917
975
1095
1368
1652
1614
1058
266
-270
-447
-390
-165
-65
-139
222
950
1050
472
4
-276
-443
-217
84
-17
-226
-225
-207
-271
-276
-195
-118
-103
-107
-78
-45
-37
-43
-89
-186
-264
-265
-226
-223
-233
-202
-201
-277
-288
-185
-126
-164
-201
-222
-231
-222
-328
-523
-408
93
387
159
-159
-192
-95
-93
-175
-244
-272
-294
-337
-359
-274
-125
-65
-26
142
275
351
611
642
-81
-820
-742
-397
-441
-567
-495
-441
-525
-645
-703
-661
-564
-467
-372
-297
-201
-62
-97
-264
-34
510
563
181
154
433
496
458
523
470
242
50
-65
-166
-229
-255
-277
-270
-218
-155
-110
-79
-71
-109
-155
-132
-61
-14
54
183
283
296
239
108
-20
-44
-11
4
-5
-49
-45
80
162
158
268
452
501
363
30
-320
-329
-102
-74
-225
-245
-114
25
127
195
225
223
206
180
140
131
181
201
152
133
190
271
298
246
224
264
174
-66
-225
-278
-326
-307
-239
-256
-301
-310
-393
-450
-221
116
160
-5
1
236
440
435
315
249
219
148
92
62
-11
-68
-50
-65
-109
-36
73
79
69
122
349
866
1151
563
-336
-591
-389
-353
-432
-394
-287
-184
-125
-128
-111
-100
-248
-403
-257
44
152
133
189
247
251
289
349
347
305
277
242
184
143
138
121
85
63
52
39
15
-89
-258
-325
-299
-385
-519
-446
-233
-80
60
187
157
62
60
94
175
375
521
524
555
597
537
491
423
88
-296
-253
80
199
55
-89
-187
-304
-401
-463
-530
-605
-672
-707
-698
-706
-729
-660
-527
-466
-407
-240
-74
12
102
205
231
175
99
74
101
23
-163
-130
14
-346
-871
-543
304
564
350
283
230
37
-42
27
47
-14
-41
70
245
271
198
272
420
399
290
313
386
250
-19
-17
232
289
268
454
321
-385
-835
-696
-585
-526
-204
-97
-357
-253
-115
-840
-1228
74
