# session 19
-18
79
30
13
114
122
48
130
238
143
71
77
-150
-209
283
318
-509
-759
-124
77
-131
44
151
-115
-132
158
300
302
295
232
186
208
196
147
146
159
140
146
225
324
356
339
380
453
418
266
116
34
18
39
43
27
66
171
211
126
75
99
26
-94
-21
166
191
66
-41
-147
-278
-284
-119
28
30
-51
-89
8
166
218
267
454
429
-28
-391
-302
-156
-230
-301
-250
-246
-351
-398
-324
-266
-250
-227
-273
-386
-408
-249
8
136
126
272
393
148
59
227
-310
-1130
-808
27
86
-102
85
224
182
138
54
-9
-9
-52
-68
12
87
114
100
25
-37
26
191
312
290
314
589
895
978
920
636
80
-210
-11
58
-207
-300
-188
-258
-357
-212
-233
-643
-794
-444
-287
-575
-799
-743
-600
-486
-416
-348
-227
-100
-13
76
164
221
251
217
139
139
166
91
20
29
-27
-112
-92
-87
-150
-143
-93
-55
41
124
104
58
-21
-134
-98
76
155
178
214
60
-139
118
624
663
428
689
1124
829
114
-104
80
114
40
46
52
11
-28
-56
-76
-80
-89
-106
-76
-12
-34
-92
-9
124
97
24
116
254
243
165
172
202
128
-13
-122
-175
-173
-152
-195
-256
-186
-30
-1
-133
-235
-195
-114
-101
-129
-153
-180
-172
-83
11
40
44
26
1
83
178
118
158
397
263
-342
-651
-441
-208
-115
-56
-60
-84
-112
-202
-230
-174
-155
-6
229
95
-329
-702
-999
-724
316
891
502
319
644
658
378
297
298
195
95
27
-41
-70
-67
-87
-111
-112
-130
-151
-80
30
19
-53
-20
24
-74
-154
-35
129
178
195
177
90
159
354
339
342
565
253
-676
-892
-165
180
-146
-297
-174
-180
-253
-246
-233
-196
-85
-12
-22
13
107
138
128
191
285
323
309
264
248
250
66
-268
-357
-223
-299
-518
-450
-172
-69
-130
-81
30
18
37
117
21
59
342
-96
-1103
-990
69
361
40
155
406
326
179
167
268
364
392
514
585
210
-283
-297
-74
-90
-211
-196
-136
-141
-161
-133
-107
-123
-101
-29
-2
24
147
273
326
389
448
405
320
307
291
152
-14
-44
-18
-103
-240
-297
-290
-275
-243
-207
-194
-175
-139
-125
-90
33
133
92
45
90
77
-48
-114
-66
-17
-51
-192
-302
-165
94
209
369
641
458
-213
-532
-351
-340
-542
-480
-223
-147
-204
-79
217
335
147
-74
-92
40
164
211
219
232
259
307
338
313
289
272
177
46
-6
-16
-50
-49
-16
-75
-181
-120
32
23
-34
54
95
-3
-14
62
38
-29
-28
-30
-89
-168
-224
-199
-80
51
166
286
352
360
297
-12
-464
-600
-390
-244
-268
-298
-262
-126
12
-33
-134
-95
-107
-261
-281
-176
-221
-309
-223
-89
-39
8
76
105
137
230
264
167
132
159
70
110
299
47
-448
-486
-425
-545
-258
214
207
136
415
611
507
363
305
271
217
172
172
186
178
147
148
226
292
353
524
524
35
-445
-364
-130
-184
-211
-72
-70
-77
151
249
35
-71
-21
-46
6
-24
-414
-450
284
709
295
4
238
347
163
60
22
-136
-246
-158
-87
-159
-197
-170
-193
-176
-80
-109
-245
-232
-114
-144
-278
-305
-245
-210
-187
-175
-206
-218
-173
-167
-231
-195
47
294
327
255
190
-174
-896
-1152
-503
120
50
-77
149
297
212
122
68
28
40
57
47
62
102
142
206
278
311
317
309
274
209
118
43
24
11
-6
29
89
124
129
67
-13
22
98
77
52
56
-25
-39
170
320
177
-56
-152
-149
-163
-173
-97
-39
-67
42
262
280
285
487
372
-167
-381
-144
-44
-161
-238
-264
-272
-283
-339
-348
-265
-216
-210
-137
-24
35
60
62
-20
-120
-51
156
243
175
186
327
419
362
151
-116
-187
-19
113
101
91
96
48
4
3
18
74
144
102
-38
-79
17
43
-30
-20
7
-84
-103
49
200
273
252
224
424
579
168
-419
-477
-236
-175
-215
-298
-467
-399
34
320
180
-31
-70
-63
-79
-77
-60
-14
94
214
264
279
350
408
345
233
140
22
-99
-176
-249
-315
-358
-441
-539
-526
-433
-420
-480
-472
-375
-274
-185
-115
-80
-56
-78
-68
115
117
-319
-605
-503
-445
-229
309
535
495
706
690
126
-209
-20
112
20
-19
14
12
-3
-11
-26
-19
28
47
15
25
70
73
140
324
416
378
401
468
471
429
325
213
198
125
-15
36
35
-289
-350
99
294
-15
-272
-299
-246
-109
28
59
36
12
17
34
1
-9
21
-27
4
180
179
149
449
484
-182
-698
-519
-232
-220
-309
-338
-215
-53
-45
-60
-63
-178
-71
161
-414
-1398
-1154
97
705
512
369
364
320
368
503
542
434
284
192
156
146
128
57
-4
12
17
-12
14
46
41
88
155
130
101
158
159
24
-74
-43
-28
-78
-98
-109
-118
-47
44
148
213
-140
-601
-130
787
620
-235
-420
-163
-150
-177
-103
-103
-113
-79
-91
-129
-145
-146
-130
-99
-90
-111
-137
-151
-149
-115
-128
-381
-847
-1063
-683
-55
259
245
196
167
132
147
142
78
64
-21
-488
-1229
-1527
-884
12
200
77
384
609
260
-47
116
369
405
347
364
396
351
360
427
404
510
801
645
-38
-370
-124
47
-16
-8
34
-21
-31
38
19
3
140
211
128
133
118
57
320
453
-138
-606
-433
-372
-285
293
497
4
-224
-25
42
23
73
49
-21
-26
0
56
98
7
-96
7
156
112
23
67
69
-115
-251
-155
-66
-176
-270
-244
-231
-162
-8
63
167
335
145
-347
-552
-373
-73
5
-515
-1098
-786
-41
150
68
227
348
292
272
269
228
233
254
261
335
411
361
292
291
231
118
85
63
-46
-123
-89
-59
-101
-128
-102
-93
-70
63
185
143
90
172
221
144
54
-136
-449
-460
-16
343
279
112
109
147
189
371
604
758
930
924
408
-194
-306
-205
-243
-247
-223
-337
-443
-432
-430
-490
-584
-686
-713
-672
-654
-626
-577
-610
-655
-552
-385
-283
-166
3
98
80
35
25
98
228
253
104
-36
19
218
361
343
263
244
246
209
199
250
269
213
132
57
44
128
167
102
143
259
174
61
178
273
354
705
812
210
-353
-304
-131
-109
-52
-27
-83
-152
-356
-557
-383
13
189
107
-32
-101
-53
29
82
194
352
392
307
264
314
312
185
68
41
-19
-187
-326
-326
-315
-405
-453
-367
-295
-293
-259
-177
-108
-54
-11
-23
-107
-146
-125
-174
-85
220
28
-738
-1004
-659
-478
-293
190
578
656
392
-47
-119
117
131
61
139
109
-13
30
126
85
14
41
76
28
17
121
195
212
310
422
406
376
409
407
433
502
382
148
83
20
-122
-46
-79
-588
-707
63
595
236
-206
-229
-133
-54
56
95
30
-11
11
11
6
49
57
52
117
88
-31
30
144
165
378
517
-6
-628
-556
-229
-222
-328
-385
-491
-503
-336
-248
-285
-186
-80
-159
-31
150
-411
-1036
-470
447
497
325
547
670
551
458
335
164
77
48
15
-8
-26
-45
-78
-122
-102
-42
-57
-60
54
93
11
70
216
184
41
-68
-128
-99
-58
-70
-47
-98
-222
-78
51
-277
-283
406
541
-170
-481
-254
-248
-321
-184
-94
-83
-13
22
8
46
100
138
198
236
203
171
202
226
179
131
142
140
75
-4
-91
-184
-220
-221
-274
-343
-351
-333
-316
-285
-240
-172
-152
-246
-214
105
334
241
132
103
-7
-58
57
156
171
137
64
76
155
140
165
317
373
443
630
417
-230
-500
-249
-92
-141
-150
-133
-124
-101
-127
-122
55
224
215
175
125
37
185
397
99
-270
90
640
559
189
28
-24
-50
-9
-8
-92
-173
-207
-182
-88
-3
-10
-37
10
43
-47
-137
-78
3
-53
-142
-170
-232
-303
-250
-167
-153
-102
-77
-222
-270
-14
168
137
286
361
-240
-769
-289
152
-461
-918
-377
99
31
80
296
314
202
132
133
150
92
63
192
339
387
411
396
325
311
327
238
121
52
-77
-212
-161
-51
-87
-98
17
38
-32
-22
14
65
101
17
108
361
29
-621
-444
164
98
-273
-319
-275
-217
-47
30
105
372
561
641
842
769
139
-342
-242
-115
-258
-356
-326
-329
-347
-321
-285
-300
-377
-388
-267
-199
-283
-323
-235
-183
-214
-198
-54
134
175
97
214
435
266
-110
-117
20
-95
-147
57
191
150
104
99
96
70
52
120
210
200
141
118
102
87
100
103
84
77
65
33
41
90
102
192
545
809
482
-89
-304
-280
-190
66
260
119
-261
-594
-512
-67
129
-64
-190
-155
-143
-121
-74
-38
77
257
341
337
348
341
231
73
-5
-45
-157
-168
-65
-360
-1046
-1206
-616
-168
-185
-166
-59
-93
-99
-1
70
165
174
34
186
352
-487
-1570
-1016
417
319
-924
-935
283
798
483
636
1071
760
86
-56
134
203
191
120
45
108
105
-45
-15
155
133
47
115
201
203
212
255
323
408
407
324
321
312
193
254
262
-593
-1717
-1622
-667
-204
-275
-457
-620
-394
98
237
101
93
193
305
366
331
327
412
523
665
763
762
888
1280
1597
1352
546
-198
-377
-263
-332
-479
-447
-396
-488
-564
-516
-420
-311
-215
-235
-382
-511
-541
-531
-542
-546
-483
-343
-166
10
133
139
58
6
12
2
-32
-31
-15
-34
-29
40
81
74
105
111
21
-18
54
57
-21
-24
11
3
32
73
20
-26
17
-9
-94
-56
8
-48
-81
-37
-32
3
97
173
361
571
343
-200
-410
-245
-119
-100
-94
-131
-170
-129
-78
-101
-123
-74
-35
-62
-69
-27
0
13
62
127
157
155
153
155
140
96
30
-45
-94
-100
-112
-144
-125
-60
-58
-111
-94
-8
31
-4
-22
27
90
116
100
39
-41
-65
-9
39
8
-29
14
40
3
88
243
246
372
754
693
21
-365
-194
-84
-154
-131
-97
-144
-146
-89
-61
-65
-47
11
62
68
72
131
211
256
295
366
396
363
359
361
262
119
40
24
34
20
-36
-67
-67
-105
-131
-93
-81
-98
-43
12
10
105
224
147
113
221
107
42
291
-204
-1458
-1393
8
200
-1117
-1879
-1373
-282
679
785
131
-256
-72
92
53
71
153
165
145
157
162
134
95
66
81
97
62
90
120
-22
100
486
-137
-1473
-1229
252
467
-170
99
549
285
85
228
231
174
252
274
197
213
286
228
131
205
327
324
290
255
136
37
67
95
26
-29
-17
-64
-168
-127
48
137
223
449
432
-86
-436
-124
38
-623
-1254
-1082
-769
-941
-1098
-682
-32
205
78
82
236
255
196
222
291
358
421
450
442
398
289
176
121
55
-11
20
20
-138
-225
-106
-37
-134
-205
-178
-104
-5
39
-3
-24
82
281
240
-81
23
342
-310
-1174
-795
-373
-860
-748
129
380
246
391
496
563
565
90
-395
-228
129
143
47
69
119
126
120
150
165
76
-1
50
115
154
226
235
199
340
602
710
656
577
446
294
232
130
-32
55
1
-991
-2049
-1531
-102
381
32
-34
101
-27
-191
-128
7
36
21
69
112
71
41
97
151
114
67
140
251
318
458
495
73
-432
-437
-227
-254
-324
-238
-132
-62
-18
-28
2
66
-6
-18
207
-63
-1270
-2095
-1341
11
570
530
579
681
630
508
396
268
146
80
32
-24
-12
59
75
37
-4
-42
-24
31
19
-28
-11
36
44
21
59
182
257
216
120
17
49
168
4
-122
242
31
-1217
-1531
-259
596
411
183
-88
-444
-334
-72
-140
-182
-44
5
-11
-7
-27
0
69
62
18
42
127
165
70
21
152
184
129
367
416
-268
-710
-204
214
42
8
87
-67
-62
37
-79
62
151
-684
-1322
-498
417
248
12
258
382
324
294
193
121
184
198
124
88
104
153
173
138
200
313
292
428
835
795
114
-324
-179
-2
2
27
37
-34
-71
-43
-74
-126
-27
18
-169
-75
246
-242
-1135
-876
95
328
121
205
277
165
115
94
3
-90
-151
-173
-139
-84
-58
-74
-125
-202
-224
-124
-51
-149
-223
-98
8
-34
-54
-81
-233
-313
-234
-184
-150
-71
-34
31
107
98
307
513
-253
-1472
-1452
-452
24
2
118
156
81
213
337
190
22
18
48
34
24
69
170
261
316
359
402
476
557
558
525
506
402
238
165
147
118
100
56
2
-1
-37
-62
-12
-90
-109
222
43
-1058
-1457
-444
335
158
-13
56
-25
-115
-92
-110
-116
-7
65
30
104
283
327
407
657
552
-35
-388
-289
-185
-200
-215
-207
-144
-99
-159
-205
-200
-214
-182
-118
-66
41
67
63
330
199
-954
-1615
-569
590
539
251
368
377
248
233
173
46
14
23
-10
-47
-45
15
58
20
51
175
168
93
178
231
72
-14
97
131
36
48
179
196
80
50
149
220
277
418
522
297
-414
-1133
-1018
-237
157
-20
-135
-85
-85
-86
-72
-90
-86
-54
-13
45
82
128
258
356
315
297
371
358
242
143
19
-155
-258
-268
-268
-277
-276
-259
-253
-273
-269
-235
-228
-156
-37
-100
-82
238
5
-908
-931
92
431
-27
-40
269
249
157
187
104
21
122
204
271
604
842
408
-237
-340
-133
-95
-136
-142
-205
-264
-198
-112
-173
-275
-175
50
107
10
-37
-29
-3
73
103
94
213
277
21
