# session 43
-24
-125
-65
-283
-689
-670
-402
-408
-508
-415
-332
-370
-373
-336
-336
-319
-259
-206
-178
-150
-94
-13
58
148
274
306
193
110
120
52
-88
-113
-106
-246
-362
-256
-101
-70
-67
-32
-17
-22
-2
61
128
137
107
83
46
27
70
78
20
44
105
33
9
183
297
407
740
750
81
-445
-323
-135
-194
-223
-177
-180
-195
-189
-168
-127
-107
-129
-128
-72
-23
-14
3
72
168
230
254
259
198
80
24
16
-57
-126
-111
-112
-139
-105
-83
-116
-95
-46
-51
-14
46
23
71
97
-312
-797
-600
-22
168
64
90
142
52
158
497
286
-526
-794
-354
-136
-161
16
148
82
59
91
93
90
76
84
130
126
110
174
232
252
329
426
479
537
560
494
435
379
220
69
58
76
38
12
-5
-37
-23
20
-27
-90
3
36
-228
-368
-97
72
-96
-174
-74
-62
-123
-110
-65
-85
-72
97
248
290
407
387
-75
-489
-398
-220
-254
-207
-74
-285
-883
-1226
-827
-139
124
28
10
130
225
200
229
513
427
-645
-1530
-958
-70
-137
-278
138
303
75
42
121
68
47
111
149
150
112
66
110
232
291
226
126
89
120
188
231
197
207
323
352
377
687
1022
1156
1431
1571
876
-91
-361
-248
-307
-338
-298
-395
-465
-387
-367
-452
-520
-568
-605
-604
-614
-643
-609
-504
-404
-331
-245
-149
-84
-65
-73
-89
-109
-126
-119
-105
-128
-132
-74
-44
-65
-44
10
62
137
175
118
79
105
98
71
107
155
178
209
191
150
243
378
404
524
712
504
-7
-208
-68
19
3
0
3
7
9
15
53
77
55
65
96
54
3
66
176
221
230
258
297
310
247
145
90
14
-109
-90
-35
-304
-630
-500
-196
-175
-248
-225
-228
-228
-160
-139
-175
-184
-190
-186
-117
-80
-136
-139
-91
-148
-147
81
270
329
446
362
-139
-517
-413
-207
-160
-148
-148
-170
-102
-11
-80
-120
43
72
-29
151
117
-567
-760
121
755
554
414
552
456
206
121
127
77
19
24
26
-34
-42
54
68
-51
-69
67
127
66
56
101
86
31
-13
-47
-24
55
83
8
-50
65
284
354
304
353
262
-336
-959
-846
-287
-83
-215
-226
-131
-120
-149
-132
-68
-13
-28
-39
59
162
157
174
304
376
311
266
259
166
20
-92
-152
-124
-78
-137
-199
-162
-134
-129
-100
-92
-59
-30
-66
86
225
-318
-962
-597
140
207
45
140
193
126
61
45
208
418
507
697
832
442
-91
-149
-13
-71
-108
6
54
-26
-52
17
-3
-127
-148
-55
-6
1
25
64
148
242
257
234
242
221
114
-33
-134
-163
-197
-277
-325
-313
-307
-310
-273
-210
-174
-168
-144
-88
-62
-94
-128
-137
-166
-187
-142
-120
-176
-167
-107
-137
-106
76
183
272
428
217
-333
-502
-269
-188
-204
-80
1
-41
-35
31
59
67
96
125
140
163
193
232
305
387
429
446
447
407
328
222
138
159
184
58
-68
-17
28
-70
-110
-22
-18
-109
-88
19
37
-12
-34
-48
-75
-82
-74
-80
-77
-36
-30
-115
-133
0
70
11
-43
-219
-560
-675
-442
-227
-161
-123
-144
-209
-184
-124
-169
-226
-166
-86
-109
-143
-62
72
142
198
339
476
466
378
320
219
72
18
-10
-106
-106
-55
-132
-92
6
-404
-917
-609
76
252
165
211
239
214
206
151
130
217
227
135
164
262
250
298
472
551
647
802
533
-81
-277
-29
82
-1
-25
29
88
70
-6
7
94
153
198
117
1
235
394
-177
-608
-36
537
359
163
235
130
-79
-161
-258
-423
-503
-500
-567
-710
-780
-782
-822
-803
-619
-418
-321
-258
-163
10
282
519
605
685
996
1445
1507
843
-59
-464
-407
-408
-523
-469
-360
-504
-709
-615
-408
-390
-454
-486
-542
-574
-547
-526
-468
-316
-157
-20
164
333
377
352
339
289
198
183
249
251
179
167
210
188
119
115
152
124
67
76
124
121
83
93
165
197
122
44
59
88
74
70
98
144
194
234
360
624
889
1090
1144
744
-4
-430
-356
-263
-351
-415
-368
-303
-307
-355
-337
-297
-373
-467
-437
-402
-446
-445
-367
-315
-293
-213
-50
82
102
110
175
194
156
158
172
149
135
124
82
56
83
120
127
127
175
244
227
122
55
89
146
119
52
93
163
44
-64
122
287
242
416
655
267
-381
-438
-157
-130
-204
-154
-119
-138
-120
-89
-106
-147
-152
-113
-87
-111
-120
-37
99
199
267
324
328
264
183
82
-77
-229
-257
-221
-269
-342
-312
-258
-263
-260
-231
-194
-133
-97
-87
-53
-61
-113
-115
-109
-76
17
-40
-133
57
35
-548
-725
-43
543
582
377
-10
-330
-228
20
56
-15
-16
58
86
32
57
149
125
70
84
84
157
333
377
346
485
620
527
389
383
376
238
102
69
17
-65
-97
-139
-136
-90
-356
-773
-645
-154
-13
-103
-59
-52
-142
-147
-131
-156
-88
6
-37
-114
-120
-99
-28
45
101
335
526
160
-413
-486
-261
-191
-188
-163
-170
-149
-109
-82
-62
-83
-43
65
7
-8
238
66
-587
-487
400
756
491
396
419
302
199
124
42
52
93
54
0
-13
-16
4
43
49
25
52
149
213
149
21
-41
-38
-35
-47
-53
-32
-33
-99
-72
117
217
236
382
332
-169
-562
-463
-276
-266
-278
-273
-294
-292
-276
-272
-235
-177
-145
-106
-41
10
51
107
158
215
281
276
211
182
135
8
-85
-86
-98
-141
-165
-186
-202
-179
-127
-86
-63
-37
9
58
92
115
132
137
118
96
112
126
95
90
115
111
165
256
283
479
835
690
4
-342
-132
13
-48
-25
12
-77
-141
-102
-63
-39
-36
-86
-101
-33
26
77
140
167
213
284
286
293
269
-26
-359
-302
-114
-162
-245
-218
-252
-337
-338
-279
-234
-220
-214
-163
-52
24
-45
-182
-207
-155
-156
-169
-148
-147
-165
-152
-71
69
177
279
435
342
-154
-502
-361
-149
-146
-127
2
3
-150
-90
101
-178
-651
-449
122
239
127
230
363
400
469
554
566
490
395
331
251
156
94
39
10
20
-33
-82
-14
19
-34
-27
7
47
177
251
155
82
88
35
-16
21
16
-58
-31
54
-67
-311
-271
57
248
90
-278
-566
-527
-279
-147
-153
-127
-105
-152
-180
-148
-117
-130
-165
-121
-11
-7
-74
20
244
362
332
321
387
336
73
-128
-80
-11
-94
-140
-61
-81
-182
-71
8
-358
-653
-317
111
137
98
174
172
107
73
74
123
139
79
95
158
84
48
206
286
346
717
903
355
-251
-242
-60
-103
-168
-159
-134
-91
-87
-108
-52
8
-47
-121
-102
-60
-52
-12
89
172
193
180
145
83
-3
-95
-158
-178
-200
-242
-250
-218
-215
-256
-267
-225
-188
-183
-164
-109
-56
-48
-95
-122
-34
27
-152
-326
-158
64
-6
-60
128
214
161
304
389
41
-293
-186
22
65
89
115
96
104
114
78
63
75
68
86
141
156
148
212
321
347
285
289
378
357
195
88
69
0
-89
-92
-79
-134
-168
-147
-153
-134
-71
-158
-327
-262
-68
-47
-116
-144
-203
-239
-181
-155
-206
-199
-143
-138
-64
97
93
71
320
315
-311
-716
-409
-114
-203
-266
-187
-129
-95
-97
-136
-117
-51
-8
31
80
157
225
222
338
563
352
-176
-137
345
416
174
100
75
-2
8
43
1
-38
-17
9
6
13
53
99
137
153
132
107
86
57
80
136
118
127
274
389
475
743
990
1043
1165
1123
449
-287
-404
-317
-428
-463
-369
-372
-434
-457
-470
-483
-502
-509
-481
-479
-503
-487
-473
-475
-409
-305
-208
-86
-30
-98
-133
-87
-106
-178
-153
-67
-84
-175
-160
-60
-57
-106
-36
42
21
126
257
-60
-487
-288
188
250
115
132
196
211
172
171
329
485
604
875
918
355
-151
-81
24
-113
-102
31
1
-44
23
33
-38
-71
-68
-47
-2
19
23
96
215
279
272
256
258
226
110
-30
-101
-135
-202
-255
-238
-219
-239
-235
-185
-142
-122
-104
-84
-87
-101
-73
-40
-82
-137
-100
-51
-70
-96
-104
-100
13
135
-14
-186
126
501
200
-358
-451
-267
-38
146
-200
-782
-600
28
143
9
100
153
72
57
109
189
251
234
231
313
401
441
423
357
290
190
36
-21
56
69
-34
-77
-21
0
-52
-78
-20
48
61
70
109
124
76
-15
-44
20
-59
-325
-348
-87
-40
-141
52
299
328
426
433
-47
-491
-390
-215
-267
-272
-231
-261
-227
-171
-245
-295
-192
-122
-171
-165
-68
-3
63
197
299
310
318
328
243
113
87
58
-132
-179
13
-183
-753
-762
-194
97
16
-41
-28
37
128
128
95
116
118
79
59
54
52
69
80
34
-8
83
240
293
389
642
595
46
-332
-179
7
-17
-11
24
-16
-36
-33
-64
-70
-87
-173
-187
-81
-15
-10
52
152
209
236
242
205
135
55
-28
-105
-166
-193
-185
-198
-264
-306
-289
-269
-245
-199
-192
-211
-152
-48
1
-4
-47
-121
-133
-61
-38
-72
-21
31
-33
7
198
236
247
472
441
-52
-319
-123
22
-9
7
33
19
49
76
44
53
98
59
28
128
175
102
152
297
303
287
379
358
179
92
100
34
-49
-69
-87
-89
-45
-53
-114
-96
-22
-29
-115
-163
-125
-58
-45
-92
-138
-147
-124
-87
-55
-15
57
151
297
517
666
703
866
1054
723
-62
-524
-440
-324
-403
-466
-438
-412
-391
-377
-420
-490
-524
-517
-460
-444
-542
-514
-328
-423
-642
-411
-119
-252
-243
139
285
152
136
147
58
38
102
121
99
76
81
123
118
87
185
311
254
137
139
153
130
155
156
100
129
194
188
262
405
465
625
778
417
-160
-254
-95
-85
-64
-109
-344
-371
-128
-57
-149
-131
-94
-131
-98
13
85
114
166
281
425
464
322
155
130
146
19
-180
-260
-244
-250
-238
-193
-215
-263
-212
-121
-105
-112
-41
54
19
-72
-5
48
-100
-104
20
-295
-678
-359
123
131
158
389
464
542
593
201
-252
-200
16
20
-18
-4
0
-9
-54
-39
78
63
-51
31
138
35
7
172
256
253
301
302
238
213
178
78
-23
-104
-196
-262
-258
-249
-303
-353
-319
-263
-264
-283
-245
-173
-127
-93
-54
-79
-154
-162
-115
-101
-101
-65
-23
-58
-122
-33
151
242
385
537
227
-364
-480
-180
-76
-169
-178
-129
-90
-51
-33
-13
34
54
64
110
141
150
213
308
347
347
353
359
357
328
237
126
65
39
27
27
-7
-52
-35
-24
-77
-73
12
48
30
35
61
66
30
-22
-58
-70
-40
2
6
12
12
-39
11
211
291
152
-78
-373
-584
-505
-323
-267
-243
-198
-206
-227
-180
-93
-75
-156
-178
-54
10
-72
-49
122
184
179
332
488
413
244
188
157
14
-118
-111
-107
-163
-161
-177
-228
-88
47
-132
-197
-2
-253
-757
-526
116
212
6
47
121
25
-27
78
158
79
60
264
422
436
543
525
65
-342
-232
-16
-54
-97
-32
-26
-20
79
87
-31
-21
126
165
112
130
216
330
389
334
388
517
201
-376
-393
-18
-12
-241
-263
-214
-258
-287
-263
-239
-203
-137
-89
-113
-142
-86
-10
-13
-59
-88
-124
-171
-178
-138
-86
-66
-121
-141
45
242
219
323
670
531
-189
-506
-205
-37
-120
-98
-49
-69
-6
86
79
72
114
110
92
141
188
183
218
316
371
364
370
362
294
229
177
63
-37
-20
18
-24
-96
-126
-100
-68
-89
-127
-113
-87
-75
-19
48
20
-82
-156
-174
-169
-171
-181
-180
-187
-209
-159
-53
-24
-28
-29
-236
-555
-565
-313
-173
-160
-143
-149
-156
-136
-139
-137
-87
-59
-90
-111
-51
69
142
133
158
251
312
344
385
330
195
132
54
-87
-41
139
80
-115
-130
-50
-17
0
-30
-77
-22
90
144
118
50
35
77
56
19
68
82
27
39
60
57
174
318
390
508
442
-29
-381
-284
-174
-204
-142
-82
-104
-76
-69
-119
-88
-116
-296
-316
-117
-16
-7
99
197
191
229
301
228
89
69
28
-134
-181
-82
-127
-295
-327
-238
-194
-214
-263
-311
-275
-133
0
57
102
175
257
394
602
755
813
970
1242
1193
610
-45
-384
-471
-402
-412
-726
-909
-595
-303
-399
-518
-480
-473
-504
-514
-546
-556
-489
-420
-361
-200
32
174
225
294
341
283
188
168
202
177
100
117
213
206
109
93
137
117
78
101
153
162
141
181
314
460
584
697
752
818
1036
1203
948
371
-104
-324
-389
-361
-317
-348
-405
-405
-416
-517
-604
-579
-555
-640
-719
-669
-580
-564
-544
-434
-290
-151
-22
45
72
125
140
75
38
76
116
127
139
195
294
341
288
250
292
305
245
203
213
209
200
265
355
389
464
607
680
781
1016
1110
993
912
707
226
-77
-56
-186
-499
-570
-425
-375
-429
-464
-492
-514
-528
-590
-641
-601
-602
-699
-699
-558
-426
-324
-216
-155
-136
-101
-93
-152
-186
-156
-162
-204
-176
-146
-212
-262
-214
-167
-183
-218
-222
-195
-191
-221
-196
-115
-78
-19
161
332
456
675
893
1022
1292
1570
1299
517
-153
-408
-372
-372
-657
-876
-616
-279
-327
-483
-461
-424
-506
-619
-644
-587
-556
-547
-458
-311
-171
-6
151
226
261
298
305
297
313
326
328
352
363
344
371
439
454
445
479
500
469
442
425
372
323
335
364
334
247
