# session 2
-97
-304
-305
-126
38
96
138
213
247
226
199
128
-15
-96
-5
146
210
203
206
233
270
312
321
289
278
341
436
442
259
-26
-187
-117
106
404
710
899
907
809
672
530
462
512
583
603
657
820
1018
1155
1225
1255
1250
1213
1132
987
824
730
666
508
277
83
-92
-299
-479
-562
-539
-428
-288
-181
-105
-38
-8
-48
-149
-288
-446
-609
-764
-864
-863
-782
-683
-616
-613
-614
-516
-336
-154
66
349
562
583
471
351
232
34
-218
-373
-400
-452
-560
-578
-498
-462
-469
-375
-160
7
10
-84
-156
-163
-134
-103
39
413
784
783
485
260
221
264
371
521
478
64
-460
-768
-940
-1103
-1122
-989
-897
-882
-834
-743
-689
-693
-684
-629
-594
-584
-523
-404
-291
-200
-133
-120
-165
-218
-244
-287
-417
-608
-714
-595
-247
189
537
701
705
622
481
302
213
304
390
294
218
396
656
726
668
691
805
920
1037
1124
1057
861
705
605
449
212
-80
-371
-528
-521
-495
-511
-442
-226
10
140
182
208
220
146
-27
-147
-77
77
124
57
-9
-18
8
11
-27
-36
64
246
424
598
813
989
993
840
611
342
113
-11
-62
-37
34
-58
-318
-377
-91
205
255
231
394
667
760
612
378
132
-122
-321
-403
-369
-304
-320
-410
-481
-525
-568
-595
-621
-622
-513
-353
-304
-349
-389
-447
-526
-576
-674
-873
-1043
-1081
-1057
-1025
-961
-863
-750
-629
-546
-546
-582
-582
-554
-513
-432
-350
-332
-299
-98
200
360
355
361
432
510
602
722
847
991
1160
1307
1390
1364
1212
1022
884
748
557
373
238
87
-98
-213
-207
-152
-126
-145
-153
-67
80
159
190
290
419
486
494
409
267
246
389
600
751
544
-71
-509
-430
-256
-259
-265
-249
-285
-262
-134
1
70
54
4
4
20
-40
-156
-227
-228
-264
-403
-515
-453
-245
19
274
470
644
829
903
783
590
415
219
10
-146
-238
-292
-330
-361
-384
-410
-462
-545
-635
-682
-652
-614
-660
-745
-769
-733
-675
-589
-527
-564
-664
-762
-869
-961
-937
-790
-635
-536
-446
-343
-265
-245
-272
-293
-255
-167
-40
161
389
485
379
195
159
412
841
1160
1219
1091
881
665
525
515
626
791
911
969
1031
1092
1135
1188
1099
719
358
372
543
539
446
391
255
-26
-338
-569
-658
-595
-458
-345
-264
-164
-38
90
236
415
558
585
520
419
276
115
4
-32
-2
78
146
167
166
133
81
68
64
25
8
-22
-194
-440
-592
-683
-790
-844
-838
-861
-851
-714
-553
-479
-383
-163
121
414
648
631
322
-3
-139
-176
-225
-255
-260
-294
-348
-364
-347
-368
-463
-575
-599
-509
-418
-439
-549
-642
-660
-649
-673
-707
-726
-775
-824
-760
-586
-436
-367
-311
-230
-142
-68
-59
-124
-145
-40
153
331
262
-165
-571
-564
-292
0
347
732
1022
1213
1360
1442
1370
1165
1028
968
661
123
-189
-224
-344
-568
-699
-786
-923
-1062
-1165
-1168
-1008
-797
-650
-491
-265
-87
5
121
275
392
466
493
469
485
604
731
758
650
423
210
213
416
572
568
527
503
433
354
304
219
92
-112
-495
-849
-999
-1304
-1759
-1655
-962
-268
485
1387
1885
1857
1781
1752
1676
1783
2136
2346
2215
2049
2050
1981
1687
1365
1138
914
706
631
660
654
564
455
359
205
18
-5
108
91
39
229
532
767
899
630
-59
-513
-474
-372
-398
-494
-753
-1097
-1313
-1450
-1573
-1598
-1644
-1887
-2045
-1673
-928
-414
-257
-47
275
306
-24
-390
-725
-1112
-1336
-1221
-729
554
2834
5067
5826
4982
3521
2221
1232
514
8
-509
-1170
-1685
-1817
-1856
-2132
-2565
-2954
-3219
-3444
-3789
-4198
-4629
-5314
-5999
-6100
-5727
-4426
-950
3145
4377
3489
4362
7112
8757
8692
8649
9838
12136
13985
14321
15023
17235
17388
12542
5453
-206
-4165
-7116
-9066
-10340
-11344
-12053
-12545
-13069
-13613
-14014
-14316
-14615
-14775
-14705
-14586
-14532
-14413
-14090
-13622
-13203
-12875
-12512
-12156
-11874
-11588
-11445
-11540
-11586
-11571
-11150
-9017
-5488
-3122
-2577
-2219
-1895
-2105
-2112
-2008
-1241
3612
12100
17112
15531
12237
10769
10080
9398
9044
9068
9550
10116
10072
9669
9561
9727
9851
9442
7770
5176
3800
5550
9690
13518
15208
15102
14556
14306
14025
13500
13282
13158
12443
12283
12816
10561
5232
2191
2790
3040
2705
4182
6421
8085
9817
10974
10745
10311
10343
10222
9951
9832
9679
9459
9314
9179
9007
8859
8731
8583
8446
8344
8220
8085
8018
7902
7716
7692
7619
7338
7398
7432
6904
7065
7354
6197
6522
7847
5074
4835
10558
1041
-29754
-50415
-47388
-42205
-43653
-42899
-40526
-40183
-39406
-37912
-37209
-36405
-35242
-34434
-33661
-32713
-31911
-31157
-30320
-29559
-28856
-28111
-27419
-26789
-26106
-25480
-24942
-24276
-23664
-23250
-22553
-21867
-21694
-21025
-20244
-20584
-19763
-18267
-19793
-19104
-15021
-19458
-21028
6965
44463
52072
41589
40817
43266
40120
38496
38835
37263
35909
35460
34307
33160
32451
31493
30501
29708
28845
27953
27088
26198
25452
24869
24219
23490
22815
22169
21492
20836
20205
19474
18628
17945
17586
17279
16773
16222
15794
15386
14921
14443
13953
13493
13104
12697
12259
11787
11255
11009
10982
10408
9868
10012
9341
8663
9678
8564
6492
10301
8141
-13940
-33907
-32726
-35000
-51033
-50114
-30837
-28887
-45740
-52309
-46635
-46298
-50522
-48702
-44797
-46937
-45394
-28725
-9599
-3328
-4992
-7618
-6020
9817
31860
38720
33502
32926
34400
30965
28931
27247
13384
-8517
-19259
-16462
-14689
-19584
-23078
-18469
-12089
-14064
-15308
1627
26588
35624
31437
30036
31052
29607
28483
28244
27250
26695
25643
21228
13758
4105
-8736
-24097
-38419
-47943
-51232
-50277
-48702
-48026
-46214
-41095
-35090
-31799
-28161
-20816
-17017
-21529
-22429
-11885
-2268
-2138
-3499
-2497
-2763
-2669
-2037
-3575
-2536
233
-6366
-16101
-12847
-5683
-9366
-13653
-9074
-4906
-5629
-5793
-4953
-5069
-4954
-4415
-3856
-2989
-2656
-1647
2028
3778
956
3799
18443
33002
37703
38015
38986
38678
37232
36505
35847
34806
34019
33304
32426
31669
30955
30165
29499
28863
28111
27507
26925
26051
25491
25078
22546
17152
11371
6685
2285
-1799
-4638
-5782
-4670
-1450
2893
8867
16499
22149
23217
22210
21789
21505
20911
20419
19934
19537
18863
15978
10750
6241
2659
-3253
-10735
-17418
-25559
-34978
-40497
-40701
-35918
-25190
-14051
-10131
-11883
-14289
-16522
-18672
-19941
-19690
-17979
-16565
-16174
-15223
-14849
-17624
-21217
-22419
-22675
-23513
-23989
-24068
-24298
-24312
-24254
-24592
-25026
-25405
-25933
-26235
-25886
-25218
-24590
-23773
-22543
-21094
-19883
-19599
-20667
-22508
-24255
-25981
-28036
-29870
-30753
-30729
-30033
-28545
-25811
-21045
-14259
-6747
593
6778
10693
15593
25739
36220
39063
36584
35157
34607
33127
31784
30876
29688
28503
27515
26438
25359
24387
23397
22411
21488
20578
19677
18812
17964
17130
16324
15537
14766
14017
13289
12585
11910
11261
10633
10020
9420
8845
8300
7768
7241
6731
6241
5764
5298
4836
4389
3978
3599
3227
2866
2536
2222
1914
1628
1362
1092
824
587
372
173
9
-162
-356
-497
-635
-845
-968
-1152
-1838
-2526
-2264
-1484
-1243
-1410
-1420
-1381
-1439
-1454
-1435
-1468
-1496
-1476
-1437
-1406
-1380
-1328
-1245
-1163
-1092
-1028
-965
-892
-811
-728
-630
-537
-460
-347
-244
-194
-55
87
43
208
450
-941
-4747
-9119
-12586
-15793
-18920
-21040
-22402
-23857
-24785
-24495
-24043
-24667
-25707
-25222
-23085
-21736
-21502
-20112
-18644
-17881
-11668
2056
13210
15221
13793
13956
14263
13691
13352
13691
13216
9484
3460
-188
-39
576
-97
-276
1572
4886
8501
11844
13600
11388
5459
-606
-4970
-7663
-5920
2104
11029
14563
13966
13455
13545
13252
12842
12666
12529
12111
11707
11844
10923
6372
-820
-7243
-11818
-15321
-17869
-19443
-20545
-21371
-21294
-19779
-16993
-11654
-1646
9754
15461
15047
14001
14037
13683
13159
12807
12403
12161
11618
11029
11232
10540
9297
10762
9729
-2276
-20136
-34214
-42881
-41158
-20195
10531
19921
-5189
-29463
-17650
9312
17375
8876
-7518
-29251
-38361
-23485
-1025
11281
13253
11938
11382
11399
10907
10339
10058
9742
9338
8913
8651
8141
5444
-70
-5630
-9749
-14228
-18445
-20459
-22361
-22241
-12385
2664
9863
10605
8254
-6505
-25855
-22959
-436
12435
10237
8567
9991
9405
8599
8940
8698
8255
8283
8109
7807
7718
7575
7362
7246
7129
6980
6877
6793
6676
6565
6527
6524
6479
6462
6475
6388
6367
6457
6310
6260
6541
6222
5966
6941
5772
682
-1474
3119
7509
7382
6698
7312
7422
7214
7441
7557
7509
7615
7724
7760
7808
7917
8003
7935
8025
8287
8028
7914
8744
7107
-969
-12477
-21486
-27976
-34855
-40788
-43330
-43664
-42731
-39597
-36146
-35388
-36159
-35913
-34342
-31126
-25718
-19213
-12719
-6538
-1888
-48
-508
-1861
-3078
-3712
-3929
-3884
-3114
-1048
2357
6392
10091
13429
16738
19419
21613
24609
27559
28353
27789
28155
29781
31554
32409
32287
31949
30700
26999
22248
19314
16636
10144
1475
-4782
-9204
-12045
-11651
-13696
-18966
-15514
-7939
-14450
-24881
-17181
446
10600
14038
14358
10500
4336
-2104
-7927
-10998
-11059
-10041
-8826
-7671
-7147
-7470
-8236
-8818
-9455
-10144
-8690
-4984
-4058
-8713
-15349
-20249
-22775
-23594
-23713
-22770
-20691
-19459
-18406
-17454
-20959
-22432
-8265
11777
17348
13682
13575
13791
13263
13895
11313
11365
16363
6219
-15450
-13389
8884
16096
9811
9923
12013
10123
9769
10255
9311
9361
9127
8183
9140
8465
6210
9404
9335
-4964
-15150
-6216
2979
333
-1637
567
173
-762
61
-278
-842
-218
-611
-672
1099
45
-1027
10111
28753
34251
25720
22114
25750
22026
12104
8893
9152
5681
7187
15864
17066
7745
359
-1119
-1470
-1436
-154
916
813
-911
-4955
-10269
-14242
-15404
-14327
-12260
-9873
-7482
-5594
-4398
-3532
-2905
-2772
-2874
-2433
-1117
305
530
-830
-2727
-3897
-4570
-6284
-9269
-11903
-13953
-17100
-21739
-25817
-25255
-16548
-2682
8069
11792
10974
7691
1631
-5787
-9299
-4353
4935
7255
-1398
-11594
-15282
-16062
-18263
-19447
-18214
-16912
-16261
-15374
-14538
-14145
-13334
-11374
-9068
-7170
-4765
-1252
2507
6233
10042
13103
15199
16732
17032
15946
14430
12520
10515
9716
9516
8362
7008
6587
6450
6018
5571
5353
5605
6417
7558
8984
10505
11555
12064
12271
11930
10952
9724
8312
6611
4882
3419
2407
2032
2193
2365
2119
1885
2390
2796
1494
-829
-2406
-3953
-6709
-9255
-10032
-9282
-7043
-3713
-926
967
1378
-2606
-9668
-12743
-10071
-7433
-7631
-8397
-8576
-8631
-8489
-8169
-7790
-7261
-7269
-8542
-10004
-10004
-8846
-7985
-7468
-5984
-3154
-144
2485
5500
8953
12696
17855
23115
24043
20612
17309
14618
10488
6577
4420
2689
1886
3428
5446
5648
4615
3588
2618
1521
766
1148
2643
3911
3506
1506
-422
-953
-775
-1306
-2455
-3197
-3359
-3312
-3086
-2778
-2796
-3379
-4686
-6964
-9793
-11798
-12042
-11056
-9832
-8724
-7817
-7291
-7117
-7207
-7647
-8256
-8454
-7996
-7206
-6354
-5411
-4325
-3153
-2152
-1523
-926
-26
916
1861
3167
4591
5727
6822
7962
8709
8879
8556
7863
7187
6771
6357
5673
4723
3685
2950
2709
2676
2882
3804
5164
5983
5916
5303
4391
3335
2202
875
-505
-1434
-1680
-1536
-1396
-1360
-1306
-1249
-1374
-1714
-2080
-2382
-2750
-3110
-2952
-2138
-1408
-1226
-1086
-763
-769
-1118
-1294
-1361
-1594
-1663
-1315
-779
120
1764
3513
4481
4983
5287
4496
2620
1376
1534
2112
2438
2640
2670
2359
1740
957
355
272
565
750
547
-24
-1006
-2494
-4203
-5733
-7165
-8611
-9785
-10560
-10810
-10130
-8859
-7631
-5899
-3559
-2045
-1523
-715
300
1049
2094
3117
3108
2456
1852
987
-186
-1081
-1528
-1850
-2384
-3211
-4005
-4489
-4912
-5445
-5682
-5293
-4462
-3378
-1926
-68
1923
3710
5122
6112
6857
7757
8904
9879
10359
10370
9990
9341
8549
7591
6581
5786
5028
3970
2988
2643
2716
2756
2850
3103
3054
2199
708
-721
-1656
-2184
-2258
-1538
-355
220
-196
-888
-1280
-1364
-1156
-803
-772
-1239
-1858
-2447
-3217
-4175
-5051
-5808
-6511
-6946
-7004
-6906
-6672
-6118
-5298
-4342
-3303
-2367
-1643
-1059
-634
-304
134
587
832
865
746
972
2421
4912
7176
8509
8826
7957
5990
3095
-537
-3473
-3827
-2076
-609
-352
-149
797
1936
2599
2674
2153
972
-758
-2659
-4303
-5436
-5865
-5552
-5078
-4950
-4498
-2990
-1144
39
550
736
1064
1933
2650
2233
1122
270
-374
-1399
-3039
-4715
-5438
-5240
-4975
-4630
-3861
-3283
-3318
-3347
-2998
-2398
-1352
58
1093
1666
2507
3688
4575
5015
5398
5945
6589
7184
7570
7587
7241
6727
6147
5511
5065
4985
4842
4175
3331
3005
3295
3661
3610
3193
2775
2430
1883
1018
84
-739
-1519
-2175
-2439
-2429
-2559
-2824
-2917
-2866
-2875
-2911
-2927
-3101
-3549
-4156
-4757
-5256
-5642
-5998
-6315
-6378
-6124
-5839
-5645
-5381
-5221
-5454
-5674
-5213
-4109
-2852
-1600
-192
1360
2831
4233
5768
7297
8541
9569
10346
10495
9926
8815
7121
4804
1930
-1291
-3881
-4607
-3636
-2378
-1715
-1385
-740
468
1631
1662
583
-37
457
498
-792
-1908
-1778
-1262
-1174
-1557
-2587
-4113
-5115
-4745
-3196
-1228
370
941
676
866
2113
3163
2839
1580
242
-842
-1610
-2501
-4115
-6002
-6959
-6624
-5811
-5362
-5340
-5388
-5243
-4789
-4139
-3537
-2779
-1457
134
1391
2302
3122
3890
4694
5658
6693
7735
8875
9947
10488
10199
9137
7666
6282
5195
4306
3647
3241
2868
2530
2427
2302
1741
836
-81
-719
-961
-1213
-1737
-1880
-1263
-679
-682
-822
-750
-642
-601
-635
-933
-1636
-2608
-3612
-4495
-5151
-5519
-5665
-5678
-5604
-5506
-5392
-5157
-4735
-4172
-3497
-2655
-1542
-148
1349
2676
3606
4002
3784
2852
1396
298
242
665
762
625
329
-603
-2125
-3490
-4193
-4122
-3278
-2047
-1094
-497
240
1093
1492
1294
739
23
-568
-1105
-2185
-3723
-4854
-5324
-5428
-5108
-4401
-3555
-2282
-360
1467
2547
3241
3852
3975
3676
3852
4550
4467
2960
925
-719
-1806
-2393
-2776
-3484
-4432
-4752
-4002
-2897
-2339
-2315
-2178
-1469
-170
1416
2863
3915
4713
5475
6136
6696
7406
8250
8985
9551
9730
9218
8377
7739
7165
6476
5911
5462
4848
4141
3633
3342
3091
2793
2439
1961
1236
153
-1179
-2219
-2486
-2195
-1767
-1243
-751
-721
-1237
-1815
-1955
-1708
-1503
-1400
-1062
-560
-431
-1022
-2275
-3786
-4997
-5657
-5877
-5692
-5091
-4314
-3669
-3228
-2886
-2523
-2028
-1292
-280
911
2203
3403
3752
2483
145
-1681
-2050
-1030
926
2896
3702
3101
1907
644
-862
-2524
-3655
-3723
-2968
-2186
-1875
-1698
-1107
-251
228
6
-657
-1191
-1266
-1223
-1688
-2699
-3624
-4066
-4327
-4727
-5053
-4947
-4267
-3170
-2268
-2061
-2139
-1742
-658
884
2232
2309
647
-1835
-3520
-3610
-3119
-3603
-4890
-5806
-6304
-6726
-6654
-6106
-5834
-6000
-6166
-5993
-5308
-4166
-2743
-1077
564
1816
2890
4088
5104
5730
6321
7086
7837
8463
8985
9246
8967
8164
7188
6247
5333
4571
4070
3708
3416
3273
3319
3643
4321
5093
5476
5164
4235
3194
2705
2891
