# session 14
39
18
7
-20
-149
-234
-61
191
336
410
187
-364
-615
-362
-168
-221
-232
-186
-196
-178
-82
28
129
220
269
243
180
178
242
240
134
73
146
228
192
103
66
31
-74
-220
-364
-461
-447
-386
-358
-280
-232
-445
-641
-310
338
695
605
260
-96
-184
12
238
361
377
298
197
84
-30
-22
-8
-158
-181
41
104
76
251
165
-359
-576
-311
-139
-109
10
64
31
91
141
80
58
50
-46
-69
-7
-25
59
312
304
58
86
254
112
-137
-131
12
72
16
-126
-244
-215
-106
-69
-83
-52
9
66
123
112
29
31
148
223
215
174
46
-138
-230
-270
-375
-448
-438
-471
-445
-163
123
192
305
455
211
-383
-809
-695
-61
592
746
490
196
41
88
246
326
317
290
223
109
8
-46
-67
-83
-84
-54
-17
-4
-36
-119
-202
-257
-295
-258
-164
-135
-112
26
136
91
43
97
134
76
-1
23
175
341
378
245
9
-214
-300
-254
-265
-363
-282
-28
37
-51
29
141
119
214
303
9
-291
-115
173
187
92
36
37
77
12
-123
-124
-88
-179
-248
-200
-186
-302
-464
-475
-237
37
135
148
157
92
4
-61
-167
-129
267
701
753
496
121
-232
-233
158
477
496
384
225
70
0
-36
-80
-110
-154
-172
-107
-56
-70
-50
-19
-88
-142
-6
164
204
372
677
513
-174
-574
-433
-272
-268
-240
-182
-134
-86
-62
-90
-177
-184
33
213
63
-172
-163
8
135
156
131
149
191
173
124
111
114
116
122
107
79
91
124
127
116
76
-55
-234
-371
-478
-526
-428
-278
-270
-364
-368
-264
-182
-140
-131
-188
-136
59
-37
-344
-206
114
176
495
796
202
-448
-148
342
429
466
398
117
-36
-58
-149
-172
-100
-125
-163
-92
-45
-41
18
58
73
179
298
320
269
184
132
143
153
208
332
345
197
13
-114
-89
-98
-463
-728
-276
345
407
209
119
14
-84
-81
-96
-143
-129
-101
-119
-103
-17
65
156
286
352
431
624
531
-16
-355
-193
-74
-189
-257
-308
-476
-599
-559
-465
-402
-328
-264
-256
-224
-166
-122
58
199
-10
-3
523
573
99
254
667
413
192
488
562
284
128
49
-87
-156
-174
-219
-240
-236
-228
-172
-81
-26
-11
-28
-94
-174
-190
-148
-167
-253
-229
-75
107
343
491
433
551
843
591
-94
-283
-51
-200
-649
-724
-362
-38
6
-89
-161
-187
-184
-168
-166
-171
-146
-61
73
195
286
393
468
420
298
219
200
218
214
90
-101
-171
-144
-209
-356
-437
-426
-412
-447
-438
-286
-105
-57
-100
-105
-57
-77
-183
-82
390
803
726
342
26
-35
231
543
525
468
682
608
-22
-447
-351
-271
-337
-307
-271
-285
-224
-164
-159
-87
-22
-95
-152
-92
-62
-54
35
54
-58
-41
165
297
289
302
337
257
52
-123
-156
-110
-110
-155
-146
-70
-50
-140
-215
-198
-171
-187
-188
-133
-61
-3
67
153
221
265
257
234
342
437
234
39
178
261
183
275
144
-512
-906
-676
-451
-412
-316
-246
-255
-237
-109
72
-159
-687
-423
286
-45
-632
-24
683
500
481
936
1018
777
647
485
254
137
28
-143
-195
-134
-135
-173
-175
-199
-196
-94
-60
-168
-200
-87
-6
34
101
112
66
65
67
8
-62
-99
-108
-110
-82
46
222
371
518
429
-105
-577
-482
-201
-179
-254
-272
-307
-304
-219
-149
-97
10
104
136
202
274
222
174
303
445
449
419
356
183
2
-115
-220
-330
-489
-696
-732
-498
-312
-354
-326
-185
-281
-453
-332
-175
-59
387
766
493
123
257
473
421
343
308
203
125
98
-1
-29
158
289
327
580
699
192
-325
-222
-44
-221
-351
-302
-312
-288
-133
-52
-80
-70
-29
0
49
85
47
1
51
121
14
-205
-191
140
423
366
84
-167
-291
-329
-306
-234
-191
-201
-180
-93
12
127
243
287
260
266
310
262
117
15
-52
-152
-185
-159
-239
-348
-330
-278
-174
54
167
74
-35
-252
-569
-604
-411
-334
-214
101
336
397
355
142
-67
51
345
422
274
151
141
156
129
97
119
140
119
152
218
150
41
63
22
-200
-300
-173
-78
-50
45
104
52
40
93
71
-3
-14
25
71
124
146
95
24
-37
-170
-391
-513
-425
-299
-190
72
316
254
140
121
-137
-458
-362
-97
-23
36
137
148
137
131
94
106
119
14
-131
-225
-302
-374
-393
-319
-166
3
151
270
331
290
149
43
41
-97
-408
-393
110
524
458
133
-123
-151
0
133
218
319
300
115
-16
-36
-93
-151
-102
-36
-49
-80
-48
1
-19
-21
96
217
305
426
333
-84
-315
-95
137
101
-19
-78
-51
-10
-73
-73
142
181
-171
-400
-283
-250
-336
-151
230
448
475
410
272
154
137
150
124
104
126
129
73
56
87
15
-119
-119
-33
-24
-71
-109
-146
-182
-246
-407
-612
-704
-614
-428
-299
-280
-265
-195
-148
-119
-31
112
413
882
931
218
-441
-300
172
353
332
283
162
16
-64
-99
-123
-151
-216
-295
-279
-167
-60
35
145
197
167
153
191
218
225
264
311
258
75
-77
-61
6
-23
-79
-77
-21
68
9
-329
-565
-341
1
62
-9
-24
-29
-35
-40
-77
-118
-139
-117
-25
40
87
275
466
481
524
514
122
-259
-172
-60
-204
-224
-148
-280
-392
-275
-225
-370
-457
-396
-334
-286
-151
24
137
181
86
-156
-178
311
956
1199
909
350
-44
-19
179
215
142
84
-4
-91
-127
-175
-222
-203
-178
-191
-175
-137
-141
-171
-192
-196
-172
-143
-122
-53
36
40
126
490
749
561
400
528
351
-239
-582
-537
-449
-326
-111
-40
-221
-362
-240
-85
-126
-196
-158
-147
-188
-140
9
163
290
424
563
653
655
578
478
422
324
39
-273
-347
-302
-381
-526
-635
-726
-692
-466
-256
-216
-210
-82
105
72
-234
-270
284
796
682
253
11
67
267
402
485
620
621
440
344
196
-276
-636
-497
-276
-300
-330
-275
-293
-339
-306
-292
-357
-403
-350
-212
-63
62
241
487
622
554
451
425
384
346
367
215
-166
-296
-1
210
74
-133
-232
-254
-231
-224
-246
-233
-194
-172
-102
47
151
139
116
109
38
-18
13
1
-9
111
138
6
58
178
45
39
266
0
-677
-796
-386
-232
-343
-309
-208
-238
-308
-272
-54
320
554
364
25
43
381
639
693
634
506
370
305
285
246
152
18
-81
-137
-210
-258
-228
-191
-180
-152
-160
-211
-175
-51
15
29
105
188
136
7
-52
-65
-86
-60
3
31
40
17
-105
-195
-77
103
120
31
-110
-362
-518
-371
-177
-197
-252
-151
-6
55
64
92
156
226
255
228
180
123
55
47
99
58
-45
2
129
107
-20
-126
-233
-343
-435
-518
-572
-560
-438
-271
-304
-419
-104
549
827
505
2
-241
-35
394
561
342
83
30
74
57
-10
-43
-63
-131
-164
-51
64
105
311
521
183
-442
-557
-232
-51
-66
-41
91
250
256
98
19
59
13
-61
8
41
-106
-111
208
495
484
333
265
333
406
318
142
50
-3
-103
-159
-100
-8
79
187
243
207
208
253
179
75
102
70
-153
-304
-275
-270
-336
-413
-547
-623
-482
-328
-289
-114
137
193
257
313
-89
-545
-347
30
-25
-200
-207
-106
117
344
369
256
167
117
22
-134
-219
-154
-53
-13
5
59
159
240
188
22
-63
-14
-39
-231
-376
-325
-173
-14
144
266
297
243
174
63
-102
-101
5
-216
-508
-195
355
357
15
-154
-178
-154
-48
28
-58
-156
-30
173
206
305
558
443
-32
-162
77
140
38
10
-38
-139
-190
-250
-351
-377
-334
-309
-281
-282
-400
-500
-401
-192
-8
171
285
233
171
284
456
509
431
217
-69
-184
-30
199
325
320
222
110
49
19
-31
-77
-38
42
29
-40
-80
-132
-150
-73
-35
-35
67
201
331
501
486
356
547
717
220
-430
-460
-160
-36
-90
-243
-326
-146
48
-2
-75
-43
-87
-173
-144
-78
-55
-12
51
97
141
208
314
433
460
374
303
277
185
21
-138
-266
-343
-386
-480
-617
-669
-590
-463
-364
-292
-240
-213
-190
-224
-392
-522
-426
-314
-372
-353
-68
298
477
359
98
-14
176
598
842
480
-107
-189
50
33
-107
-111
-141
-206
-164
-147
-237
-259
-160
-70
-56
-70
-1
175
312
355
463
701
873
803
593
421
262
73
-32
-67
-191
-325
-239
16
155
53
-133
-183
-121
-114
-142
-84
-28
-99
-163
-57
80
47
-33
69
252
270
189
179
204
230
252
248
284
210
-240
-729
-782
-659
-669
-628
-454
-271
-190
-256
-228
-71
-257
-478
64
632
197
-350
-105
251
308
497
806
914
812
593
356
176
-5
-175
-232
-227
-237
-210
-178
-241
-307
-252
-165
-156
-182
-166
-56
107
161
105
124
201
181
108
84
72
26
-35
-14
123
149
34
194
507
275
-320
-453
-177
-56
-103
-143
-201
-257
-243
-176
-92
-8
88
165
145
114
189
234
172
173
258
288
243
134
0
-63
-141
-317
-412
-392
-476
-593
-529
-405
-366
-287
-143
-107
-181
-172
12
290
504
455
157
-15
176
435
460
350
235
100
20
0
-67
-67
99
215
305
531
507
1
-395
-334
-188
-161
-125
-51
20
39
-7
-69
-169
-273
-179
49
112
55
38
-94
-311
-236
149
462
524
419
275
157
26
-134
-229
-243
-239
-199
-116
-52
10
103
169
197
198
86
-85
-106
-17
-17
-88
-185
-315
-323
-169
-78
-53
50
31
-192
-242
-133
-228
-232
82
90
-244
-155
115
-108
-308
-37
43
-258
-209
284
540
347
107
60
88
64
11
14
83
133
110
94
147
178
98
9
37
100
49
-78
-139
-122
-104
-49
115
263
228
131
126
53
-121
-118
-52
-311
-550
-208
307
363
181
112
33
-77
-93
-115
-127
27
132
90
241
408
102
-271
-172
66
156
223
188
32
-45
-83
-148
-142
-156
-315
-443
-431
-445
-467
-264
23
121
211
316
155
9
122
5
-296
-192
51
41
101
286
306
265
286
233
110
22
-43
-90
-108
-133
-152
-106
-57
-99
-159
-156
-139
-125
-89
-44
35
131
155
204
377
518
626
776
588
-89
-532
-342
-153
-367
-482
-151
220
219
-29
-210
-202
-89
-20
-46
-93
-77
10
123
245
392
514
557
572
568
482
371
295
125
-123
-225
-212
-319
-497
-512
-380
-322
-362
-335
-282
-382
-517
-447
-245
-120
-130
-237
-288
-160
19
125
184
130
-41
-51
275
625
590
427
632
769
206
-455
-458
-246
-309
-341
-221
-229
-313
-283
-251
-274
-208
-103
-83
-26
130
169
26
-87
-66
-4
46
96
151
215
229
126
1
-63
-147
-228
-185
-128
-184
-211
-118
-40
-21
15
39
12
17
121
267
365
383
378
418
442
370
290
316
359
326
369
590
782
895
1174
1330
698
-380
-870
-703
-546
-558
-568
-536
-443
-455
-732
-905
-649
-264
-97
-220
-562
-743
-489
-170
-165
-244
-124
46
61
15
64
143
110
-12
-80
-64
-88
-177
-180
-99
-119
-194
-110
73
137
140
261
444
530
465
294
142
69
32
65
85
-158
-416
-180
292
475
416
260
144
286
324
-95
-417
-300
-177
-162
-46
18
-20
67
218
223
155
139
158
195
206
114
-14
-39
32
109
141
124
82
5
-109
-149
-97
-111
-181
-211
-287
-371
-368
-508
-702
-396
169
233
34
194
482
523
458
395
262
107
18
-33
-77
-87
-83
-109
-156
-191
-138
18
126
226
520
654
212
-281
-268
-92
-90
-129
-173
-220
-156
-42
-19
-87
-173
-182
-116
-131
-246
-265
-139
-38
-65
-113
-46
92
176
181
144
74
1
-15
40
122
203
312
426
514
676
907
1020
1167
1583
1781
1233
360
-225
-508
-628
-634
-669
-786
-927
-1094
-1243
-1258
-1124
-949
-916
-983
-759
-215
113
43
-124
-250
-220
115
470
496
339
241
190
135
81
5
-77
-95
-43
-37
-122
-158
-65
26
7
-77
-106
15
199
270
229
168
61
-81
-121
-46
16
32
22
-89
-269
-301
-144
15
122
196
171
91
72
78
44
-9
-48
-50
-41
-66
-79
6
218
463
632
821
986
684
-62
-490
-374
-256
-335
-414
-495
-573
-528
-424
-360
-307
-319
-363
-243
-121
-166
-23
161
-175
-410
34
249
29
279
658
461
275
432
473
424
449
317
118
124
136
-39
-155
-85
-43
-123
-191
-148
-21
63
23
-11
71
140
160
284
475
593
701
837
911
1031
1394
1802
1731
1014
134
-421
-647
-634
-419
-329
-575
-780
-646
-462
-493
-616
-690
-703
-671
-626
-561
-483
-481
-501
-389
-234
-152
-27
139
179
96
-18
-127
-210
-280
-335
-340
-346
-394
-410
-340
-198
-114
-178
-160
-45
-230
-429
-149
13
-145
263
894
679
223
380
613
529
432
423
482
553
533
630
775
412
-247
-412
-187
-133
-184
-130
-68
-60
-33
61
171
197
161
116
3
-104
-45
51
44
89
181
175
221
298
75
-228
-107
182
163
-23
-177
-338
-388
-287
-267
-349
-348
-285
-250
-184
-74
6
66
147
182
100
-30
-104
-90
-73
-193
-382
-427
-427
-527
-448
-156
-57
-3
257
136
-527
-848
-609
-430
-396
-337
-419
-559
-387
94
426
233
-214
-292
42
307
331
299
309
330
320
292
288
286
265
255
225
177
178
162
87
97
173
180
227
384
446
378
372
401
369
388
515
610
565
437
389
432
357
161
28
