# session 34
132
111
91
110
142
135
125
139
147
164
219
263
288
337
363
298
184
71
-25
-96
-177
-246
-230
-201
-249
-290
-254
-198
-139
-72
4
152
385
628
834
1000
1209
1443
1321
616
-151
-451
-485
-547
-576
-550
-556
-559
-555
-609
-677
-691
-701
-742
-785
-824
-864
-864
-795
-700
-634
-564
-428
-246
-71
87
205
242
247
281
277
195
148
165
166
162
180
155
107
134
183
136
64
115
218
201
107
89
129
128
79
28
46
141
191
144
99
93
79
70
81
89
132
239
344
448
653
918
1107
1099
680
-106
-623
-504
-274
-361
-481
-417
-358
-397
-451
-487
-489
-463
-475
-533
-586
-633
-667
-660
-632
-604
-571
-560
-555
-492
-395
-321
-248
-164
-96
-18
85
168
203
212
232
278
347
439
513
520
508
546
599
615
623
653
662
591
454
359
358
359
280
203
185
151
128
202
252
299
575
758
348
-201
-241
-87
-156
-239
-198
-177
-193
-218
-278
-318
-290
-261
-273
-268
-215
-176
-172
-130
-31
52
97
146
213
252
215
124
51
26
10
-53
-179
-294
-314
-280
-276
-263
-195
-152
-181
-195
-153
-95
-32
25
57
72
87
137
244
384
531
654
746
964
1356
1517
1067
327
-116
-203
-251
-355
-399
-348
-292
-297
-298
-231
-193
-283
-408
-464
-506
-605
-697
-721
-739
-795
-811
-732
-593
-454
-353
-228
-28
95
48
16
83
70
-40
-86
-64
-44
-42
-81
-117
-77
-18
-5
5
33
80
158
229
275
282
223
152
130
128
100
37
4
33
2
-39
125
320
353
474
571
177
-346
-339
-65
-25
-108
-129
-106
-4
49
-89
-123
-45
-393
-896
-675
-26
184
90
134
192
191
275
365
380
442
546
540
465
433
374
243
157
132
80
39
39
-16
-65
59
206
148
82
216
312
220
162
181
130
84
122
125
103
174
235
187
229
458
654
702
604
234
-273
-479
-387
-356
-400
-381
-377
-393
-325
-269
-351
-428
-391
-393
-474
-506
-520
-534
-451
-405
-494
-448
-243
-211
-302
-224
-36
71
41
-75
-105
-44
-84
-112
-27
-197
-550
-440
22
200
157
189
218
241
322
333
275
259
237
182
189
230
226
237
244
165
180
391
520
591
865
927
389
-145
-160
-22
-42
-90
-106
-134
-148
-133
-116
-141
-191
-195
-156
-131
-165
-266
-329
-249
-135
-99
-64
15
69
103
147
149
105
62
-13
-116
-167
-179
-208
-244
-271
-269
-215
-185
-224
-210
-105
-80
-158
-163
-100
-134
-208
-167
-90
-91
-111
-136
-182
-110
51
112
238
437
141
-505
-518
43
284
195
222
289
277
297
350
369
358
348
358
351
316
299
263
174
151
223
239
193
212
246
228
250
287
217
99
37
-4
-63
-132
-146
-78
-93
-201
-160
-125
-371
-525
-300
-115
-164
-188
-174
-214
-227
-217
-223
-194
-145
-117
-108
-102
-14
135
188
222
302
106
-370
-576
-425
-315
-276
-186
-175
-238
-215
-155
-145
-141
-114
-79
-71
-83
-4
83
-14
-17
206
39
-459
-284
422
609
397
408
428
251
154
164
109
28
12
38
63
76
78
70
92
168
211
168
173
251
222
148
294
560
642
633
751
927
1163
1579
1846
1467
624
-63
-354
-433
-469
-494
-510
-533
-559
-579
-599
-631
-672
-733
-802
-826
-832
-897
-954
-919
-915
-954
-849
-672
-614
-544
-362
-226
-162
-79
-35
-55
-53
-25
-14
28
90
73
-2
-9
35
54
94
145
107
123
298
206
-265
-376
81
369
279
223
257
283
315
291
300
428
522
680
969
854
226
-131
20
114
18
23
108
120
85
49
31
41
25
-25
-22
18
1
-40
-22
32
63
78
120
180
192
148
114
95
33
-65
-147
-208
-247
-253
-256
-271
-248
-172
-102
-94
-124
-108
-25
9
-54
-96
-89
-127
-152
-85
-68
-147
-156
-136
-171
-73
142
218
281
404
190
-288
-416
-198
-75
-52
-9
-10
11
132
225
226
212
202
189
186
179
174
187
184
151
168
262
323
290
259
300
336
281
148
12
-37
-7
-31
-140
-189
-150
-126
-105
-65
-77
-82
19
83
46
75
76
-131
-245
-57
121
213
407
528
533
799
1179
1016
350
-160
-345
-452
-474
-408
-456
-550
-502
-484
-603
-642
-602
-667
-748
-739
-760
-850
-922
-955
-960
-919
-826
-672
-503
-370
-188
42
120
124
241
139
-277
-316
128
317
212
273
333
202
173
297
289
172
192
328
413
443
415
278
200
293
307
174
191
354
345
193
231
441
518
561
804
839
314
-183
-148
5
-65
-112
-43
-36
-73
-55
-60
-134
-182
-179
-181
-151
-75
-61
-104
-68
25
62
76
125
189
224
172
93
111
121
3
-102
-122
-152
-159
-124
-134
-119
-40
-72
-140
28
177
43
37
164
-165
-517
-81
558
667
673
878
1043
1274
1725
2056
1831
1014
126
-272
-299
-383
-484
-427
-385
-466
-504
-477
-515
-594
-616
-632
-698
-754
-772
-798
-817
-797
-776
-756
-669
-509
-349
-241
-198
-194
-187
-179
-195
-206
-190
-170
-152
-125
-99
-83
-65
-37
-19
-38
-53
-15
46
90
106
54
-42
-37
79
109
8
-44
-21
-22
32
150
180
268
520
457
-39
-271
-44
101
76
147
227
232
280
299
200
157
222
221
144
107
87
75
126
159
125
144
213
230
240
261
243
256
284
189
59
46
40
-44
-82
-60
-50
-16
7
-24
30
92
-115
-369
-295
-116
-106
-128
-137
-194
-205
-143
-115
-154
-142
23
184
182
174
148
-143
-468
-422
-210
-169
-239
-275
-232
-131
-104
-161
-149
-104
-154
-187
-97
-11
2
-4
9
131
327
334
234
348
393
66
-96
174
298
125
59
88
26
-23
-18
-41
-47
25
92
79
119
357
644
765
824
964
1140
1403
1689
1520
750
1
-285
-322
-357
-403
-429
-411
-377
-387
-432
-506
-624
-711
-709
-729
-845
-961
-998
-990
-951
-846
-709
-584
-445
-268
-101
-2
23
29
51
51
14
14
42
-3
-77
-34
81
74
-41
-35
106
121
-7
6
157
150
-11
-38
101
178
147
160
197
124
90
204
112
-222
-174
258
390
318
501
649
652
923
1090
560
-66
-107
53
29
-7
-18
-70
-68
-41
-80
-84
-22
-50
-144
-134
-72
-84
-96
-45
9
57
111
134
132
132
123
113
96
20
-112
-222
-252
-244
-280
-344
-334
-251
-187
-170
-151
-108
-50
-11
-34
-83
-88
-101
-168
-185
-117
-46
-25
-75
-80
109
304
375
525
542
74
-385
-333
-168
-192
-179
-121
-152
-171
-132
-109
-89
-78
-106
-88
-12
16
7
35
58
51
78
141
200
245
271
289
309
281
176
61
3
-15
-18
-2
-17
-83
-91
-14
11
-19
25
109
135
139
132
65
29
93
61
-88
-59
6
-253
-408
-22
312
211
171
202
-145
-533
-457
-213
-180
-234
-194
-117
-139
-238
-236
-145
-156
-217
-194
-189
-207
-112
-22
-18
83
231
219
196
334
462
429
305
186
109
51
-30
-117
-163
-165
-157
-138
-69
25
53
23
39
107
150
143
109
93
138
234
312
353
449
658
882
1049
1285
1716
2104
1914
1016
95
-274
-366
-502
-491
-345
-353
-460
-474
-491
-601
-705
-754
-792
-861
-950
-1012
-1049
-1085
-1099
-1064
-998
-890
-741
-597
-459
-302
-184
-155
-145
-94
-55
-61
-69
-80
-110
-100
-39
-9
-20
-12
32
97
153
167
139
95
79
111
136
120
126
173
184
178
249
354
511
822
938
475
-32
29
242
170
114
205
204
141
158
191
174
134
142
199
184
110
149
222
163
120
221
298
275
274
336
403
400
303
211
185
119
-19
-106
-121
-135
-136
-132
-166
-189
-147
-80
-6
97
227
367
491
585
722
1008
1300
1171
515
-140
-376
-430
-544
-567
-520
-609
-701
-626
-583
-680
-760
-793
-804
-771
-825
-980
-994
-872
-820
-773
-597
-389
-228
-70
63
137
193
239
238
210
201
192
167
159
171
181
202
223
214
187
155
137
183
216
119
24
90
219
280
266
186
112
106
117
105
85
96
156
165
98
156
341
480
664
807
456
-218
-499
-323
-170
-184
-232
-262
-271
-251
-217
-212
-241
-233
-160
-104
-138
-195
-161
-64
-23
-17
51
134
144
120
118
144
177
135
-4
-113
-121
-112
-155
-213
-215
-140
-62
-68
-91
-31
41
38
-1
-18
13
80
111
77
51
70
69
-15
-75
87
333
403
486
652
424
-134
-316
-112
-20
-26
32
65
81
127
125
95
109
108
75
70
63
29
48
106
86
43
99
170
144
108
118
78
-33
-130
-195
-251
-282
-288
-289
-269
-223
-204
-220
-204
-162
-131
-75
-13
-25
-39
21
73
136
314
517
636
790
1125
1505
1513
936
165
-288
-411
-450
-468
-432
-396
-431
-495
-464
-343
-290
-356
-425
-454
-501
-565
-607
-638
-669
-670
-619
-516
-375
-231
-82
73
143
104
114
189
150
64
114
144
32
-4
87
92
35
61
86
33
22
103
169
178
168
114
-1
-71
-44
-34
-99
-121
-61
-55
-74
47
189
206
305
415
130
-318
-346
-109
-64
-141
-119
-67
-90
-135
-139
-144
-171
-144
-92
-131
-168
-54
56
27
50
209
303
294
327
430
516
447
248
205
218
-170
-621
-415
79
133
-25
25
126
114
109
171
215
206
214
231
190
178
280
388
425
475
624
819
956
1151
1619
2068
1846
921
29
-334
-359
-358
-381
-414
-452
-461
-470
-531
-601
-641
-705
-781
-776
-759
-864
-989
-978
-905
-851
-771
-688
-610
-444
-250
-164
-116
-54
-82
-135
-111
-127
-185
-109
-27
-153
-280
-169
-4
15
1
55
107
117
98
50
46
100
78
44
140
125
-29
140
357
22
-178
332
536
3
-238
47
145
34
59
116
97
92
94
65
73
129
146
102
66
96
190
276
306
349
440
472
433
445
471
386
273
258
260
186
68
-37
-88
-93
-115
-160
-182
-178
-163
-130
-92
-81
-94
-107
-129
-168
-177
-128
-95
-111
-120
-143
-188
-102
75
122
217
486
398
-175
-500
-360
-247
-256
-213
-202
-232
-193
-158
-184
-182
-164
-162
-98
-34
-55
-23
25
-100
-156
114
389
410
390
426
387
298
248
198
118
84
109
82
-11
-24
64
98
20
-42
20
142
150
37
-2
52
2
-100
-55
9
-57
-89
-38
-18
38
123
143
253
367
35
-514
-598
-338
-259
-312
-288
-254
-233
-199
-191
-186
-145
-109
-121
-155
-144
-93
-87
-117
-110
-96
-66
38
122
118
123
141
94
34
9
-47
-146
-182
-124
-104
-145
-76
25
-58
-89
71
-54
-425
-322
143
264
119
110
150
117
133
215
199
93
179
446
540
564
721
564
-30
-339
-138
41
12
2
50
46
-14
-40
-13
-14
-39
-1
47
11
-19
35
66
53
98
154
141
164
251
235
82
-54
-117
-156
-185
-217
-255
-255
-244
-248
-200
-133
-154
-180
-118
-54
-41
-42
-76
-144
-159
-97
-73
-128
-93
62
107
88
284
541
649
796
806
275
-328
-342
-129
-262
-491
-388
-119
-13
-32
-14
16
3
-13
0
13
4
-1
10
5
-4
55
155
182
136
122
158
157
104
59
40
25
1
-52
-114
-121
-88
-79
-89
-70
-21
23
45
51
18
-63
-134
-167
-190
-208
-222
-223
-179
-166
-191
-80
104
130
108
99
-130
-414
-371
-189
-174
-183
-114
-118
-201
-226
-176
-136
-153
-183
-155
-101
-79
-55
-7
26
71
143
192
232
287
315
297
225
115
90
168
178
110
95
105
78
86
144
174
167
179
208
222
231
235
211
163
107
75
105
150
143
119
121
178
318
399
397
590
787
433
-176
-345
-239
-259
-267
-201
-242
-341
-360
-343
-362
-401
-404
-359
-342
-390
-409
-357
-314
-297
-242
-147
-58
-8
-4
11
71
57
-92
-209
-160
-81
-150
-280
-254
-122
-97
-124
-58
20
54
124
176
132
77
59
105
202
157
115
398
368
-403
-577
506
1404
1533
1614
1327
387
-184
-81
-82
-250
-199
-111
-168
-203
-178
-183
-218
-282
-362
-398
-404
-427
-454
-458
-450
-431
-372
-276
-188
-83
74
189
180
131
132
123
50
-8
-23
-77
-137
-91
-30
-81
-139
-78
28
72
55
31
43
64
52
51
50
-5
-28
6
-8
35
183
250
397
706
545
-143
-427
-163
-37
-95
-52
-14
-39
-71
-111
-52
61
-40
-166
20
88
-317
-489
-23
354
304
309
460
495
471
470
396
271
196
170
145
104
59
39
19
-26
-19
47
43
30
197
407
448
463
615
791
935
1115
1250
1129
675
88
-310
-444
-530
-645
-669
-624
-645
-723
-798
-873
-935
-964
-972
-971
-992
-1046
-1066
-1022
-955
-839
-652
-492
-392
-267
-118
-15
8
-41
-87
-81
-69
-65
-64
-105
-144
-109
-64
-59
-37
8
17
-3
-17
-7
38
76
47
13
81
196
218
194
259
336
290
222
237
253
253
259
191
155
327
521
642
849
807
188
-331
-190
63
19
-4
68
34
19
99
90
17
27
47
28
57
113
154
208
228
203
243
313
295
286
344
308
158
61
35
2
-47
-87
-81
-48
-77
-98
-3
32
-82
-57
146
186
79
113
198
167
193
411
663
773
777
935
1393
1750
1453
650
15
-168
-171
-248
-344
-377
-460
-625
-646
-488
-417
-499
-560
-580
-649
-741
-783
-795
-830
-847
-760
-606
-477
-367
-244
-150
-109
-87
-80
-97
-111
-117
-145
-182
-192
-175
