# session 30
-4
66
84
63
32
-11
-47
-52
-61
-78
-42
19
26
13
35
57
64
78
97
117
130
116
113
148
149
105
88
99
86
49
21
22
32
7
-36
-36
4
39
54
42
14
-6
-15
-22
-21
-9
3
4
9
36
41
10
61
198
267
348
493
337
-134
-331
-140
-28
-82
-90
-72
-84
-77
-68
-84
-88
-77
-72
-78
-83
-78
-66
-48
-21
11
32
57
123
212
262
268
268
246
182
100
20
-46
-86
-114
-144
-161
-158
-152
-153
-155
-149
-133
-118
-115
-116
-115
-123
-135
-141
-147
-162
-174
-165
-145
-136
-132
-108
-69
-49
-59
-81
-99
-100
-86
-77
-76
-68
-59
-48
-22
-31
-83
-29
132
214
328
587
526
-23
-376
-224
-70
-122
-138
-88
-71
-56
-27
-16
-12
-8
-13
-13
7
42
77
113
158
199
246
325
410
458
493
533
519
437
357
299
200
62
-30
-47
-33
-23
-48
-108
-129
-88
-54
-58
-74
-94
-112
-109
-88
-79
-96
-111
-106
-101
-111
-120
-123
-119
-92
-50
-30
-38
-51
-72
-92
-91
-84
-87
-95
-97
-75
-80
-150
-117
99
259
336
474
360
-164
-482
-296
-115
-165
-177
-120
-123
-136
-121
-125
-131
-118
-112
-115
-109
-95
-79
-62
-43
-5
58
128
201
282
350
367
348
316
253
148
47
-33
-108
-152
-162
-190
-222
-193
-148
-161
-178
-139
-91
-82
-81
-70
-67
-76
-77
-77
-86
-83
-64
-60
-60
-19
56
110
103
50
24
48
64
54
49
47
30
3
8
33
-8
-44
72
199
270
513
701
332
-229
-299
-86
-55
-105
-75
-48
-45
-35
-47
-62
-46
-34
-42
-44
-32
-2
43
74
84
114
174
228
272
324
352
334
298
254
161
22
-99
-162
-189
-212
-240
-250
-234
-234
-236
-191
-109
-24
50
145
393
770
990
1067
1282
1373
889
165
-227
-333
-397
-421
-413
-427
-436
-437
-463
-499
-525
-541
-548
-566
-607
-626
-609
-595
-586
-548
-469
-353
-202
-49
75
159
200
202
180
145
111
91
82
70
58
60
78
87
75
64
73
78
67
69
91
94
81
84
91
82
78
84
82
71
64
71
87
93
79
62
56
50
37
27
25
24
15
-6
-21
-16
4
21
26
31
43
50
56
71
77
57
34
33
42
40
26
9
4
8
1
-17
-19
-13
-30
-50
-45
-40
-46
-43
-53
-90
-113
-109
-113
-115
-99
-95
-123
-144
-107
-40
-18
-36
-37
-31
-41
-42
-35
-38
-34
-30
-29
-20
-48
-50
108
296
379
473
443
36
-366
-322
-122
-108
-149
-140
-144
-143
-126
-129
-126
-100
-97
-107
-76
-33
-32
-30
9
44
79
150
216
249
292
344
366
352
311
256
210
158
72
-21
-80
-99
-96
-94
-101
-114
-137
-138
-78
13
86
160
287
518
824
1070
1267
1571
1797
1521
792
107
-258
-386
-416
-439
-480
-483
-420
-374
-401
-458
-505
-557
-611
-650
-691
-753
-803
-822
-822
-791
-695
-540
-356
-162
19
154
227
233
188
136
98
60
31
32
41
43
46
33
23
48
62
30
1
-5
-20
-16
16
6
-52
-74
-55
-65
-84
-70
-55
-59
-52
-43
-52
-47
-14
12
16
7
3
11
18
11
2
-1
0
6
6
1
9
13
-1
-9
-9
-23
-31
-19
-20
-37
-41
-50
-80
-92
-65
-48
-81
-105
-50
37
70
57
44
28
11
6
10
20
23
-1
5
45
26
24
172
326
447
722
853
416
-125
-167
12
22
-11
6
-1
-11
-2
-1
-9
-15
-3
23
22
3
7
17
17
31
60
93
144
203
242
266
289
298
277
243
213
169
100
35
-7
-47
-85
-94
-89
-90
-78
-57
-59
-68
-61
-49
-30
-6
28
105
207
322
541
802
906
949
1075
1002
532
10
-270
-404
-477
-465
-421
-408
-417
-443
-481
-514
-540
-564
-590
-626
-660
-672
-682
-715
-729
-681
-593
-490
-349
-179
-27
91
175
201
166
110
52
-6
-31
-30
-52
-86
-83
-65
-70
-73
-55
-40
-30
-13
-3
2
16
25
18
18
33
43
40
27
18
23
25
10
12
42
40
4
11
50
59
50
57
68
77
90
104
103
80
66
84
101
100
92
82
82
87
60
39
76
97
46
14
54
107
132
129
104
78
71
70
74
93
110
102
108
127
82
56
210
405
498
655
732
322
-239
-316
-107
-74
-128
-98
-77
-106
-123
-122
-119
-115
-107
-101
-105
-121
-124
-96
-58
-27
16
73
119
163
231
299
321
295
247
183
121
78
17
-88
-174
-197
-205
-229
-240
-226
-200
-179
-188
-216
-198
-130
-104
-95
-3
108
213
459
761
893
991
1210
1253
866
264
-212
-419
-416
-370
-383
-423
-454
-482
-509
-528
-543
-556
-574
-623
-702
-760
-785
-823
-876
-885
-820
-698
-560
-417
-229
-18
129
202
237
232
217
218
197
160
163
172
154
157
186
213
248
275
309
475
762
949
1020
1166
1289
1127
770
452
199
20
-50
-95
-161
-192
-193
-204
-215
-229
-254
-269
-278
-310
-356
-393
-428
-478
-538
-581
-593
-585
-564
-529
-471
-381
-278
-195
-131
-44
61
117
111
96
87
71
59
54
60
94
115
92
84
112
136
190
299
402
454
478
585
882
1249
1509
1605
1320
558
-133
-293
-232
-280
-319
-293
-304
-342
-360
-381
-416
-458
-497
-537
-594
-651
-677
-697
-722
-707
-636
-541
-433
-315
-195
-76
19
78
113
121
133
206
286
360
578
892
1165
1522
1796
1430
592
49
-89
-177
-242
-232
-252
-292
-290
-276
-282
-302
-319
-318
-322
-356
-396
-415
-415
-383
-299
-186
-83
3
74
113
108
77
42
10
-9
3
30
40
33
37
52
79
122
159
166
167
177
169
138
113
99
88
79
69
67
84
93
72
43
34
32
-5
-59
-64
-47
-81
-119
-95
-86
-136
-156
-113
-82
-87
-88
-75
-60
-45
-34
-38
-48
-50
-48
-55
-67
-77
-91
-105
-112
-114
-129
-157
-169
-154
-152
-183
-199
-159
-104
-93
-121
-153
-170
-171
-168
-170
-161
-138
-142
-151
-108
-96
-139
-50
153
287
470
642
342
-253
-418
-203
-128
-176
-158
-141
-144
-132
-135
-121
-51
18
52
73
104
152
200
239
290
351
416
492
547
545
530
533
522
485
443
396
333
265
199
126
45
-14
-24
-15
-25
-45
-56
-40
31
135
216
318
550
870
1097
1225
1417
1549
1231
487
-163
-428
-469
-455
-419
-413
-454
-508
-557
-584
-603
-653
-701
-726
-800
-905
-954
-972
-994
-968
-874
-712
-498
-321
-205
-71
56
89
65
46
9
-37
-47
-51
-66
-60
-55
-68
-45
0
3
-3
24
39
30
24
20
13
12
13
7
-6
-16
-18
-15
-7
2
-4
-4
24
42
29
29
38
32
38
62
59
35
24
32
46
36
-1
4
55
51
-15
-23
48
109
134
148
142
120
108
108
102
108
133
137
122
141
138
80
145
361
512
667
875
693
96
-211
-74
0
-74
-76
-61
-95
-99
-81
-80
-75
-67
-66
-53
-29
-17
-4
33
80
112
144
193
238
270
304
325
308
274
237
178
103
37
-26
-95
-156
-184
-175
-170
-208
-245
-234
-205
-198
-218
-255
-257
-205
-185
-221
-227
-201
-199
-201
-181
-162
-135
-94
-88
-113
-106
-77
-74
-70
-49
-47
-58
-57
-41
-21
-46
-71
27
178
266
397
447
100
-356
-392
-180
-117
-136
-107
-105
-126
-113
-92
-80
-66
-57
-45
-25
-14
-7
19
48
70
109
166
214
253
301
344
355
338
308
253
163
74
17
-14
-40
-68
-87
-81
-59
-49
-51
-49
-42
-30
-11
-4
-18
-31
-29
-22
-18
-22
-24
1
42
56
32
-3
-28
-39
-35
-23
-23
-23
-5
2
-8
5
0
-21
72
225
281
369
471
220
-248
-346
-127
-47
-102
-106
-102
-118
-106
-101
-116
-110
-113
-150
-153
-104
-70
-66
-50
-13
32
93
172
248
309
347
349
327
290
216
103
-3
-78
-131
-155
-151
-153
-172
-184
-182
-174
-168
-165
-162
-166
-173
-159
-147
-179
-216
-206
-168
-135
-129
-157
-153
-81
-19
-10
-20
-44
-85
-96
-81
-74
-56
-37
-65
-87
-51
-52
-74
50
237
365
558
624
200
-323
-358
-156
-125
-132
-68
-53
-81
-101
-106
-55
2
-30
-74
-43
-11
0
59
124
132
162
269
377
432
465
492
492
450
361
248
141
52
-12
-47
-72
-101
-112
-107
-106
-99
-83
-67
-5
120
247
427
735
1020
1199
1473
1793
1700
1026
188
-339
-470
-441
-458
-514
-545
-572
-610
-630
-652
-699
-727
-745
-816
-904
-935
-951
-987
-970
-875
-767
-648
-467
-262
-102
19
114
150
137
116
96
83
84
74
59
75
96
88
88
118
141
160
254
474
741
942
1108
1281
1299
1055
744
527
333
107
-96
-227
-277
-273
-276
-306
-332
-345
-370
-412
-457
-501
-543
-588
-644
-703
-733
-739
-737
-702
-631
-547
-424
-255
-116
-36
42
123
168
187
213
236
259
318
378
365
313
297
294
266
240
234
224
206
192
184
181
172
158
172
183
155
192
337
447
500
502
261
-126
-222
-33
60
32
46
54
18
8
14
8
9
7
0
9
17
-2
-11
11
43
76
119
169
216
251
275
287
261
177
63
-39
-107
-141
-176
-232
-257
-225
-194
-185
-167
-150
-156
-162
-157
-156
-164
-173
-182
-183
-175
-173
-180
-168
-131
-111
-138
-187
-213
-204
-194
-205
-216
-195
-164
-165
-176
-143
-127
-165
-111
58
160
268
454
327
-189
-461
-281
-136
-183
-195
-158
-153
-146
-127
-113
-99
-94
-91
-65
-27
-5
17
59
102
132
177
238
294
348
398
417
403
370
313
227
147
95
45
-15
-48
-30
14
66
115
208
448
799
1067
1276
1645
2003
1824
1020
159
-288
-407
-445
-459
-480
-536
-553
-532
-570
-625
-617
-611
-645
-681
-738
-818
-851
-826
-787
-708
-542
-319
-120
7
66
93
116
117
62
-3
-10
7
-6
-5
27
19
-14
19
75
60
34
79
112
84
97
173
264
464
761
903
928
1079
1177
999
788
635
310
-80
-253
-286
-324
-340
-340
-358
-375
-392
-413
-428
-445
-473
-501
-529
-566
-615
-667
-699
-705
-693
-653
-585
-509
-418
-300
-194
-129
-75
-20
28
64
86
94
112
145
167
165
172
225
298
324
295
264
257
256
244
229
232
233
193
148
153
163
140
138
133
95
155
311
398
498
614
391
-84
-227
-23
75
32
42
69
49
25
15
12
16
17
15
16
23
37
46
44
63
118
178
232
287
323
323
299
241
133
19
-61
-135
-222
-273
-273
-274
-289
-288
-269
-258
-255
-241
-215
-203
-202
-187
-157
-142
-160
-184
-180
-156
-134
-119
-118
-131
-117
-62
-30
-53
-83
-89
-100
-121
-125
-118
-109
-84
-69
-82
-71
-57
-80
-22
140
263
391
508
286
-190
-342
-141
-41
-83
-62
-27
-47
-54
-39
-40
-38
-22
-4
12
30
52
75
102
147
193
223
269
335
375
379
374
362
331
280
211
138
73
17
-26
-49
-64
-73
-77
-81
-83
-81
-80
-75
-65
-61
-45
-9
22
72
173
284
418
644
836
903
1038
1223
1062
529
56
-177
-297
-351
-349
-346
-343
-338
-358
-395
-450
-535
-600
-627
-678
-747
-780
-803
-837
-833
-765
-648
-496
-339
-192
-50
70
134
149
142
118
84
59
47
41
38
47
58
59
53
60
74
77
77
84
81
62
53
64
72
67
63
54
35
27
35
32
16
8
17
31
26
-2
-1
38
33
-16
5
70
61
13
8
4
-9
23
51
21
6
29
10
-26
-2
28
9
-15
-16
-7
-9
-33
-22
72
152
129
70
49
56
75
84
63
46
58
82
96
67
10
76
276
415
530
693
540
-2
-309
-150
3
-35
-61
-50
-63
-66
-64
-81
-87
-72
-62
-56
-43
-29
-26
-19
14
59
95
126
154
178
220
265
249
190
164
143
62
-36
-97
-152
-211
-241
-270
-312
-317
-271
-217
-141
-19
118
325
675
1016
1212
1437
1646
1373
587
-109
-390
-464
-510
-530
-531
-529
-531
-542
-535
-511
-516
-564
-633
-709
-758
-773
-781
-772
-708
-594
-454
-307
-170
-46
57
120
140
128
103
90
85
57
25
34
59
58
53
66
69
51
46
69
89
79
62
62
77
91
94
91
103
115
104
95
104
98
92
112
114
80
64
77
73
53
43
36
22
13
18
28
31
34
49
72
83
88
94
96
90
91
90
75
71
86
88
79
84
86
64
33
18
40
57
22
7
72
116
70
15
-2
-22
-41
-57
-90
-119
-126
-131
-127
-131
-154
-106
33
165
300
351
65
-362
-432
-216
-116
-128
-97
-78
-93
-86
-77
-87
-87
-74
-69
-74
-76
-67
-51
-41
-35
-22
-1
31
77
125
165
197
212
200
169
136
100
54
7
-31
-55
-60
-61
-87
-120
-114
-87
-78
-87
-87
-65
-34
-8
49
161
268
405
681
950
1018
1093
1302
1250
725
137
-153
-229
-258
-289
-330
-375
-398
-388
-377
-395
-429
-466
-512
-568
-617
-647
-673
-718
-762
-755
-679
-541
-361
-180
-30
108
234
305
306
274
234
180
127
115
123
111
101
108
101
97
124
153
156
128
84
91
143
141
92
78
84
75
62
54
57
54
22
-2
12
10
-23
-28
-1
11
0
-11
-18
-10
28
69
80
75
87
100
81
46
32
36
34
16
-12
