# session 27
-14
-75
-130
-156
-151
-134
-70
81
260
379
457
533
564
523
452
396
382
402
409
393
386
386
378
366
359
357
354
347
336
321
300
280
264
248
227
209
201
195
177
155
138
132
145
138
83
58
117
175
170
144
128
109
90
83
75
48
31
49
26
-26
56
225
338
526
696
403
-167
-348
-169
-102
-164
-168
-142
-139
-141
-140
-134
-142
-154
-137
-109
-93
-60
-3
41
80
132
175
183
170
144
83
-9
-95
-162
-227
-278
-296
-299
-313
-320
-298
-274
-264
-241
-216
-211
-206
-198
-214
-229
-203
-174
-191
-213
-178
-115
-84
-88
-105
-126
-153
-184
-186
-147
-137
-167
-158
-141
-149
-81
24
69
192
300
30
-390
-422
-217
-174
-207
-158
-116
-112
-96
-77
-64
-41
-13
11
30
65
125
181
225
288
359
394
403
399
365
308
235
139
43
-16
-42
-53
-56
-54
-45
-25
-11
-15
-19
-9
-3
1
22
39
44
96
206
307
435
659
872
1008
1184
1333
1177
718
240
-87
-249
-291
-303
-325
-336
-353
-396
-436
-475
-544
-618
-666
-713
-775
-819
-816
-763
-656
-496
-307
-124
21
121
170
169
149
139
123
98
90
86
78
89
96
69
53
75
88
79
75
77
93
117
102
61
52
65
72
88
90
54
25
24
33
57
83
76
33
-23
-36
23
50
-20
-56
12
73
91
95
53
10
30
34
1
1
12
34
69
25
18
224
405
405
446
384
-30
-361
-262
-84
-82
-123
-133
-117
-107
-146
-151
-90
-88
-130
-93
-30
-20
8
93
168
215
283
350
365
337
281
198
103
-3
-104
-156
-186
-231
-252
-251
-264
-243
-198
-206
-219
-169
-138
-164
-158
-133
-158
-177
-132
-101
-144
-189
-158
-69
21
73
63
12
-16
-10
-14
-19
-4
-3
-15
-34
-73
-28
151
284
349
426
255
-198
-392
-194
-64
-110
-107
-70
-80
-73
-50
-60
-70
-49
-18
6
17
30
79
161
234
294
346
371
373
369
318
198
82
19
-46
-137
-201
-205
-184
-180
-191
-185
-156
-128
-113
-93
-58
-31
-28
13
135
262
386
634
965
1239
1539
1853
1798
1210
459
-79
-345
-426
-445
-483
-519
-535
-561
-596
-629
-680
-746
-798
-833
-873
-915
-923
-878
-787
-648
-468
-294
-147
-16
72
87
67
52
43
34
17
-5
8
58
83
72
73
96
114
129
143
144
139
147
149
131
111
103
103
106
108
116
127
123
102
90
97
96
76
58
49
36
18
18
37
40
30
58
121
151
135
114
103
86
69
73
93
89
72
80
67
39
111
233
314
447
490
141
-293
-322
-143
-123
-161
-129
-115
-148
-171
-170
-159
-149
-133
-113
-107
-93
-45
3
38
96
182
259
297
284
244
202
152
83
1
-78
-134
-164
-184
-201
-206
-202
-211
-213
-191
-183
-190
-161
-123
-140
-173
-171
-152
-141
-147
-142
-88
-29
-18
-29
-45
-73
-83
-83
-98
-99
-75
-35
-7
-69
-120
44
269
364
513
600
206
-331
-370
-136
-104
-148
-83
-32
-60
-80
-47
-10
-18
-35
1
81
116
85
98
218
345
402
446
512
549
504
370
227
139
59
-33
-75
-93
-146
-163
-119
-116
-138
-84
-25
-50
-74
-42
-26
-50
-59
-7
109
206
263
443
762
988
1132
1405
1619
1390
772
124
-313
-478
-473
-473
-521
-536
-518
-537
-576
-599
-644
-715
-776
-840
-903
-929
-926
-897
-811
-667
-491
-313
-164
-55
20
54
59
55
36
17
27
45
41
37
46
52
55
62
64
62
68
73
66
58
59
53
33
30
51
64
53
44
53
53
30
11
19
33
21
-9
-10
43
111
154
161
123
61
43
60
69
79
92
99
101
83
101
228
346
458
734
852
400
-153
-207
-38
-42
-89
-63
-48
-45
-29
-30
-39
-29
-17
-13
-6
5
26
64
117
169
217
268
313
319
275
218
160
83
-4
-73
-125
-160
-173
-180
-187
-174
-154
-157
-158
-136
-125
-133
-129
-130
-164
-194
-179
-138
-128
-157
-156
-105
-73
-80
-81
-87
-123
-149
-138
-115
-108
-113
-90
-51
-64
-63
52
162
214
344
370
31
-316
-269
-90
-77
-102
-75
-69
-78
-71
-70
-64
-50
-54
-59
-40
-20
-10
27
109
197
264
314
341
330
300
255
167
63
-10
-68
-136
-175
-160
-137
-150
-175
-171
-151
-153
-155
-130
-111
-112
-107
-90
-51
5
54
128
281
509
780
999
1094
1212
1485
1658
1359
653
5
-263
-290
-338
-396
-374
-355
-412
-468
-473
-494
-571
-649
-692
-718
-752
-798
-828
-793
-694
-563
-407
-235
-71
65
150
169
137
104
100
94
67
59
71
57
39
56
80
85
76
51
36
63
93
77
40
40
88
92
-2
-76
-42
7
12
8
-28
-91
-78
-10
-20
-81
-61
32
100
116
114
106
88
79
91
96
64
37
64
73
17
64
249
337
358
460
330
-136
-375
-212
-98
-135
-110
-77
-106
-101
-59
-50
-71
-85
-75
-45
-20
-9
17
77
139
187
243
298
320
315
284
213
126
51
-26
-91
-108
-113
-143
-157
-132
-116
-130
-128
-107
-108
-112
-90
-87
-122
-131
-85
-39
-53
-102
-104
-36
30
42
16
-23
-50
-54
-52
-44
-31
-39
-33
-3
-33
-40
112
252
299
461
520
116
-311
-269
-95
-121
-157
-111
-97
-110
-107
-101
-93
-86
-86
-73
-44
-20
9
64
131
191
252
303
321
318
292
207
88
-8
-93
-178
-221
-212
-194
-194
-198
-178
-130
-98
-102
-97
-69
-42
-28
-22
10
107
217
322
534
836
1075
1280
1520
1565
1181
522
-54
-348
-421
-435
-462
-478
-481
-511
-561
-599
-624
-659
-707
-760
-808
-839
-845
-825
-768
-645
-449
-251
-114
-3
121
194
172
123
109
110
98
90
100
113
117
116
118
126
131
116
99
111
135
145
140
124
107
104
105
93
84
84
79
72
74
73
57
45
51
61
64
64
64
62
52
33
26
46
63
54
54
96
141
140
96
48
27
28
31
37
30
7
11
8
-47
-21
133
247
351
476
269
-257
-475
-265
-131
-189
-199
-152
-139
-140
-134
-119
-97
-89
-85
-53
-7
26
55
94
156
233
292
328
365
380
337
272
206
107
-4
-80
-140
-191
-208
-216
-228
-211
-190
-202
-211
-198
-181
-143
-112
-139
-166
-148
-152
-180
-165
-150
-187
-187
-102
-30
-32
-66
-104
-131
-116
-90
-84
-79
-71
-56
-42
-47
16
184
314
434
590
426
-113
-390
-201
-53
-104
-92
-25
-34
-44
-14
-23
-56
-33
26
39
16
55
162
214
221
325
487
535
491
477
476
392
228
74
-7
-41
-89
-148
-170
-158
-159
-162
-128
-93
-103
-125
-104
-58
-26
12
88
174
298
543
799
925
1096
1426
1569
1229
601
13
-368
-511
-536
-563
-564
-538
-568
-623
-623
-621
-667
-712
-748
-814
-880
-913
-921
-884
-776
-614
-424
-222
-33
104
160
141
94
61
44
33
23
19
27
40
45
41
42
48
43
40
51
56
48
46
57
57
42
41
63
74
62
61
74
66
44
47
70
76
76
95
114
100
71
60
83
107
92
83
134
175
159
159
187
178
144
139
146
132
116
127
115
50
69
212
307
390
573
505
22
-303
-169
-8
-34
-46
-21
-42
-55
-40
-39
-42
-29
-17
-10
5
20
29
54
109
166
209
249
265
241
215
192
141
64
-27
-117
-175
-213
-254
-276
-265
-253
-246
-224
-201
-209
-219
-184
-143
-156
-169
-130
-103
-127
-142
-119
-86
-62
-54
-49
-18
29
49
38
13
-22
-37
-27
-31
-49
-55
-51
-41
-52
-87
-47
74
141
186
229
29
-356
-468
-284
-175
-190
-172
-146
-151
-143
-128
-125
-114
-87
-66
-54
-35
4
52
91
135
206
289
349
379
384
357
285
188
100
24
-37
-66
-78
-99
-113
-99
-71
-49
-47
-51
-36
-13
-5
20
74
119
161
238
330
443
659
909
1016
1066
1255
1372
1058
442
-36
-237
-314
-356
-364
-370
-402
-443
-477
-528
-598
-639
-661
-743
-842
-862
-851
-860
-817
-708
-569
-379
-172
-14
104
190
241
276
262
201
172
163
124
94
85
76
86
84
46
42
79
94
98
105
100
108
127
118
106
119
131
121
101
92
99
96
77
54
24
16
66
101
38
-44
-19
57
37
-56
-81
-19
10
-53
-117
-69
48
100
67
16
-24
-47
-52
-50
-47
-49
-46
-58
-108
-70
114
254
351
531
467
-32
-394
-248
11
104
156
203
200
189
177
152
145
143
102
67
80
94
84
105
184
277
350
392
398
370
312
227
124
21
-75
-158
-223
-271
-306
-327
-335
-340
-345
-345
-336
-323
-310
-308
-320
-321
-302
-282
-266
-259
-269
-269
-246
-253
-316
-363
-339
-277
-239
-263
-334
-378
-379
-396
-421
-400
-383
-406
-403
-411
-451
-368
-192
-122
-67
-8
-247
-652
-722
-530
-460
-471
-402
-314
-243
-139
-5
131
274
433
599
758
905
1042
1190
1356
1520
1664
1790
1883
1890
1774
1565
1309
1035
786
591
417
260
164
104
23
-49
-82
-107
-136
-160
-189
-213
-230
-260
-281
-278
-300
-334
-333
-346
-397
-402
-351
-342
-374
-353
-278
-221
-205
-219
-245
-265
-273
-276
-265
-254
-250
-217
-179
-216
-236
-115
3
88
304
367
-55
-495
-469
-300
-304
-319
-278
-271
-268
-243
-232
-216
-183
-168
-162
-132
-94
-67
-27
33
83
131
202
262
275
263
240
193
109
-9
-116
-168
-183
-196
-203
-202
-207
-208
-185
-161
-164
-174
-177
-192
-195
-148
-106
-112
-116
-99
-92
-81
-50
-19
0
15
25
31
30
22
27
53
73
78
102
144
163
145
111
81
64
55
46
46
41
18
20
25
-20
3
137
215
289
448
331
-151
-402
-221
-73
-99
-86
-45
-49
-59
-67
-60
-19
-6
-38
-36
10
47
69
102
173
273
338
369
436
492
456
409
403
329
173
61
12
-28
-41
-20
-29
-68
-73
-27
15
21
26
90
202
313
467
731
985
1099
1224
1469
1492
977
226
-257
-410
-457
-492
-511
-518
-498
-461
-455
-493
-576
-687
-767
-811
-873
-945
-974
-949
-869
-731
-542
-318
-120
-2
65
106
85
5
-58
-75
-81
-104
-129
-121
-96
-85
-54
23
82
108
150
207
243
249
228
196
175
156
130
117
109
88
73
67
54
36
19
10
14
15
-3
-12
0
-2
-19
-20
-13
-14
-19
-25
-33
-35
-37
-39
-16
16
13
-11
-10
-1
-6
-1
10
4
-10
-9
-9
-23
-41
-45
-16
42
96
123
123
104
85
81
70
38
28
50
43
29
60
52
13
113
273
330
444
549
243
-246
-333
-160
-143
-194
-159
-135
-146
-135
-118
-108
-94
-83
-71
-53
-39
-22
10
57
117
174
219
267
314
326
293
238
172
102
35
-36
-108
-167
-205
-213
-212
-237
-251
-209
-173
-189
-186
-152
-166
-204
-189
-163
-165
-144
-94
-36
48
141
252
473
735
859
1004
1435
1832
1640
916
196
-220
-389
-449
-482
-517
-555
-581
-598
-629
-683
-747
-807
-865
-918
-962
-993
-1006
-979
-882
-744
-592
-398
-183
-27
73
173
303
463
566
625
917
1428
1663
1495
1217
805
218
-208
-336
-352
-329
-286
-297
-324
-312
-311
-341
-360
-374
-409
-437
-424
-371
-291
-186
-64
40
118
197
261
252
197
180
187
167
148
162
172
166
171
180
170
161
168
171
170
205
295
389
448
535
686
785
801
895
1014
903
644
505
387
115
-145
-246
-283
-314
-315
-295
-302
-373
-462
-491
-494
-525
-553
-583
-649
-716
-740
-736
-726
-699
-641
-555
-470
-385
-279
-182
-130
-101
-70
-49
-40
-21
2
10
20
52
79
73
58
67
86
82
63
62
68
62
74
110
116
85
58
49
58
84
89
55
26
35
53
47
33
38
46
25
6
38
104
163
191
167
106
70
61
39
17
10
-1
-3
18
56
126
161
99
113
302
441
508
627
488
-23
-300
-111
47
-6
-26
2
-15
-26
-13
-21
-44
-54
-50
-38
-13
22
55
95
162
240
300
341
374
395
385
324
232
146
63
-34
-113
-151
-176
-200
-205
-207
-216
-204
-180
-178
-190
-185
-171
-165
-190
-233
-245
-227
-226
-240
-241
-242
-252
-263
-264
-223
-135
-66
-58
-73
-79
-82
-83
-81
-83
-93
-95
-74
-62
-75
-52
-30
-72
-26
159
287
420
623
465
-94
-372
-219
-127
-169
-144
-126
-159
-138
-92
-93
-108
-99
-65
-22
-2
8
36
76
132
207
268
316
352
344
311
290
220
89
5
-14
-48
-95
-106
-99
-99
-87
-63
-67
-100
-79
8
84
127
157
180
216
283
413
635
827
919
1094
1329
1252
805
324
-12
-216
-296
-322
-370
-417
-432
-447
-496
-563
-606
-639
-699
-773
-819
-834
-840
-835
-767
-604
-409
-241
-73
95
198
234
246
216
129
58
59
75
47
27
48
40
15
27
18
-17
15
65
40
11
33
44
31
30
43
67
89
93
93
97
106
128
132
112
125
151
124
99
118
102
76
119
136
77
53
63
36
23
38
15
-33
-41
-35
-62
-61
30
113
99
57
43
31
6
-25
-38
-24
-24
-44
-57
-62
-55
-36
-23
28
153
341
564
593
199
-271
-321
-138
-120
-166
-107
-79
-125
-112
-70
-94
-100
-41
-18
-40
-16
30
50
81
118
132
170
238
265
243
223
202
151
84
28
-16
-58
