# session 49
-31
-19
56
21
-140
-138
20
13
-96
-48
37
29
62
108
27
-52
-23
-36
-90
-10
48
-144
-341
-257
-60
28
48
51
-76
-371
-560
-426
-198
-138
-143
-76
-11
-32
-75
-57
-33
-63
-56
6
0
-10
116
245
243
263
405
531
538
464
352
222
120
76
28
-40
-26
-9
-132
-143
-2
-221
-627
-445
75
204
128
173
121
-32
-75
-81
-136
-166
-185
-222
-232
-249
-248
-98
68
135
317
428
14
-464
-342
-45
-63
-87
25
41
11
56
85
59
41
91
165
125
89
244
238
-98
-126
297
481
332
256
183
21
-61
-82
-107
-104
-147
-237
-253
-230
-220
-164
-142
-222
-174
79
201
96
96
280
435
540
647
734
976
1410
1501
896
124
-237
-349
-468
-464
-378
-449
-558
-496
-427
-488
-546
-552
-589
-636
-626
-582
-562
-547
-468
-305
-94
97
204
221
194
162
161
186
163
91
68
100
108
98
112
112
65
31
49
71
63
27
-18
-13
43
61
21
-20
-66
-134
-166
-125
-66
-62
-76
-42
-16
-16
45
132
252
498
543
56
-433
-362
-117
-135
-204
-143
-80
-65
-66
-92
-96
-47
-10
0
50
120
129
155
297
367
214
132
306
404
249
107
87
33
-69
-101
-64
-65
-110
-110
-57
-23
-19
-12
23
96
147
95
4
11
72
58
-11
-38
27
128
90
-39
61
322
405
478
644
378
-291
-541
-274
-137
-270
-363
-325
-259
-247
-267
-255
-235
-231
-198
-160
-128
-20
124
177
211
320
357
243
161
151
35
-154
-243
-243
-236
-232
-255
-299
-279
-205
-171
-168
-132
-93
-72
-34
-2
-2
4
-54
-206
-178
15
-156
-583
-538
-129
51
129
319
420
441
417
150
-162
-108
122
129
48
111
134
25
28
116
59
8
135
239
220
216
261
338
444
501
494
491
467
407
352
263
111
-11
-58
-108
-189
-230
-218
-224
-244
-238
-248
-289
-272
-184
-114
-106
-135
-159
-161
-160
-155
-144
-141
-116
-106
-193
-189
25
110
109
445
630
56
-527
-417
-164
-183
-197
-159
-204
-212
-128
-95
-127
-119
-90
-80
-10
124
202
219
260
321
346
323
287
271
227
125
38
18
10
-26
-52
-20
21
-27
-82
2
81
9
-22
75
108
65
49
4
-81
-114
-63
27
29
-45
-23
4
-48
95
281
53
-228
-146
-183
-476
-484
-275
-243
-260
-196
-185
-187
-119
-67
-64
-45
-19
-8
35
72
44
75
234
351
367
391
376
286
245
226
97
-45
-58
-20
-47
-102
-99
-71
-61
38
139
9
5
361
187
-646
-616
477
1072
986
1154
1320
873
194
-202
-354
-399
-367
-358
-403
-385
-352
-449
-533
-483
-507
-652
-707
-669
-675
-669
-554
-387
-251
-98
127
323
364
312
289
279
238
150
33
29
105
-66
-361
-275
26
62
-36
-43
-40
-10
33
-26
-62
5
3
-39
26
81
53
70
82
-27
-88
4
31
-65
-62
39
43
39
193
358
476
650
589
89
-317
-249
-61
-26
-41
-55
-64
-57
-74
-76
-1
81
104
113
149
191
213
238
306
392
434
421
378
326
268
179
74
6
-40
-71
-26
52
30
-53
-53
8
3
-54
-43
34
67
50
64
81
17
-92
-138
-120
-123
-132
-90
-60
-18
163
329
252
69
-104
-357
-517
-418
-302
-319
-305
-227
-215
-293
-340
-283
-253
-324
-318
-208
-218
-313
-266
-134
-103
-90
28
131
114
75
66
15
-68
-112
-106
-76
-35
-8
-11
1
50
73
38
24
69
107
110
109
99
79
71
57
53
75
61
50
106
78
2
165
389
417
555
731
350
-270
-343
-139
-194
-245
-106
-76
-165
-137
-54
-51
-79
-77
-67
-61
-25
44
87
99
170
275
290
229
162
63
-43
-87
-112
-155
-165
-153
-171
-192
-165
-132
-150
-147
-32
123
248
421
642
780
864
1073
1304
1108
401
-252
-467
-482
-520
-526
-508
-528
-533
-510
-545
-605
-605
-695
-953
-1027
-749
-502
-466
-400
-236
-59
142
286
284
251
271
268
199
148
210
340
433
570
834
1089
1307
1633
1933
1876
1375
627
-27
-337
-399
-417
-410
-393
-449
-514
-495
-485
-585
-727
-822
-879
-909
-873
-770
-648
-510
-340
-181
-88
-40
-4
9
0
0
2
-18
-30
-3
34
49
56
61
43
11
8
34
36
10
23
73
61
-4
3
60
32
-25
18
61
2
-19
55
97
105
153
166
114
90
88
56
49
88
99
70
76
142
195
183
158
163
152
100
77
122
154
100
24
46
144
194
292
620
844
483
-128
-344
-257
-201
-135
-72
-124
-180
-166
-171
-201
-220
-236
-215
-163
-146
-137
-56
47
98
138
192
212
207
210
165
24
-106
-125
-130
-228
-275
-151
-69
-218
-363
-239
-54
-77
-61
107
-100
-706
-832
-315
14
-78
-108
-18
-81
-134
57
47
-460
-684
-125
427
359
-18
-310
-319
-104
-5
-17
77
89
-24
55
195
102
42
188
218
116
181
326
357
404
551
659
681
686
662
527
312
178
155
112
43
32
37
2
-55
-128
-114
29
-21
-398
-546
-193
118
124
167
334
448
488
545
763
1073
1102
741
238
-230
-477
-410
-358
-533
-619
-482
-457
-636
-733
-673
-650
-724
-811
-847
-810
-741
-698
-655
-515
-284
-92
10
96
141
97
43
-48
-240
-303
-97
94
79
17
33
78
110
126
120
97
102
138
135
102
136
222
267
274
276
250
236
304
361
314
293
365
366
352
504
616
628
942
1284
881
70
-237
-128
-129
-226
-267
-274
-258
-256
-321
-395
-418
-422
-427
-419
-403
-368
-295
-214
-145
-70
-19
-36
-71
-83
-120
-173
-181
-173
-193
-203
-176
-155
-165
-155
-74
8
-14
-73
-28
60
32
-62
-52
34
30
-45
-46
28
91
108
79
86
172
238
375
682
723
231
-180
-83
110
120
124
157
147
152
181
186
192
197
152
92
91
108
83
94
187
235
197
223
321
315
209
121
16
-90
-88
-147
-393
-498
-334
-236
-270
-238
-203
-234
-216
-159
-130
-111
-127
-192
-206
-149
-118
-142
-162
-141
-116
-96
-17
67
128
356
548
144
-521
-580
-220
-152
-275
-246
-184
-174
-135
-111
-103
-70
-119
-132
59
5
-461
-490
149
535
426
376
427
380
318
238
111
46
33
4
-17
-48
-86
-42
15
-64
-142
-27
125
139
127
142
93
32
51
85
80
66
69
69
33
39
180
287
275
341
279
-238
-669
-484
-189
-212
-258
-202
-194
-159
-70
-79
-147
-87
36
33
-40
-24
43
115
226
300
293
311
330
255
163
109
20
-76
-111
-123
-143
-164
-185
-168
-114
-93
-128
-160
-133
-48
41
70
37
5
8
13
4
5
12
32
63
63
99
230
327
480
861
967
347
-293
-245
10
-47
-139
-73
-51
-85
-75
-82
-124
-141
-134
-115
-88
-57
7
56
52
109
223
219
114
58
6
-109
-208
-258
-293
-304
-294
-288
-264
-206
-153
-135
-140
-116
-42
-1
-43
-76
-68
-90
-129
-130
-123
-99
-38
-54
-132
-36
164
168
167
408
415
-93
-460
-300
-83
-79
-95
-85
-95
-48
15
-15
-57
-1
62
54
59
109
150
206
287
338
371
386
349
311
266
128
31
68
6
-153
-96
55
-32
-175
-110
-21
-42
-4
106
124
83
89
72
-2
-19
-3
-81
-174
-196
-270
-354
-220
20
83
68
101
-64
-449
-617
-408
-149
-95
-162
-160
-106
-136
-186
-138
-98
-153
-174
-68
68
113
115
231
419
468
435
502
521
330
137
69
-7
-92
-105
-97
-114
-151
-180
-168
-226
-391
-379
-96
124
140
145
219
321
457
590
666
768
1026
1387
1488
996
201
-265
-331
-345
-370
-340
-345
-381
-372
-373
-404
-417
-452
-521
-540
-527
-552
-543
-447
-345
-245
-71
115
175
130
95
78
8
-102
-170
-174
-160
-152
-140
-124
-103
-71
-51
-65
-70
-41
-27
-49
-76
-74
-8
85
103
63
48
36
10
17
37
37
26
23
95
197
173
217
511
519
-24
-366
-149
50
17
24
57
24
21
50
36
12
27
66
106
135
144
164
235
311
331
346
384
365
297
259
217
101
-23
-53
3
19
-81
-172
-136
-83
-116
-134
-69
-14
-4
8
1
-70
-166
-225
-240
-253
-268
-241
-216
-264
-240
-54
56
-16
-92
-189
-382
-462
-346
-237
-216
-218
-210
-183
-168
-174
-116
-47
-107
-152
-28
77
68
116
230
316
411
476
446
397
324
156
2
-48
-93
-157
-147
-85
-72
-92
-63
-27
-84
-120
12
142
98
48
91
68
0
33
72
21
26
103
73
14
149
346
413
478
472
130
-261
-255
-74
-48
-45
18
6
-92
-171
-106
30
-100
-436
-410
-34
122
50
110
252
322
356
333
261
232
163
4
-71
-65
-163
-262
-203
-176
-293
-294
-129
-95
-210
-193
-24
75
47
13
6
-21
-27
-8
-68
-130
-52
-8
-90
-31
155
202
274
455
280
-230
-410
-206
-98
-111
-53
-7
-43
-48
24
83
76
54
42
47
130
231
236
267
379
375
339
399
320
220
269
-125
-780
-546
36
-317
-759
-331
43
-94
-94
22
-50
-80
-2
5
-27
-39
-75
-122
-127
-85
-39
5
72
96
106
302
576
699
849
940
478
-201
-369
-289
-340
-247
-151
-315
-285
-155
-603
-1055
-645
-117
-216
-356
-260
-284
-228
-54
-280
-594
-277
237
283
154
159
126
53
50
67
80
93
67
51
84
87
55
80
176
258
248
178
133
124
124
137
126
85
115
184
169
201
389
570
726
857
607
-18
-356
-218
-165
-388
-463
-262
-129
-189
-235
-188
-159
-184
-202
-149
-57
-35
-38
85
234
233
210
264
223
69
-10
-29
-139
-267
-218
-86
-137
-281
-237
-110
-139
-204
-120
11
47
24
19
6
-62
-102
-56
-71
-185
-170
-29
-24
-68
82
293
429
495
294
-152
-388
-273
-92
-13
-40
-81
-21
21
-70
-98
-3
-7
-59
50
179
166
176
298
439
573
633
551
468
442
321
135
42
-9
-109
-199
-238
-256
-258
-246
-235
-242
-263
-242
-161
-95
-91
-113
-133
-154
-165
-158
-166
-179
-156
-144
-137
-22
90
107
337
683
442
-271
-541
-303
-181
-246
-225
-130
-118
-191
-205
-130
-113
-157
-120
-33
25
99
192
253
293
314
298
269
257
229
143
46
11
1
-53
-100
-75
-17
-5
-46
-56
-7
8
8
102
183
119
53
78
73
32
23
-9
-17
59
59
-19
33
152
239
340
214
-253
-562
-445
-277
-261
-258
-235
-214
-175
-152
-139
-97
-66
-57
-17
16
13
77
193
216
215
288
313
298
304
150
-5
129
-18
-734
-932
-260
130
-34
-54
39
70
139
-96
-542
-412
112
216
52
66
112
77
60
64
124
220
234
298
545
802
1022
1186
887
150
-274
-176
-73
-115
-106
-91
-146
-184
-160
-109
-77
-98
-138
-159
-165
-148
-120
-102
-71
-27
15
52
-14
-196
-256
-153
-147
-254
-275
-208
-174
-240
-344
-272
-88
-123
-263
-184
-50
-55
-55
-54
-136
-156
-81
-76
-139
-117
-47
-61
-48
128
260
252
300
228
-208
-541
-366
-108
-127
-182
-121
-88
-106
-84
-19
32
44
45
73
113
141
193
300
400
431
446
471
418
321
305
250
48
-63
48
144
82
-28
-77
-54
-18
-32
-44
4
51
55
59
71
72
93
162
239
257
221
197
166
81
64
179
248
237
220
23
-349
-484
-306
-167
-165
-165
-155
-149
-142
-171
-192
-122
-36
-32
-54
-43
1
108
151
54
182
413
-119
-1000
-798
76
193
-174
-184
-69
-94
-82
-70
-118
-97
-22
-6
-31
-23
31
87
99
63
1
-53
-31
65
86
6
2
68
89
152
252
287
486
803
578
-151
-474
-214
-18
-88
-148
-124
-92
-81
-111
-130
-66
8
-12
-76
-70
19
83
49
34
147
266
254
146
27
-69
-125
-165
-200
-188
-144
-168
-242
-223
-167
-244
-321
-221
-111
-122
-116
-56
-50
-107
-133
-81
-48
-78
-37
45
-2
-6
187
303
279
320
206
-202
-422
-253
-106
-132
-112
-35
-27
-55
-20
47
47
-7
-23
19
86
147
197
280
377
412
416
422
364
279
238
159
11
-52
24
54
-73
-172
-77
58
60
10
16
69
132
171
165
132
56
-55
-96
-50
-58
-131
-137
-128
-192
-151
35
99
71
133
25
-336
-471
-286
-199
-247
-213
-169
-186
-158
-125
-145
-77
49
7
-81
22
130
84
127
320
400
338
309
295
219
126
29
-76
-101
-26
17
-27
-70
-63
-29
-1
-12
-51
-51
22
127
177
132
72
58
29
-4
50
126
134
138
217
375
575
783
1026
1110
674
-62
-429
-350
-271
-332
-367
-322
-291
-320
-353
-362
-382
-412
-436
-489
-563
-588
-558
-507
-422
-315
-232
-139
5
76
-5
-103
-142
-161
-118
-39
-59
-121
-114
-98
-86
-70
-86
-23
89
54
111
263
-186
-882
-560
345
523
378
694
948
798
654
451
-20
-298
-147
-42
-163
-176
-52
-45
-128
-178
-212
-207
-190
-278
-346
-263
-270
-404
-336
-124
-57
-27
127
294
387
405
361
328
334
302
209
130
137
200
220
183
154
148
159
174
147
106
161
296
385
396
374
378
487
658
744
713
528
102
-309
-328
-171
-260
-432
-370
-245
-272
-298
-249
-285
-390
-392
-339
-380
-460
-465
-436
-409
-339
-263
-202
-57
128
191
159
155
150
93
42
38
51
39
10
8
17
-9
