# session 36
171
128
163
261
366
407
364
305
272
219
97
-60
-148
-164
-216
-286
-268
-203
-194
-240
-258
-171
-56
-49
-68
-7
48
80
161
271
436
680
893
959
720
149
-308
-313
-186
-207
-219
-185
-225
-265
-246
-274
-328
-298
-261
-304
-339
-354
-424
-443
-342
-280
-263
-150
-53
-84
-56
91
125
21
-7
50
40
-36
-71
-41
-7
-17
-23
30
38
-72
-152
-99
-37
-61
-130
-183
-150
-26
41
-26
-76
-34
-35
-98
-110
-98
-90
-46
-50
-74
43
184
309
615
702
119
-487
-480
-285
-262
-248
-235
-261
-240
-212
-177
-99
-107
-165
-74
89
164
202
233
231
250
310
372
419
431
399
368
340
262
154
91
58
-6
-39
9
32
-5
8
34
-8
-10
65
87
62
84
79
-21
-93
-63
-41
-62
-49
-49
-67
37
225
374
483
370
-79
-409
-324
-210
-273
-264
-164
-150
-182
-167
-136
-101
-61
-78
-150
-153
-83
-65
-89
-51
9
29
44
63
62
42
9
-18
-51
-137
-224
-202
-136
-168
-247
-228
-137
-75
-49
-46
-33
51
141
126
87
110
124
111
119
120
120
130
82
66
230
371
395
594
749
323
-264
-295
-62
-51
-100
-57
-39
-55
-46
-27
-33
-55
-65
-44
-6
23
54
118
147
145
271
354
104
-94
121
252
18
-132
-92
-149
-265
-280
-235
-221
-260
-247
-134
-118
-216
-164
-23
-77
-202
-161
-127
-252
-307
-186
-115
-143
-125
-111
-86
93
243
241
293
220
-200
-448
-240
-79
-115
-94
-125
-239
-159
24
44
20
77
91
58
82
155
241
303
313
350
476
564
514
428
381
302
188
122
81
4
-42
-10
-11
-69
-59
-10
-25
-25
23
32
80
200
167
18
74
195
73
-12
254
554
596
632
921
1256
1206
664
-12
-411
-483
-456
-488
-535
-547
-571
-606
-626
-669
-728
-769
-816
-845
-816
-808
-874
-941
-896
-723
-571
-540
-468
-274
-135
-98
-32
40
17
-33
11
81
61
58
179
277
263
266
309
288
257
321
395
360
302
322
319
231
192
241
276
280
238
162
228
397
476
666
983
812
141
-209
-84
-24
-100
-105
-96
-104
-61
-45
-112
-163
-130
-57
-20
-43
-63
-28
32
80
132
199
249
251
235
216
159
80
12
-71
-137
-150
-185
-228
-194
-167
-191
-131
-35
-59
-68
71
192
227
337
505
590
689
934
1132
969
436
-127
-394
-417
-458
-534
-487
-369
-342
-389
-429
-470
-515
-556
-614
-664
-684
-729
-777
-707
-553
-432
-295
-108
14
70
153
205
192
183
134
42
57
121
79
35
78
102
98
114
93
41
17
48
99
4
-203
-150
152
218
27
-40
20
19
-11
-20
8
80
63
-20
108
344
380
394
440
111
-384
-444
-271
-237
-177
-106
-156
-124
-28
-103
-178
-74
12
4
7
32
111
215
212
248
413
345
54
65
318
373
295
240
118
-7
-19
21
25
-32
-45
84
186
146
191
425
663
832
975
1105
1352
1688
1621
895
72
-321
-435
-512
-525
-507
-515
-496
-491
-581
-685
-734
-761
-758
-747
-811
-902
-899
-820
-732
-610
-438
-255
-105
-20
10
39
52
-28
-142
-140
-59
-71
-164
-188
-118
-58
-57
-71
-58
-65
-117
-127
-69
-43
-71
-71
-53
-52
-11
74
107
104
137
134
79
108
212
252
267
291
254
286
450
556
705
976
839
183
-205
-66
72
54
53
31
-26
-12
62
89
4
-99
-70
16
13
-10
23
55
70
92
138
220
260
202
141
118
51
-36
-70
-103
-170
-229
-263
-264
-219
-190
-208
-183
-81
-11
-22
-50
-48
-12
-4
-79
-140
-102
-75
-116
-130
-82
0
114
276
446
386
-33
-410
-378
-202
-189
-201
-157
-198
-228
-93
-79
-380
-519
-211
81
83
68
137
160
175
260
335
321
283
290
287
225
151
86
36
40
54
1
-58
-66
-93
-118
-40
46
19
9
99
130
56
21
31
13
-16
-44
-35
20
-24
-83
81
182
17
47
197
-138
-578
-469
-209
-233
-261
-164
-123
-123
-103
-106
-93
-55
-97
-162
-115
-63
-96
-58
68
125
177
333
436
365
240
173
119
18
-105
-172
-145
-100
-145
-207
-133
-49
-111
-156
-133
-223
-262
-41
151
97
15
38
81
74
28
43
108
74
66
273
461
491
538
402
-89
-395
-197
25
-25
-103
-52
22
19
-11
31
84
47
9
57
98
84
88
140
205
244
257
289
326
277
152
35
-66
-151
-189
-213
-235
-213
-183
-197
-193
-160
-193
-242
-181
-70
-18
-4
-8
1
88
239
395
520
659
991
1450
1549
1032
268
-301
-561
-577
-498
-494
-547
-543
-526
-548
-522
-446
-443
-513
-574
-618
-659
-675
-658
-607
-521
-421
-318
-169
16
110
85
99
185
175
86
102
153
86
42
121
126
11
-8
87
118
70
72
148
215
211
147
71
24
24
43
22
-26
-5
50
13
-6
121
225
277
426
395
-37
-360
-222
-20
-27
-83
-102
-90
-39
-40
-108
-107
-60
-86
-104
-25
18
-31
-15
104
194
218
249
296
318
299
254
189
80
-38
-75
-28
-3
-18
-4
47
90
87
64
105
214
279
270
284
359
465
605
746
834
978
1307
1560
1285
546
-101
-363
-412
-422
-429
-469
-532
-539
-513
-545
-616
-661
-705
-760
-779
-797
-902
-1000
-886
-608
-410
-322
-221
-113
-40
18
31
-5
-19
-23
-46
-35
-14
-32
-37
-39
-91
-124
-107
-94
-89
-98
-123
-61
82
115
-1
-64
15
103
96
44
37
100
142
81
82
334
525
285
-58
-90
-46
-125
-85
77
93
20
53
101
54
53
146
152
72
121
227
171
99
221
345
301
309
472
537
440
406
431
344
213
157
105
17
-32
-23
-31
-115
-194
-159
-148
-274
-271
-35
68
-16
131
473
581
480
378
131
-226
-327
-201
-194
-307
-341
-315
-323
-326
-278
-259
-342
-424
-394
-345
-384
-423
-371
-302
-284
-257
-172
-86
-62
-54
-7
-16
-82
-52
-82
-371
-498
-155
157
123
85
167
181
162
188
176
120
121
178
195
143
103
142
211
235
211
173
154
143
104
57
63
94
37
-52
39
234
323
492
764
580
-65
-381
-218
-135
-208
-175
-98
-104
-134
-146
-166
-190
-192
-173
-143
-104
-53
18
101
148
171
239
303
275
217
191
130
31
-50
-146
-226
-199
-156
-225
-283
-209
-112
-115
-162
-123
18
140
189
254
393
556
671
756
911
1100
1084
759
321
-10
-173
-210
-204
-218
-245
-281
-345
-419
-479
-526
-565
-610
-668
-710
-738
-767
-736
-639
-595
-568
-363
-80
28
38
113
145
84
66
108
116
82
61
54
43
81
121
-28
-234
-151
56
16
-97
-27
60
51
49
58
40
28
22
31
43
-8
-46
16
21
-45
65
291
451
606
529
-39
-515
-379
-121
-150
-180
-111
-92
-50
10
-23
-11
46
-38
-38
139
-27
-435
-280
295
528
490
549
585
522
469
403
291
149
37
60
111
14
-59
41
75
-44
-58
85
193
232
287
340
367
470
706
915
998
1156
1446
1515
1120
466
-116
-437
-512
-519
-561
-579
-561
-569
-626
-711
-789
-824
-851
-915
-965
-962
-959
-975
-936
-809
-643
-505
-389
-237
-101
-94
-158
-160
-119
-119
-149
-161
-142
-92
-37
-38
-88
-94
-27
20
-3
-23
28
102
116
102
131
180
202
223
268
302
299
299
306
262
256
388
501
604
927
1088
578
-65
-136
43
21
-41
17
97
85
-24
-81
-26
-8
-44
-13
15
-27
-25
38
78
131
217
258
258
273
259
162
30
-63
-114
-168
-233
-271
-257
-214
-182
-182
-193
-170
-86
-2
4
-56
-115
-135
-118
-134
-213
-223
-122
-106
-200
-155
12
61
131
361
298
-237
-569
-369
-159
-210
-235
-171
-160
-114
11
65
70
145
201
194
227
276
280
306
348
364
402
448
419
353
315
265
160
26
-56
-50
-51
-131
-189
-148
-86
-76
-112
-127
-55
37
24
-23
-28
-103
-190
-103
-29
-105
-83
-81
-343
-379
45
290
197
108
-133
-522
-557
-292
-174
-184
-160
-163
-178
-137
-113
-166
-221
-192
-121
-117
-140
-67
28
31
60
202
346
418
409
307
211
175
89
-38
-105
-117
-80
-50
-131
-164
-84
-231
-511
-362
78
240
177
171
156
96
107
159
97
-16
64
220
133
55
329
582
534
466
336
-71
-374
-239
12
61
7
-16
-25
-30
-3
39
45
31
60
118
125
76
49
98
179
221
239
266
243
154
62
-39
-161
-215
-217
-269
-316
-275
-220
-210
-227
-274
-278
-159
-82
-173
-218
-142
-186
-299
-227
-137
-215
-202
-64
-100
-133
106
291
364
658
727
128
-369
-259
-111
-136
-122
-202
-290
-99
121
103
55
95
112
99
95
112
161
210
235
246
244
281
362
348
217
127
97
30
-25
-9
-24
-113
-152
-82
-29
-59
-72
-24
14
32
63
56
-14
-86
-114
-98
-86
-134
-168
-120
-108
-138
-54
66
83
60
-78
-386
-518
-323
-153
-157
-162
-147
-171
-204
-206
-169
-133
-129
-114
-86
-94
-98
-55
8
84
173
252
289
293
275
210
142
135
1
-335
-454
-167
81
70
47
106
149
144
105
101
180
230
176
120
118
92
38
35
92
147
115
0
15
246
401
436
613
638
134
-358
-298
-64
-29
-47
-43
-70
-85
-67
-51
-65
-93
-62
-48
-182
-265
-75
133
124
108
220
286
238
186
129
12
-80
-101
-149
-229
-264
-302
-351
-302
-238
-319
-391
-261
-103
-117
-167
-117
-95
-154
-167
-135
-141
-120
-45
-36
-43
99
262
285
320
322
11
-353
-299
-41
22
-3
40
37
-13
6
59
67
53
59
87
113
94
67
111
209
288
335
368
383
348
279
230
146
-3
-68
-21
-53
-167
-183
-118
-109
-146
-155
-128
-88
-58
-50
-47
-52
-95
-154
-173
-152
-143
-129
-70
-51
-70
58
244
237
232
351
161
-327
-484
-272
-185
-250
-213
-145
-201
-278
-238
-160
-160
-189
-160
-96
-78
-88
-20
111
186
226
316
413
474
511
472
357
265
200
121
86
114
107
57
48
70
78
105
165
227
311
434
564
677
735
816
1109
1385
1080
308
-220
-366
-479
-556
-498
-484
-569
-610
-604
-618
-634
-650
-677
-685
-700
-760
-791
-722
-612
-533
-434
-255
-70
27
62
78
61
20
-30
-94
-124
-86
-66
-126
-165
-108
-76
-140
-157
-90
-101
-163
-108
-33
-83
-122
-45
37
79
98
81
96
119
46
46
174
41
-317
-239
304
593
521
671
977
725
8
-304
-52
139
48
-5
88
116
53
80
145
85
35
115
151
96
130
246
293
302
376
475
511
466
392
345
265
105
13
-18
-176
-263
-147
-296
-689
-609
-158
-26
-116
-44
83
130
154
239
452
676
778
932
1205
1234
795
177
-269
-498
-598
-616
-621
-645
-639
-636
-661
-623
-581
-678
-793
-817
-860
-919
-925
-937
-866
-645
-468
-277
40
88
-161
-43
409
594
672
971
1178
1261
1645
2105
1981
1296
577
63
-234
-312
-289
-302
-347
-357
-329
-335
-405
-455
-487
-601
-727
-742
-683
-580
-400
-226
-124
-36
56
94
67
24
12
31
31
6
12
46
46
7
-35
-62
-65
-52
-47
-50
-44
-11
51
71
6
-57
-47
-26
-60
-105
-92
-47
-51
-76
-52
-29
-51
-56
-29
-32
-69
-84
-56
-45
-103
-136
-42
71
99
112
135
124
146
213
237
253
286
240
206
331
435
478
734
909
443
-209
-274
-27
-11
-71
-11
4
-46
-38
-22
-68
-94
-57
-42
-65
-59
-44
-61
-58
7
97
153
155
134
123
119
100
38
-78
-176
-192
-186
-215
-239
-230
-218
-212
-194
-149
-61
11
-23
-111
-149
-169
-189
-160
-159
-233
-228
-151
-160
-125
95
306
478
691
565
-59
-498
-373
-176
-206
-252
-204
-122
-103
-186
-239
-248
-331
-307
-38
153
108
97
186
219
255
375
438
390
366
384
320
196
142
141
93
12
-35
-33
1
17
-20
-45
15
112
167
167
122
59
41
67
57
60
126
126
149
359
364
17
125
892
1242
662
-87
-365
-329
-322
-359
-307
-251
-331
-380
-248
-191
-377
-501
-418
-403
-501
-504
-478
-510
-451
-322
-284
-250
-102
53
78
5
-40
-36
-59
-88
-70
-71
-94
-55
-7
-32
-28
76
196
284
337
329
273
211
171
198
266
256
203
213
189
133
239
378
404
631
937
629
-98
-336
-67
67
-57
-172
-167
-124
-157
-209
-152
-84
-127
-165
-118
-87
-102
-82
0
106
186
206
186
160
112
22
-86
-194
-281
-293
-269
-316
-385
-357
-301
-326
-351
-302
-236
-169
-99
-62
21
172
223
239
484
834
1014
1062
883
270
-371
-525
-478
-585
-556
-377
-498
-737
-583
-293
-292
-388
-390
-438
-538
-595
-642
-696
-696
-632
-528
-392
-238
-71
88
178
199
216
225
191
162
151
119
124
184
160
53
63
186
208
134
127
166
166
188
261
301
303
287
209
125
151
209
190
193
241
216
232
397
503
571
742
611
49
-239
-52
58
6
26
25
-21
9
63
62
32
21
73
131
125
126
193
282
372
452
559
693
649
479
521
425
-249
-664
-167
322
183
8
65
93
84
96
111
182
267
352
528
705
776
844
974
1157
1254
894
110
-446
-544
-576
-651
-649
-693
-813
-826
-776
-844
-994
-1069
-1050
-1081
-1203
-1226
-1167
-1307
-1466
-1211
-763
-579
-541
-438
-382
-409
-408
