# session 44
11
-32
101
232
213
282
388
44
-508
-515
-188
-158
-262
-199
-127
-104
-63
-84
-147
-135
-95
-52
50
65
-37
95
326
13
-457
-159
451
480
232
176
128
11
-48
-62
-51
-25
-17
-14
16
86
150
145
173
333
448
379
269
217
156
99
107
96
20
12
69
17
-33
94
202
250
445
452
-52
-484
-412
-281
-326
-306
-250
-291
-307
-258
-244
-227
-150
-101
-128
-139
-78
0
30
46
122
231
265
203
113
60
10
-112
-248
-277
-245
-250
-262
-262
-275
-246
-166
-139
-134
-36
81
101
75
80
109
130
115
77
65
94
125
92
35
118
278
358
553
822
580
-59
-287
-135
-134
-143
-18
-39
-140
-92
-65
-143
-138
-80
-96
-96
-19
40
54
96
178
243
275
283
220
77
-36
-90
-178
-286
-332
-332
-304
-257
-264
-302
-252
-168
-195
-245
-162
-73
-121
-149
-77
-103
-214
-172
-74
-132
-181
-99
-73
-73
80
223
240
283
215
-122
-341
-204
-27
7
6
-4
-32
-25
54
155
153
75
76
146
204
244
253
300
463
580
562
554
549
438
294
192
116
40
-74
-142
-56
8
-109
-196
-102
6
13
4
56
135
158
92
8
-25
-44
-123
-230
-250
-159
-97
-180
-243
-74
124
122
117
115
-174
-484
-390
-206
-257
-273
-141
-103
-179
-218
-205
-181
-160
-133
-72
-13
3
50
147
189
214
320
388
307
202
178
129
-12
-94
-34
-38
-193
-227
-58
21
-41
-27
37
24
31
117
166
143
113
76
39
49
60
5
-6
98
98
-78
-69
179
285
385
714
659
-28
-448
-278
-169
-242
-184
-123
-179
-202
-172
-160
-155
-165
-181
-173
-164
-152
-93
-9
82
181
234
225
210
175
66
-66
-124
-114
-143
-232
-251
-154
-120
-228
-268
-132
-31
-76
-101
-45
-24
-12
42
-10
-133
-92
-38
-91
83
165
-452
-877
-314
150
48
299
598
148
-318
-167
45
32
33
40
4
12
68
106
74
33
92
157
114
104
189
248
326
482
541
483
499
527
398
227
164
125
27
-43
-28
-30
-124
-199
-192
-217
-278
-252
-158
-76
-40
-101
-191
-181
-131
-125
-122
-124
-100
-24
-52
-152
-36
200
295
412
494
101
-457
-470
-191
-183
-239
-122
-76
-137
-113
-42
2
20
-48
-78
76
121
27
245
358
-276
-686
-11
647
487
244
249
147
25
41
24
-39
-22
14
-25
-62
-15
22
-29
-49
50
131
86
21
28
25
-32
-42
0
-13
-59
-87
-115
-43
141
242
331
461
223
-330
-507
-301
-255
-341
-317
-294
-320
-306
-278
-256
-220
-189
-151
-95
-55
-7
80
149
179
216
251
256
230
152
44
-23
-74
-147
-169
-114
-94
-153
-202
-167
-79
-32
-60
-76
-17
58
100
129
120
49
20
97
144
91
80
124
121
162
262
254
333
704
805
235
-311
-265
-50
-52
-96
-67
-60
-84
-89
-86
-74
-10
64
46
-7
49
177
235
230
256
327
383
383
321
196
53
-44
-116
-227
-321
-330
-307
-308
-316
-301
-245
-185
-199
-222
-124
0
-34
-145
-157
-116
-140
-191
-181
-110
-62
-120
-175
-38
191
360
526
490
15
-423
-360
-161
-139
-114
-97
-154
-94
-6
-97
-103
34
-163
-552
-445
20
237
240
310
395
398
367
363
340
219
70
10
-3
-32
-75
-110
-88
-59
-127
-181
-99
-18
-14
39
153
213
168
62
1
25
79
118
105
35
-8
-13
1
100
212
227
229
123
-255
-545
-415
-209
-217
-242
-177
-140
-151
-143
-89
-47
-69
-78
-17
15
-7
21
115
181
183
218
331
360
231
133
105
-20
-150
-120
-92
-157
-142
-94
-148
-123
-22
-137
-292
-103
199
248
185
190
178
121
102
117
99
70
88
79
33
132
336
467
718
1067
876
96
-411
-308
-132
-202
-291
-225
-135
-146
-193
-192
-154
-113
-110
-139
-119
-63
-64
-73
-14
44
61
67
38
-42
-110
-145
-187
-223
-199
-141
-143
-183
-165
-139
-182
-183
-112
-112
-134
-54
-3
-33
-47
-120
-163
-4
-85
-577
-661
-162
86
45
179
251
216
378
274
-408
-794
-424
-74
-112
-86
70
91
54
67
55
58
114
123
90
135
224
252
301
438
520
491
468
433
325
239
197
112
23
19
54
43
-18
-80
-81
-13
33
-6
-45
-4
44
34
-20
-90
-113
-72
-70
-111
-58
75
120
142
375
707
856
932
962
567
-132
-495
-461
-402
-399
-432
-511
-522
-452
-451
-515
-522
-487
-486
-484
-474
-496
-476
-378
-317
-261
-90
31
1
35
70
-164
-363
-156
108
92
35
87
105
70
55
78
133
173
183
225
282
255
165
129
158
160
121
135
201
175
96
172
313
349
533
858
699
39
-305
-124
51
29
-34
-74
-54
11
15
-29
-39
-34
-46
-49
-21
36
87
118
170
262
327
308
231
154
74
-52
-191
-260
-271
-292
-346
-428
-471
-410
-339
-347
-323
-218
-145
-102
-21
36
16
-27
-33
19
97
136
131
128
173
303
421
412
463
640
499
-54
-380
-255
-134
-157
-128
-76
-85
-112
-121
-71
14
9
-49
6
117
104
28
73
189
223
210
256
345
386
316
189
120
94
48
27
20
-44
-121
-209
-377
-516
-527
-553
-638
-624
-534
-521
-542
-500
-425
-344
-279
-274
-262
-207
-215
-204
-19
155
232
408
419
-73
-540
-454
-178
-103
-117
-105
-81
-36
13
38
44
75
158
178
106
167
292
167
55
356
684
632
492
476
425
305
165
55
96
183
103
6
74
109
20
25
95
37
15
170
238
95
-3
47
98
103
85
52
69
116
107
156
312
359
336
379
181
-304
-503
-309
-190
-225
-213
-194
-226
-240
-218
-190
-172
-164
-156
-115
2
121
122
104
226
352
309
204
138
40
-71
-114
-164
-269
-304
-245
-226
-261
-234
-135
-69
-96
-167
-173
-62
59
45
-48
-88
-93
-80
-9
42
21
57
130
95
91
225
295
403
748
806
222
-278
-204
-65
-131
-113
-30
-74
-127
-62
4
-35
-90
-61
-23
-55
-64
9
67
83
140
225
259
239
173
49
-75
-134
-168
-230
-272
-254
-243
-286
-312
-273
-223
-214
-200
-127
-30
20
16
-34
-129
-189
-125
-46
-99
-155
-98
-95
-139
5
217
299
427
470
51
-426
-355
-73
-65
-117
-72
-107
-77
91
-111
-623
-574
-13
178
50
132
258
236
267
353
377
409
434
349
237
191
132
30
-2
47
44
-38
-81
-41
7
15
-1
9
79
149
135
86
91
89
33
33
81
48
43
108
21
0
305
310
-181
-263
11
-226
-568
-372
-154
-219
-222
-170
-178
-123
-78
-129
-131
-88
-117
-117
-41
6
75
196
223
230
386
495
363
203
167
97
-24
-82
-145
-231
-196
-117
-169
-211
-99
-23
-129
-234
-151
30
107
55
0
18
60
38
-33
-14
99
83
-75
-43
213
325
323
453
359
-157
-435
-220
-89
-170
-122
-30
-59
-51
-13
-64
-51
81
101
18
53
154
180
210
282
321
340
350
283
156
44
-52
-147
-216
-251
-266
-271
-277
-269
-224
-183
-190
-180
-115
-59
-16
15
-63
-193
-198
-141
-168
-198
-150
-102
-116
-123
-16
114
133
237
479
364
-172
-453
-280
-115
-115
-109
-76
-59
-25
54
135
152
117
95
116
172
232
267
303
356
391
396
384
342
288
250
178
63
-16
-49
-53
-23
-37
-139
-182
-101
-40
-58
-81
-62
-2
23
-34
-64
-28
-43
-74
-47
-125
-300
-300
-184
-157
-90
32
19
-68
-188
-452
-618
-437
-193
-156
-169
-107
-74
-110
-115
-71
-70
-114
-98
-35
-24
-30
30
124
235
382
457
408
381
408
327
140
6
-54
-71
-10
-12
-179
-187
-29
-307
-799
-589
27
166
82
248
339
199
110
123
141
153
123
95
130
142
144
265
404
462
595
658
277
-253
-318
-61
22
-84
-145
-79
40
69
6
-4
35
25
-12
-21
-31
-46
-28
23
87
162
211
163
57
-4
-49
-145
-218
-209
-189
-220
-253
-233
-224
-291
-331
-275
-240
-242
-185
-134
-176
-202
-145
-115
-157
-174
-136
-77
-30
-53
-60
97
228
199
324
493
151
-398
-412
-100
-5
-37
-1
25
16
16
18
36
67
83
119
178
199
203
259
350
412
407
351
312
305
267
175
61
1
31
31
-67
-114
-79
-81
-87
-49
-47
-49
-1
8
-23
-12
-17
-90
-138
-126
-115
-131
-162
-170
-152
-160
-125
22
126
131
146
21
-334
-535
-399
-249
-228
-200
-181
-215
-207
-143
-115
-130
-132
-103
-66
-35
33
132
191
239
310
313
236
191
178
131
64
2
-39
-31
2
16
6
-23
-39
4
57
51
56
109
108
63
64
58
27
47
41
-34
-32
58
72
-2
-22
73
181
317
593
666
160
-400
-400
-173
-139
-140
-93
-126
-166
-116
-73
-95
-106
-99
-119
-112
-45
10
55
150
252
304
324
301
218
128
50
-41
-119
-167
-216
-260
-262
-216
-173
-190
-221
-189
-132
-76
59
252
383
476
628
766
842
1055
1350
1185
456
-175
-358
-352
-367
-482
-645
-604
-389
-335
-437
-487
-513
-567
-593
-614
-657
-661
-612
-531
-350
-109
1
49
217
286
121
68
155
57
-39
87
124
22
49
112
97
121
112
54
118
190
117
64
82
22
-74
-64
17
59
33
-3
-16
-54
-100
-88
-66
-57
-7
-2
-24
139
356
391
458
522
156
-346
-366
-160
-176
-226
-164
-145
-131
-41
-27
-126
-151
-64
-12
-14
14
66
121
200
289
357
393
375
316
257
193
112
48
3
-44
-73
-81
-113
-165
-159
-83
-27
-39
-54
0
78
63
-32
-84
-94
-115
-97
-69
-121
-173
-133
-63
-10
27
132
414
554
140
-423
-513
-322
-260
-268
-234
-205
-183
-163
-140
-83
-35
-24
15
87
150
243
373
462
517
602
647
580
504
484
414
285
215
173
83
19
16
-1
-20
-3
-25
-87
-90
-46
-23
0
7
-51
-102
-94
-85
-82
-76
-87
-71
-64
-127
-80
130
249
306
405
195
-343
-578
-386
-260
-309
-330
-346
-378
-339
-278
-276
-280
-277
-301
-276
-168
-77
-58
-50
33
169
244
229
178
103
6
-138
-307
-316
-273
-555
-885
-695
-282
-131
-47
61
-29
-115
70
249
186
140
273
339
269
302
355
217
114
140
25
-57
138
245
204
377
395
-147
-607
-499
-286
-267
-258
-225
-231
-211
-135
-46
-5
-14
3
1
-96
-129
4
136
265
529
766
789
741
695
491
198
77
75
-26
-145
-124
-105
-239
-347
-267
-206
-303
-334
-221
-156
-152
-116
-94
-122
-159
-175
-143
-71
41
142
111
81
320
645
733
647
413
-16
-284
-161
-7
-45
-89
-81
-85
-70
-39
-37
-27
-17
-44
-14
92
112
101
264
465
523
588
665
518
261
171
133
-33
-190
-225
-252
-306
-302
-255
-240
-230
-177
-113
-93
-70
46
198
280
367
563
750
818
954
1342
1670
1393
576
-126
-405
-474
-473
-450
-508
-551
-468
-461
-615
-682
-606
-592
-661
-703
-734
-744
-647
-551
-661
-827
-721
-420
-253
-261
-279
-267
-266
-272
-268
-250
-205
-135
-83
-73
-61
-22
30
94
149
168
174
175
159
164
212
243
236
259
304
264
162
132
138
52
-30
4
9
-61
1
137
148
215
361
162
-278
-377
-183
-88
-63
-2
15
13
30
10
-15
13
60
76
53
48
144
269
287
286
394
496
483
442
392
283
172
112
66
8
-78
-161
-135
-41
-59
-122
-49
19
-49
-28
58
-117
-358
-289
-136
-111
-18
84
-1
-56
29
-10
-107
55
307
348
297
207
-112
-474
-491
-266
-150
-169
-188
-186
-162
-116
-111
-140
-125
-66
-15
20
67
145
257
358
397
395
389
353
262
115
-79
-215
-200
-157
-200
-232
-203
-210
-229
-150
-33
-18
-73
-27
172
375
452
407
283
162
150
204
188
134
139
115
64
170
316
330
506
772
458
-234
-423
-208
-191
-280
-243
-212
-238
-246
-255
-281
-296
-316
-358
-370
-294
-180
-112
-47
63
150
176
164
79
-65
-153
-174
-220
-302
-348
-310
-229
-204
-254
-284
-228
-152
-139
-159
-108
-10
6
-70
-130
-117
-59
-11
-18
-30
48
148
141
136
242
294
330
553
609
153
-279
-206
8
27
10
91
267
455
473
339
312
411
417
347
357
384
362
397
398
158
-112
-86
80
90
4
-44
-93
-149
-172
-187
-213
-215
-185
-161
-183
-233
-249
-223
-190
-162
-140
-135
-147
-169
-187
-165
-108
-92
-126
-130
-134
-169
-101
63
178
330
419
61
-464
-526
-328
-323
-337
-213
-158
-217
-228
-177
-181
-182
-79
-69
-176
-33
91
-356
-683
-113
541
513
344
377
290
95
10
-37
-109
-160
-206
-240
-243
-264
-278
-216
-170
-204
-168
-20
56
15
-17
-26
-53
-20
86
127
100
114
126
166
418
775
1004
1195
1253
856
307
176
310
318
265
239
141
33
16
12
-16
-12
-9
-4
48
45
-22
49
201
196
124
161
186
88
-40
-138
-223
-281
-293
-286
-302
-328
-335
-334
-309
-255
-270
-296
-176
-99
-168
-98
-92
-526
-783
-362
22
-75
-137
24
77
-12
14
174
269
391
672
643
56
-367
-214
-43
-125
-152
-110
-142
-124
-50
-99
-183
-127
-75
-152
-168
-63
-25
-35
67
195
223
230
241
159
25
-51
-101
-163
-188
-185
-209
-221
-170
-98
-50
-5
36
42
46
115
180
123
29
54
115
68
