# session 30
20
-9
-64
-140
-213
-245
-236
-247
-293
-317
-305
-298
-306
-289
-246
-256
-314
-273
-148
-139
-237
-256
-183
-111
-76
-72
-60
-31
-17
-3
29
43
37
36
44
52
-1
-87
-67
36
91
105
90
32
-2
-7
-35
-34
3
-11
-49
-46
-19
-4
-19
-27
-12
-18
18
150
265
421
651
530
11
-216
-3
108
40
36
36
-11
-37
-62
-81
-68
-58
-61
-93
-154
-149
-81
-73
-120
-138
-117
-95
-113
-135
-96
-44
-39
-32
-20
-19
23
79
81
85
110
83
32
15
-22
-84
-113
-135
-177
-195
-187
-184
-185
-176
-153
-108
-56
-30
-25
-8
15
16
3
-2
-5
-13
-12
-6
-10
-16
-16
-19
-27
-28
-24
-21
-24
-42
-70
-64
-10
27
-8
-82
-149
-207
-256
-290
-328
-367
-374
-362
-367
-375
-352
-275
-163
-121
-158
-68
169
306
423
694
730
297
-35
58
182
166
196
232
214
247
287
259
264
313
297
270
320
372
380
398
411
384
368
381
389
400
420
421
414
418
426
436
433
411
393
365
291
212
163
97
6
-68
-126
-184
-221
-254
-310
-345
-335
-331
-354
-374
-391
-402
-401
-415
-432
-392
-322
-303
-319
-303
-256
-227
-223
-215
-185
-165
-169
-161
-126
-104
-100
-98
-102
-91
-34
30
47
40
26
-11
-43
-46
-64
-106
-112
-99
-137
-196
-198
-169
-158
-141
-107
-65
12
134
312
526
572
282
-69
-118
26
87
76
89
102
111
134
125
78
65
93
88
44
25
35
22
-9
-26
-46
-68
-61
-47
-42
-10
28
29
41
84
92
67
84
122
90
-2
-67
-103
-163
-235
-291
-341
-377
-390
-401
-412
-399
-370
-344
-334
-331
-325
-329
-344
-347
-338
-346
-351
-314
-254
-202
-154
-96
-28
39
81
97
111
137
162
170
171
188
226
282
334
341
314
304
304
277
233
199
195
222
226
206
216
230
217
213
203
181
240
355
478
663
694
325
-53
-19
136
118
91
127
126
126
159
162
144
158
192
214
223
235
260
273
266
267
284
296
309
334
345
327
309
306
297
271
247
230
203
171
141
99
53
13
-59
-165
-242
-288
-349
-402
-418
-438
-470
-476
-473
-490
-500
-482
-465
-469
-467
-425
-366
-348
-360
-347
-310
-293
-293
-282
-260
-239
-233
-236
-232
-232
-254
-258
-204
-127
-91
-101
-121
-137
-158
-175
-182
-187
-185
-173
-164
-155
-140
-138
-124
-86
-87
-86
18
150
286
488
500
140
-168
-109
24
23
22
56
60
57
68
68
49
30
29
40
36
22
25
34
41
58
88
123
156
175
181
185
190
201
217
231
240
247
240
215
190
164
124
79
41
0
-32
-37
-32
-31
-22
-14
-16
-12
2
5
5
12
17
20
18
13
20
28
6
-17
2
40
61
73
85
98
112
109
108
130
133
124
187
291
318
281
259
257
253
236
192
121
52
1
-36
-71
-105
-132
-145
-147
-187
-254
-240
-133
-11
138
217
12
-334
-467
-404
-369
-373
-364
-362
-347
-317
-310
-292
-225
-164
-138
-94
-26
2
-16
-18
5
15
40
102
129
114
150
212
205
170
180
208
225
227
211
199
198
179
142
109
76
46
33
37
59
67
35
12
40
74
70
52
49
54
44
33
43
48
22
14
41
46
6
-36
-55
-64
-79
-92
-88
-89
-108
-107
-87
-59
18
92
54
-24
-30
-21
-48
-65
-71
-88
-90
-86
-92
-73
-65
-98
-73
2
-20
-50
84
275
444
598
470
2
-293
-195
-101
-183
-229
-198
-203
-225
-219
-226
-251
-252
-256
-290
-293
-246
-239
-293
-301
-240
-208
-215
-196
-176
-183
-163
-114
-95
-94
-66
-33
-28
-25
0
19
4
-20
-32
-59
-96
-95
-71
-60
-18
56
135
338
652
817
939
1352
1645
1191
385
-33
-103
-137
-135
-91
-91
-113
-114
-121
-144
-163
-168
-167
-169
-172
-180
-200
-198
-149
-114
-148
-210
-248
-267
-266
-237
-206
-175
-101
10
115
206
270
269
224
189
157
126
140
162
121
71
88
112
89
85
110
97
61
54
62
74
87
81
69
69
68
71
77
65
58
74
63
28
36
61
55
46
53
55
57
66
73
79
80
78
82
78
47
16
7
2
-11
-25
-33
-41
-56
-75
-84
-79
-72
-73
-74
-74
-79
-81
-77
-80
-85
-88
-91
-87
-71
-62
-62
-62
-71
-76
-58
-41
-39
-40
-44
-50
-51
-77
-105
-63
16
45
31
13
-17
-50
-75
-112
-144
-145
-137
-140
-150
-175
-174
-138
-169
-228
-135
10
40
130
252
46
-332
-395
-249
-234
-279
-262
-255
-278
-293
-301
-298
-295
-301
-287
-264
-262
-241
-180
-129
-90
-32
32
81
119
133
138
174
223
255
283
313
329
345
370
385
389
393
390
376
353
323
293
268
239
205
177
157
137
113
88
67
52
44
41
39
37
35
41
50
49
39
38
40
33
19
10
6
-1
-32
-75
-74
-16
39
55
59
56
27
-4
-18
-37
-59
-61
-53
-56
-51
-44
-58
-61
-27
-21
-38
18
132
260
411
403
92
-201
-180
-60
-61
-90
-79
-82
-92
-81
-66
-55
-39
-23
-14
-1
15
23
26
38
58
77
88
100
117
127
126
141
175
194
200
217
232
226
193
146
113
80
12
-41
-49
-80
-141
-159
-153
-176
-194
-198
-219
-233
-221
-202
-167
-125
-120
-128
-104
-91
-124
-144
-117
-91
-95
-99
-93
-102
-127
-149
-156
-150
-115
-55
-16
-30
-66
-90
-117
-157
-193
-214
-234
-263
-292
-292
-265
-264
-294
-302
-315
-345
-277
-135
-28
110
196
-48
-421
-460
-281
-229
-238
-173
-121
-115
-95
-73
-68
-50
-17
11
37
73
101
111
130
162
172
161
173
211
247
276
289
280
277
292
300
293
288
292
304
307
283
244
214
191
170
155
145
138
132
113
95
102
117
112
99
95
119
195
339
573
844
1058
1209
1266
1127
959
991
919
426
-103
-254
-212
-193
-158
-147
-209
-248
-253
-310
-392
-435
-461
-477
-447
-395
-371
-367
-351
-318
-278
-256
-259
-257
-241
-237
-249
-261
-273
-286
-299
-310
-310
-289
-265
-251
-230
-186
-142
-130
-139
-132
-111
-97
-90
-93
-109
-100
-61
-56
-84
-68
-26
-24
-32
-8
3
-12
-6
16
20
20
29
28
25
32
35
43
69
84
81
89
101
96
80
58
26
-12
-53
-90
-112
-118
-121
-129
-133
-138
-168
-206
-199
-173
-185
-200
-177
-170
-188
-169
-137
-149
-150
-70
35
80
71
63
80
98
90
70
76
97
93
78
96
114
109
121
129
121
190
315
396
503
582
386
68
13
138
162
122
117
112
114
140
139
111
99
114
140
151
143
147
154
138
137
173
200
213
247
279
273
255
244
211
155
121
113
87
36
-4
-38
-79
-103
-110
-143
-178
-161
-129
-138
-157
-161
-184
-225
-241
-233
-234
-259
-284
-276
-247
-246
-263
-240
-182
-154
-183
-213
-194
-163
-168
-177
-161
-145
-112
-36
20
9
-12
-19
-45
-67
-62
-66
-74
-54
-37
-44
-29
5
10
15
42
38
50
169
330
449
477
298
-22
-171
-72
30
4
-42
-33
-29
-57
-55
-45
-82
-99
-76
-88
-108
-97
-135
-201
-186
-149
-183
-221
-197
-153
-123
-93
-66
-50
-34
1
46
87
132
178
183
146
119
97
47
7
17
39
34
26
42
65
71
53
19
8
37
67
68
64
71
86
101
97
74
67
78
82
84
94
103
115
118
111
136
208
245
211
170
158
151
144
134
115
112
128
134
139
150
129
109
134
125
79
138
260
329
396
352
6
-338
-310
-139
-138
-192
-165
-140
-154
-148
-124
-123
-134
-129
-122
-127
-129
-123
-108
-81
-70
-95
-101
-55
-22
-23
6
47
29
-2
23
64
67
57
70
96
75
-20
-97
-100
-111
-164
-186
-186
-219
-255
-246
-210
-184
-193
-223
-219
-187
-188
-217
-220
-202
-208
-235
-255
-264
-259
-232
-191
-157
-135
-125
-124
-97
-13
94
166
191
177
144
121
111
79
13
-62
-104
-106
-106
-134
-149
-100
-54
-84
-58
104
234
319
444
359
-16
-197
-11
134
89
73
119
121
103
144
228
288
316
333
332
322
326
314
269
235
232
225
191
150
128
113
82
69
94
114
111
118
127
113
100
91
53
-5
-46
-71
-97
-108
-105
-100
-90
-73
-68
-69
-51
-27
-29
-55
-79
-95
-123
-159
-169
-154
-149
-160
-164
-151
-141
-140
-132
-124
-131
-142
-141
-127
-82
-2
62
83
77
64
55
60
50
16
0
13
23
37
51
43
54
95
77
49
138
251
326
479
519
187
-182
-207
-105
-115
-136
-121
-141
-179
-193
-196
-196
-184
-169
-175
-192
-181
-146
-105
-74
-68
-69
-49
-32
-33
-21
3
14
25
51
78
114
161
188
189
196
213
202
162
134
127
116
106
113
121
116
104
93
94
102
90
64
50
31
-5
-39
-72
-103
-117
-136
-174
-204
-222
-231
-222
-211
-208
-194
-181
-181
-168
-152
-158
-133
-60
-36
-98
-170
-218
-263
-291
-296
-298
-296
-275
-244
-222
-203
-189
-184
-158
-117
-127
-137
-47
86
225
374
314
-33
-266
-169
-57
-99
-117
-59
-35
-43
-24
8
25
49
92
128
146
163
179
183
183
195
208
206
205
228
264
298
335
374
412
460
497
480
426
395
396
388
348
286
228
189
186
210
205
154
124
143
145
112
101
102
67
43
72
82
47
33
43
20
-13
-9
0
-21
-42
-40
-38
-52
-68
-70
-67
-73
-83
-87
-89
-86
-81
-92
-104
-97
-99
-117
-90
-19
10
-15
-41
-63
-91
-103
-111
-143
-172
-173
-169
-172
-170
-173
-173
-148
-155
-202
-157
-20
76
193
316
150
-241
-398
-288
-240
-291
-307
-305
-316
-317
-313
-314
-312
-316
-322
-309
-290
-292
-302
-296
-272
-234
-199
-189
-185
-143
-83
-45
-16
27
65
91
127
164
181
193
210
210
181
141
117
115
119
111
98
97
103
99
91
99
108
99
91
96
97
86
69
48
41
43
13
-29
-22
4
-10
-33
-31
-32
-48
-59
-55
-50
-47
-30
1
25
37
54
74
80
80
91
114
125
134
191
290
347
337
319
312
291
260
237
208
183
176
166
148
147
144
129
146
151
101
133
263
333
434
599
449
-14
-218
-83
-30
-99
-107
-102
-134
-145
-143
-155
-168
-174
-169
-154
-157
-175
-178
-168
-162
-152
-140
-129
-107
-76
-39
9
43
51
76
115
128
120
119
121
112
87
46
-4
-60
-117
-153
-175
-218
-264
-282
-294
-318
-334
-322
-277
-191
-44
169
403
599
673
544
370
423
505
194
-307
-505
-469
-479
-482
-415
-390
-399
-363
-328
-332
-326
-323
-364
-399
-378
-366
-403
-421
-402
-404
-427
-429
-415
-403
-389
-333
-223
-136
-124
-114
-64
-22
13
79
141
169
199
245
272
263
247
272
324
371
493
766
1040
1196
1379
1560
1436
1079
867
760
509
226
85
7
-56
-74
-95
-136
-157
-178
-224
-256
-259
-270
-305
-347
-379
-391
-384
-369
-358
-354
-356
-356
-356
-366
-369
-341
-300
-258
-197
-129
-82
-38
11
45
68
95
106
91
70
57
45
37
42
55
73
96
120
141
155
158
165
180
183
171
171
192
210
211
208
212
214
209
192
171
162
152
123
96
90
88
73
43
2
-36
-61
-91
-137
-166
-164
-172
-192
-163
-89
-53
-74
-104
-134
-167
-185
-201
-239
-265
-258
-259
-273
-258
-226
-200
-166
-164
-202
-161
-40
41
138
243
111
-196
-297
-176
-110
-128
-120
-112
-135
-141
-128
-133
-143
-131
-126
-144
-164
-172
-174
-167
-152
-126
-78
-22
23
64
93
103
113
138
170
206
248
281
304
325
326
298
267
237
195
150
106
62
45
62
74
96
155
244
435
728
912
994
1229
1379
985
305
-102
-232
-306
-341
-342
-357
-367
-369
-384
-386
-366
-357
-365
-378
-393
-411
-423
-425
-420
-418
-426
-430
-409
-376
-336
-245
-95
22
65
104
179
244
271
271
250
210
168
133
110
94
75
55
39
24
11
3
-7
-26
-46
-61
-72
-87
-99
-107
-111
-114
-117
-119
-111
-89
-69
-65
-60
-40
-18
-7
3
17
33
44
49
64
86
91
87
98
102
88
82
90
92
86
85
93
105
106
99
97
91
81
85
86
75
79
94
87
77
77
70
71
93
105
98
94
96
97
100
103
101
101
104
110
116
117
118
123
117
101
93
95
100
95
62
7
-37
-73
-120
-161
-187
-217
-250
-281
-311
-307
-257
-233
-272
-326
-360
-382
-389
-399
-422
-435
-421
-385
-348
-337
-309
-234
-199
-180
-62
67
159
334
402
115
-190
-153
0
37
52
88
92
88
93
94
93
89
83
87
81
60
55
71
79
80
94
124
160
196
232
270
310
349
376
387
385
375
363
360
371
367
332
297
275
237
181
137
99
50
13
4
-18
-70
-105
-110
-126
-157
-179
-188
-188
-189
-208
-227
-214
-196
-207
-231
-236
-233
-245
-254
-235
-215
-214
-204
-182
-169
-144
-104
-86
-81
-59
-45
-37
23
115
158
150
136
111
79
62
44
12
-7
-14
-33
-50
-53
-71
-83
-69
-85
-104
-26
97
208
338
306
0
-222
-124
5
-18
-36
-1
1
-20
-26
-29
-36
-39
-41
-40
-31
-26
-40
-51
-37
-19
-23
-29
-13
18
50
