# session 2
-8
36
-1
-26
27
72
61
58
90
107
122
173
205
180
191
265
277
208
184
198
144
67
53
57
29
-1
-7
8
4
-24
-14
13
-23
-31
44
57
-11
-7
69
85
6
-61
3
80
-11
-95
12
68
-43
-50
51
0
-94
-16
64
5
-36
-28
-39
-2
35
-30
-30
99
125
43
40
64
19
-3
21
-13
-83
-81
-39
-38
-35
-4
-24
-75
-68
-60
-67
42
207
252
242
184
-88
-379
-348
-157
-115
-143
-117
-103
-115
-101
-85
-88
-86
-76
-65
-50
-46
-55
-46
-22
-6
4
14
16
25
43
50
68
110
133
145
195
244
249
256
282
284
268
250
205
139
90
44
-19
-70
-86
-105
-136
-132
-100
-101
-122
-108
-83
-94
-106
-85
-73
-81
-76
-60
-58
-64
-74
-84
-78
-61
-65
-78
-70
-52
-55
-67
-60
-50
-63
-75
-51
-13
-7
-32
-47
-40
-47
-70
-32
75
128
84
41
30
0
-27
-21
-34
-62
-51
-32
-52
-63
-44
-59
-91
-67
-49
-63
24
190
313
464
511
147
-317
-344
-138
-109
-139
-96
-99
-134
-104
-71
-95
-119
-102
-68
-49
-54
-63
-60
-51
-34
-8
5
0
8
29
39
54
90
119
135
169
206
214
232
280
297
258
227
213
162
87
36
-3
-42
-67
-86
-97
-83
-76
-105
-126
-97
-41
7
84
266
506
710
915
1062
951
755
796
758
273
-230
-324
-266
-303
-331
-318
-319
-324
-328
-328
-306
-288
-294
-296
-285
-278
-286
-300
-308
-308
-305
-295
-275
-248
-210
-181
-196
-240
-257
-238
-217
-198
-167
-135
-115
-95
-63
-38
-30
-21
-13
-13
-7
8
6
-5
6
29
29
23
38
61
70
62
39
28
42
57
58
62
77
91
95
93
92
88
79
79
87
90
99
114
110
96
106
111
69
13
-4
4
14
33
47
47
53
58
47
36
25
5
5
18
-2
-26
-7
17
16
18
23
3
-32
-42
-22
-12
-26
-21
13
16
-13
-12
8
8
10
23
26
21
20
23
32
33
20
20
35
31
19
29
41
28
20
31
18
-37
-84
-83
-70
-87
-103
-73
-37
-32
-21
3
-7
-28
11
92
127
87
42
38
34
-8
-54
-70
-60
-51
-57
-49
-17
-11
-24
-12
-29
-51
67
249
354
455
439
62
-343
-316
-102
-81
-130
-92
-62
-75
-78
-71
-75
-79
-74
-64
-60
-61
-67
-73
-66
-52
-53
-62
-57
-42
-22
8
33
37
49
93
139
159
175
206
230
233
235
239
226
192
144
94
56
25
-13
-47
-65
-76
-87
-95
-101
-99
-83
-72
-76
-79
-74
-68
-61
-60
-68
-68
-55
-57
-79
-83
-66
-65
-74
-59
-42
-59
-81
-74
-59
-61
-66
-61
-51
-46
-48
-46
-43
-45
-30
29
84
75
31
6
-3
-15
-28
-36
-45
-57
-55
-40
-32
-34
-36
-37
-23
-12
-43
-37
89
247
381
468
291
-142
-366
-214
-63
-76
-82
-48
-45
-48
-36
-32
-36
-29
-19
-16
-15
-8
-2
-4
-6
2
15
25
39
60
74
78
88
109
136
165
190
206
224
241
248
254
253
220
172
134
88
28
-16
-31
-42
-66
-82
-78
-76
-87
-89
-76
-68
-69
-73
-74
-71
-68
-75
-84
-80
-72
-72
-72
-67
-60
-53
-55
-64
-62
-52
-50
-50
-45
-44
-40
-33
-40
-52
-52
-44
-38
-28
-22
-25
-28
-32
-38
-27
-8
-19
-36
0
66
95
82
57
28
5
-8
-16
-18
-17
-25
-31
-28
-26
-22
-24
-33
-23
-15
-50
-45
75
221
337
370
133
-271
-392
-195
-61
-74
-64
-32
-39
-45
-34
-29
-29
-22
-9
-2
-6
-7
-2
-5
-10
5
26
27
20
28
49
67
75
89
120
149
160
181
224
243
233
239
249
224
178
135
89
44
6
-25
-45
-59
-77
-91
-94
-92
-91
-90
-80
-65
-59
-64
-64
-56
-55
-62
-63
-56
-55
-60
-62
-65
-66
-56
-43
-44
-57
-64
-52
-42
-49
-53
-45
-48
-53
-44
-43
-51
-37
-22
-34
-43
-33
-30
-38
-40
-40
-37
-31
-38
-48
-43
-32
-18
21
73
86
55
22
11
9
-2
-26
-47
-52
-43
-30
-26
-35
-36
-32
-40
-34
-22
-54
-39
121
296
413
514
383
-64
-346
-211
-55
-83
-94
-43
-36
-45
-39
-44
-40
-18
-19
-31
-19
-1
0
-4
-6
-3
13
28
32
36
50
64
74
92
125
158
182
205
230
246
256
271
274
243
199
156
96
35
1
-35
-83
-100
-90
-101
-124
-121
-108
-108
-114
-114
-107
-99
-96
-91
-91
-95
-81
-62
-71
-87
-80
-71
-72
-67
-63
-65
-68
-72
-78
-80
-82
-83
-77
-69
-71
-65
-50
-46
-48
-38
-31
-36
-39
-35
-36
-40
-40
-32
-21
-24
-31
-21
-7
-9
-8
7
4
-10
29
108
141
107
65
48
43
37
27
13
2
2
4
5
4
-1
2
6
-4
-2
15
0
6
116
262
397
480
295
-131
-340
-196
-57
-60
-59
-38
-39
-37
-44
-63
-60
-42
-39
-33
-17
-13
-22
-18
-5
-2
2
14
18
19
32
45
52
75
109
132
152
180
204
215
225
238
244
233
201
151
93
48
20
-7
-34
-47
-51
-60
-70
-68
-58
-51
-50
-43
-27
-16
-17
-19
-13
-11
-26
-51
-73
-78
-76
-87
-103
-98
-87
-88
-80
-62
-61
-74
-80
-79
-85
-93
-96
-101
-107
-100
-85
-86
-98
-106
-107
-89
-56
-59
-90
-84
-62
-82
-103
-74
-46
-66
-74
-38
-36
-72
-61
-41
-67
-38
37
0
-86
-55
16
2
-37
-29
-11
9
62
113
118
97
63
14
7
46
42
3
8
15
-9
10
44
6
-24
32
69
33
-11
-36
2
138
270
365
436
285
-99
-308
-185
-32
-21
-65
-78
-30
24
14
-17
-24
-43
-51
11
68
17
-49
2
69
31
-9
23
43
55
101
97
66
132
219
210
208
282
311
261
280
376
371
302
337
329
128
0
83
101
-14
-60
-32
-25
-46
-101
-140
-107
-83
-100
-95
-86
-103
-99
-77
-70
-63
-63
-105
-157
-142
-58
-27
-106
-138
-41
-18
-133
-153
-51
-40
-111
-124
-119
-124
-75
-30
-73
-134
-126
-61
-22
-76
-137
-100
-54
-85
-97
-62
-70
-111
-113
-88
-66
-64
-107
-134
-46
36
-87
-226
-118
24
-9
-34
12
7
-11
2
-14
-75
-134
-86
31
-30
-198
-129
31
-13
-79
-65
-100
-54
52
-7
1
265
467
526
506
163
-313
-332
-43
-4
-131
-97
0
-17
-78
-72
-14
8
-37
-65
-36
-27
-46
-31
-25
-62
-63
-28
-39
-89
-105
-62
-10
2
6
44
100
158
180
147
159
257
287
192
142
185
171
81
35
28
-25
-56
2
32
-21
-27
38
55
87
268
459
447
365
446
620
727
816
949
1078
1242
1451
1381
797
74
-322
-495
-729
-999
-1197
-1323
-1351
-1257
-1109
-961
-781
-573
-432
-384
-327
-229
-187
-219
-211
-125
-63
-59
-48
-17
-3
9
29
31
37
75
106
103
111
141
136
107
128
175
160
102
93
136
120
13
-18
107
184
92
14
54
83
61
66
59
-47
-182
-254
-306
-387
-409
-289
-91
73
141
51
-156
-233
-79
106
280
457
309
-154
-304
-19
156
113
104
109
107
157
159
149
227
237
162
185
199
120
156
252
211
194
268
203
109
234
327
177
115
292
350
198
169
279
260
215
339
388
255
239
309
203
78
93
55
-35
-36
-74
-204
-253
-219
-218
-229
-255
-332
-380
-373
-368
-342
-351
-453
-451
-342
-415
-546
-465
-389
-474
-528
-518
-461
-341
-352
-474
-418
-327
-439
-472
-284
-212
-317
-314
-202
-175
-188
-138
-119
-187
-240
-271
-350
-459
-517
-460
-406
-507
-583
-490
-468
-539
-440
-295
-363
-492
-506
-496
-516
-540
-567
-564
-526
-501
-472
-396
-272
-87
118
242
311
484
825
1300
1930
2636
3047
3029
3072
3400
3513
3220
2907
2668
2344
1986
1612
1161
752
488
272
56
-87
-170
-290
-427
-488
-505
-564
-614
-593
-576
-611
-620
-577
-573
-620
-615
-547
-510
-532
-546
-521
-490
-474
-472
-489
-529
-579
-619
-649
-688
-736
-753
-726
-701
-706
-707
-691
-678
-660
-622
-584
-563
-549
-517
-443
-354
-277
-141
108
333
439
522
525
357
272
360
206
-225
-419
-304
-258
-313
-299
-260
-259
-244
-218
-217
-214
-196
-193
-197
-186
-179
-195
-204
-185
-155
-122
-65
-5
3
-42
-80
-83
-64
-43
-33
-29
-7
35
70
98
131
145
137
143
155
149
148
163
160
140
133
146
155
143
130
147
168
164
165
185
186
165
159
174
183
174
157
150
146
131
127
146
160
156
158
184
214
208
173
146
118
77
59
59
28
-6
-3
5
3
15
31
34
32
34
36
38
44
53
53
47
54
61
52
45
47
41
34
33
27
26
34
25
10
18
29
29
43
53
28
12
40
56
24
1
12
20
14
2
-14
-17
-9
-25
-45
-23
-2
-22
-31
-6
-2
-30
-48
-55
-67
-74
-72
-63
-48
-48
-72
-81
-31
41
65
37
19
22
3
-26
-31
-30
-48
-58
-47
-36
-37
-47
-40
-22
-43
-41
92
229
286
426
507
198
-210
-238
-71
-46
-82
-79
-87
-94
-76
-77
-97
-94
-75
-73
-85
-80
-57
-50
-74
-99
-95
-76
-67
-61
-49
-35
-17
13
45
69
95
128
151
175
215
236
216
193
183
157
124
99
64
27
0
-39
-87
-107
-109
-139
-178
-179
-165
-176
-185
-168
-153
-150
-144
-131
-119
-116
-121
-123
-124
-129
-122
-107
-107
-120
-121
-114
-117
-123
-127
-146
-176
-181
-160
-157
-179
-183
-155
-129
-128
-129
-102
-49
-12
-27
-84
-148
-204
-255
-293
-304
-301
-288
-255
-220
-193
-153
-115
-105
-85
-62
-71
-27
99
187
267
364
222
-156
-326
-187
-80
-98
-92
-62
-54
-43
-21
-2
13
22
37
58
67
75
97
111
112
130
154
161
173
198
210
224
257
282
304
352
383
381
406
453
456
438
448
457
427
376
335
312
280
238
227
234
218
204
220
233
234
245
251
245
253
269
272
274
283
288
296
302
290
283
296
297
286
294
312
309
295
288
291
297
296
288
277
264
248
239
254
290
317
316
300
289
275
247
211
181
164
163
161
139
109
108
110
72
47
61
17
-23
92
208
229
397
534
170
-363
-443
-277
-287
-370
-388
-413
-447
-460
-482
-509
-525
-555
-595
-620
-632
-643
-659
-692
-726
-743
-767
-795
-795
-798
-838
-872
-871
-866
-872
-871
-864
-870
-895
-923
-943
-964
-1008
-1088
-1177
-1220
-1210
-1215
-1278
-1350
-1367
-1348
-1345
-1361
-1366
-1352
-1320
-1285
-1285
-1333
-1403
-1452
-1457
-1434
-1376
-1211
-975
-866
-959
-1137
-1278
-1262
-1045
-827
-806
-920
-1072
-1255
-1405
-1499
-1623
-1746
-1771
-1777
-1802
-1726
-1596
-1509
-1352
-1134
-868
-173
1036
2243
3268
4236
4907
5213
5417
5429
5157
4883
4758
4892
5426
6012
6281
6396
6482
6570
6906
7356
7457
7309
7336
7684
8304
8786
8491
7586
6878
6395
5581
4536
3651
2808
1904
1106
315
-622
-1502
-2274
-3165
-4042
-4562
-4783
-4914
-4947
-4892
-4847
-4813
-4764
-4729
-4672
-4500
-4188
-3831
-3586
-3529
-3591
-3677
-3737
-3754
-3752
-3766
-3773
-3744
-3706
-3669
-3620
-3565
-3513
-3451
-3377
-3291
-3201
-3122
-3016
-2892
-2832
-2742
-2511
-2384
-2558
-2777
-2817
-2718
-2475
-2147
-1934
-1849
-1752
-1651
-1587
-1511
-1398
-1296
-1232
-1178
-1116
-1063
-1027
-989
-947
-901
-846
-776
-704
-632
-552
-481
-404
-231
73
407
712
1057
1459
1816
2043
2148
2173
2163
2142
2120
2122
2191
2313
2441
2638
2971
3328
3676
4282
5266
6276
6872
6890
6378
5547
4680
3902
3185
2539
1989
1496
1055
723
498
321
160
6
-148
-291
-406
-477
-460
-355
-271
-227
-33
420
953
1360
1627
1813
1926
1936
1837
1667
1456
1213
937
613
280
1
-270
-578
-803
-883
-934
-992
-1014
-1061
-1158
-1219
-1236
-1254
-1257
-1244
-1257
-1285
-1286
-1260
-1226
-1193
-1169
-1158
-1150
-1123
-1082
-1057
-1043
-1016
-987
-973
-956
-905
-841
-811
-770
-695
-667
-621
-416
-247
-279
-284
-275
-496
-687
-545
-357
-344
-346
-321
-341
-377
-407
-412
-377
-368
-399
-399
-379
-394
-417
-416
-409
-401
-394
-387
-355
-310
-301
-310
-292
-254
-220
-187
-152
-124
-109
-107
-103
-91
-90
-112
-145
-177
-225
-316
-413
-448
-454
-513
-584
-594
-588
-630
-701
-769
-794
-763
-759
-811
-821
-767
-749
-784
-805
-803
-824
-869
-902
-913
-928
-959
-973
-972
-1000
-1049
-1061
-1056
-1071
-1089
-1109
-1130
-1092
-1010
-1002
-1063
-1089
-1102
-1147
-1148
-1087
-1010
-840
-509
-103
356
932
1549
2134
2772
3474
4058
4398
4680
5218
5993
6746
7450
8021
8159
7975
7769
7374
6703
6089
5606
5097
4638
4208
3561
2703
1853
1053
277
-387
-880
-1264
-1595
-1866
-2075
-2250
-2394
-2493
-2558
-2610
-2642
-2655
-2657
-2637
-2591
-2544
-2507
-2462
-2408
-2364
-2340
-2326
-2320
-2324
-2342
-2372
-2399
-2399
-2376
-2355
-2327
-2271
-2209
-2169
-2127
-2069
-2009
-1953
-1888
-1829
-1787
-1738
-1673
-1617
-1577
-1526
-1456
-1399
-1359
-1305
-1239
-1186
-1146
-1094
-1032
-979
-932
-874
-811
-762
-712
-647
-575
-460
-283
-41
468
1429
2442
2871
2769
2656
2649
2553
2381
2238
2071
1825
1569
1397
1316
1245
1113
950
833
738
639
670
832
858
740
733
730
545
425
506
535
447
401
391
353
300
225
139
110
140
175
205
241
256
244
226
199
137
41
-71
-185
-276
-337
-391
-427
-419
-394
-384
-364
-322
-286
-263
-241
-225
-228
-241
-256
-274
-289
-285
-271
-262
-246
-213
