# session 6
-4
27
42
35
18
16
35
42
25
24
41
29
8
26
45
24
10
18
12
4
8
5
-3
-4
-11
-12
-1
-4
-1
59
129
130
77
23
-7
-7
2
-10
-25
-19
-22
-42
-43
-35
-45
-58
-51
-27
-24
-61
-25
127
201
139
64
-102
-358
-390
-177
-55
-66
-48
-27
-52
-59
-39
-25
-23
-32
-36
-22
-9
-15
-17
1
9
-10
-18
7
26
22
30
62
94
113
124
146
179
197
211
254
286
262
225
220
208
146
69
21
-11
-46
-73
-90
-102
-105
-107
-105
-95
-101
-113
-79
-21
7
74
278
542
737
890
987
869
595
412
258
-26
-255
-277
-267
-303
-298
-283
-291
-271
-252
-272
-281
-270
-265
-247
-228
-241
-248
-229
-231
-254
-250
-238
-254
-266
-240
-218
-238
-255
-219
-168
-154
-139
-86
-44
-39
-21
16
31
54
128
177
134
77
70
62
29
12
6
-8
-13
-12
-18
-16
-5
-6
-24
-32
-20
-20
-40
-40
-23
-21
-18
-25
-45
24
178
228
107
-107
-350
-461
-306
-66
25
11
20
47
52
47
52
56
48
49
69
82
70
55
61
76
80
80
83
87
107
151
188
187
187
229
272
291
328
375
381
366
346
298
236
181
115
40
-15
-37
-52
-79
-93
-80
-76
-91
-85
-66
-65
-63
-58
-72
-83
-72
-69
-82
-81
-71
-67
-64
-80
-108
-109
-86
-78
-91
-104
-101
-88
-79
-74
-74
-84
-91
-85
-80
-78
-76
-81
-92
-91
-84
-85
-86
-84
-90
-89
-64
-47
-67
-74
-18
54
67
33
-2
-19
-15
0
-6
-27
-36
-38
-35
-22
-18
-18
-9
-19
-26
-3
-18
-10
138
257
209
155
58
-217
-371
-196
-14
-15
-24
12
8
-12
4
37
45
19
4
21
32
27
30
39
51
70
75
62
66
95
124
149
168
177
194
228
258
281
310
337
342
321
291
263
224
171
120
74
22
-23
-39
-41
-52
-61
-59
-62
-64
-54
-48
-51
-51
-49
-47
-46
-49
-53
-49
-46
-51
-61
-62
-51
-48
-67
-77
-55
-44
-71
-85
-64
-57
-77
-81
-71
-70
-70
-72
-89
-99
-96
-104
-119
-117
-117
-135
-143
-133
-136
-149
-149
-154
-172
-180
-178
-180
-173
-167
-186
-184
-121
-81
-120
-177
-214
-253
-276
-280
-299
-291
-211
-113
-51
-13
16
34
46
63
72
54
75
172
244
238
168
-50
-339
-377
-158
-19
-38
-51
-41
-49
-47
-26
-10
-11
-15
11
68
125
181
236
258
261
286
326
351
349
338
354
393
410
418
449
473
471
486
522
537
524
517
518
483
402
326
270
202
128
85
62
27
-20
-51
-63
-77
-98
-108
-101
-94
-108
-129
-132
-136
-176
-212
-196
-159
-152
-161
-151
-134
-134
-156
-176
-174
-157
-145
-141
-149
-171
-179
-159
-151
-182
-210
-203
-192
-200
-207
-208
-216
-224
-218
-210
-212
-226
-237
-237
-245
-265
-271
-265
-267
-242
-179
-148
-160
-173
-198
-229
-220
-217
-253
-217
-87
2
18
28
39
41
39
45
76
73
62
198
390
429
428
408
121
-204
-134
102
125
75
110
128
117
137
145
118
111
125
113
94
117
142
127
109
113
112
113
132
141
136
141
157
181
211
224
229
268
313
317
313
326
323
301
278
239
174
99
35
-5
-30
-54
-72
-89
-114
-123
-109
-106
-122
-123
-118
-127
-129
-110
-85
-69
-69
-77
-72
-54
-49
-58
-58
-49
-41
-32
-28
-43
-62
-63
-57
-66
-82
-91
-99
-111
-117
-121
-133
-152
-167
-170
-163
-153
-146
-138
-132
-140
-152
-146
-137
-143
-144
-131
-136
-152
-123
-45
7
-14
-71
-109
-117
-112
-114
-129
-148
-155
-140
-122
-117
-102
-66
-54
-62
-45
-41
-38
85
247
266
225
157
-85
-311
-214
2
47
20
40
52
47
54
58
62
77
85
79
78
91
109
114
105
94
90
99
119
130
129
140
167
184
190
202
226
253
269
270
269
277
277
248
196
141
88
31
-27
-72
-95
-112
-143
-171
-167
-154
-165
-177
-160
-142
-144
-121
-52
39
195
436
661
830
960
932
715
524
381
103
-186
-248
-194
-201
-218
-195
-181
-180
-170
-162
-166
-161
-138
-123
-124
-114
-94
-99
-114
-101
-87
-107
-123
-115
-114
-126
-133
-133
-124
-113
-108
-106
-109
-108
-67
-3
30
42
52
27
-25
-64
-90
-111
-123
-140
-163
-170
-160
-155
-172
-197
-201
-180
-170
-187
-203
-194
-180
-196
-213
-182
-162
-200
-157
5
87
5
-171
-426
-599
-473
-214
-106
-102
-71
-52
-60
-44
-23
-22
-8
14
11
4
24
47
55
59
64
86
115
123
123
145
175
203
230
246
272
328
364
364
387
419
389
330
289
228
144
97
81
53
25
13
9
23
40
24
-1
10
34
46
52
47
29
19
26
41
50
46
32
24
31
49
53
43
45
46
28
22
38
54
67
70
49
36
45
39
38
65
68
40
30
23
14
37
60
38
22
35
32
17
49
129
182
158
111
92
61
15
30
65
22
-25
13
37
-12
-26
17
6
-29
-4
-2
-39
65
245
251
194
183
-38
-379
-382
-146
-80
-123
-100
-98
-125
-100
-84
-124
-133
-88
-87
-132
-140
-132
-158
-165
-148
-177
-209
-179
-168
-214
-220
-167
-145
-154
-126
-91
-104
-116
-74
-28
-40
-89
-122
-137
-180
-264
-339
-383
-421
-435
-427
-466
-536
-547
-523
-509
-424
-272
-175
-114
-19
44
49
57
57
49
110
213
232
196
223
267
241
241
314
321
262
282
326
283
253
298
309
274
274
263
225
254
295
250
223
276
278
210
199
254
276
242
220
239
242
211
195
192
185
210
262
276
232
167
131
132
114
64
32
19
1
6
26
24
15
-2
-45
-53
-26
-57
-57
96
215
156
35
-157
-430
-496
-282
-120
-124
-123
-98
-110
-122
-116
-121
-130
-129
-127
-130
-133
-132
-125
-120
-125
-125
-110
-95
-93
-94
-83
-55
-20
10
31
45
66
104
137
145
152
167
170
148
95
26
-17
-49
-101
-131
-130
-151
-183
-177
-147
-144
-164
-157
-120
-105
-105
-80
-67
-90
-95
-77
-84
-84
-44
-28
-57
-67
-60
-82
-94
-63
-45
-64
-67
-52
-53
-41
-9
-20
-63
-52
3
22
0
-23
-32
-20
6
16
-2
-17
-1
13
-6
-14
8
20
16
21
21
27
80
145
156
134
108
62
34
49
42
6
28
78
36
-48
-20
69
55
-7
4
29
55
182
297
260
195
101
-159
-353
-232
-41
-16
-40
-28
-17
-7
0
5
24
37
28
11
-7
-7
25
43
25
18
24
18
31
72
91
87
102
131
155
171
189
223
275
316
327
308
277
250
227
185
121
58
3
-41
-62
-69
-91
-120
-127
-105
-80
-84
-105
-111
-100
-91
-94
-108
-103
-67
-52
-81
-88
-55
-57
-102
-113
-81
-70
-87
-96
-95
-92
-87
-86
-92
-98
-104
-101
-81
-62
-62
-78
-91
-76
-54
-58
-67
-61
-68
-77
-57
-42
-48
-40
-31
-50
-55
-36
-50
-51
27
95
72
27
4
-20
-24
-3
-9
-37
-45
-38
-37
-40
-39
-24
-17
-23
-13
-29
-72
12
184
216
175
169
-24
-342
-359
-129
-30
-53
-43
-27
-24
-13
-14
-21
-19
-20
-8
12
7
-7
2
19
33
49
52
48
61
74
74
98
145
161
151
172
219
244
247
258
275
268
235
204
175
116
47
8
-16
-53
-87
-106
-123
-133
-135
-142
-151
-141
-114
-106
-122
-100
-20
64
185
403
635
814
950
927
694
473
331
78
-211
-290
-232
-239
-276
-257
-228
-231
-239
-227
-205
-202
-223
-222
-188
-178
-204
-211
-200
-209
-226
-223
-216
-221
-230
-243
-251
-243
-221
-182
-126
-83
-47
29
104
99
50
36
45
30
-1
-15
-13
-10
-9
-10
-10
-5
1
3
5
1
-13
-21
-18
-12
-16
-23
-14
-20
-54
2
164
217
93
-91
-335
-522
-391
-83
32
-12
-13
16
28
45
43
20
19
34
42
49
61
74
76
59
47
71
104
117
117
119
141
181
213
237
277
322
357
371
354
333
330
297
206
108
34
-30
-85
-110
-114
-125
-132
-119
-118
-150
-172
-152
-121
-115
-123
-116
-115
-147
-157
-118
-109
-147
-150
-121
-123
-145
-144
-125
-126
-139
-126
-107
-122
-124
-82
-73
-117
-121
-80
-78
-102
-87
-63
-78
-95
-78
-55
-63
-76
-36
44
90
69
26
5
1
-6
-14
-13
-19
-29
-6
26
11
-8
4
9
30
69
42
47
219
342
297
328
331
17
-264
-129
86
75
37
88
117
115
139
154
126
109
145
180
170
155
167
176
166
160
175
197
209
216
229
239
257
291
314
318
339
379
403
405
395
386
393
384
313
223
179
155
96
26
-17
-37
-46
-49
-63
-85
-99
-115
-122
-108
-104
-121
-118
-100
-113
-141
-145
-140
-144
-152
-162
-172
-180
-192
-210
-221
-221
-217
-215
-222
-235
-242
-241
-247
-264
-276
-280
-291
-306
-317
-315
-314
-330
-348
-346
-343
-364
-393
-411
-425
-436
-433
-409
-375
-383
-453
-518
-519
-471
-412
-365
-354
-365
-363
-373
-422
-466
-490
-517
-518
-509
-585
-605
-343
-45
-33
-73
-5
-137
-386
-314
-33
82
93
164
237
270
310
364
412
465
527
566
577
614
685
718
711
738
773
743
711
753
789
754
734
775
789
749
733
769
802
801
782
768
745
686
619
574
498
377
305
300
254
151
107
141
149
85
22
11
24
15
-16
-42
-52
-61
-83
-109
-128
-149
-168
-178
-202
-229
-222
-218
-245
-251
-239
-253
-266
-260
-267
-268
-253
-262
-285
-289
-287
-285
-293
-320
-323
-295
-294
-308
-302
-302
-298
-261
-240
-250
-242
-227
-230
-225
-204
-189
-187
-179
-130
-67
-59
-91
-118
-151
-174
-153
-133
-143
-154
-157
-163
-167
-164
-147
-137
-151
-143
-123
-136
-84
65
133
103
61
-137
-434
-447
-210
-91
-104
-78
-42
-47
-55
-43
-21
-9
-5
7
18
15
22
44
52
44
48
71
97
114
121
129
156
196
219
227
252
288
315
336
347
341
333
327
302
256
201
134
79
54
37
10
-13
-22
-29
-36
-30
-12
-4
-10
-15
-26
-32
-4
26
16
1
8
7
-6
-5
-3
-10
-14
-12
-20
-27
-15
-1
-9
-26
-27
-22
-22
-19
-9
-5
-3
1
-6
-28
-41
-29
-8
0
-4
-7
-3
-5
-23
-41
-37
-29
-32
-26
-13
-13
-19
-15
20
87
120
77
21
14
24
8
-18
-13
0
-22
-40
-23
-25
-43
-26
-8
-8
-3
-23
-6
145
252
187
133
58
-222
-420
-251
-25
-11
-53
-41
-30
-15
6
3
1
12
11
13
31
43
42
29
13
21
38
36
42
54
46
56
93
99
101
149
181
164
178
240
280
276
247
200
138
73
26
-15
-84
-149
-145
-126
-168
-203
-163
-120
-131
-134
-87
-30
72
297
564
755
887
899
639
277
123
67
-128
-323
-338
-293
-317
-359
-353
-315
-309
-342
-350
-322
-315
-314
-285
-281
-318
-320
-293
-298
-305
-282
-270
-280
-290
-304
-307
-273
-238
-232
-207
-145
-110
-113
-64
47
117
110
70
26
5
13
1
-38
-50
-29
-19
-17
8
26
2
-15
17
51
39
5
1
32
40
19
30
32
25
163
356
347
244
164
-69
-302
-187
66
113
74
99
119
112
105
96
104
122
112
91
98
114
99
70
81
115
105
82
117
171
171
165
203
234
238
279
351
384
384
386
371
331
277
207
137
81
21
-32
-51
-47
-52
-61
-59
-52
-55
-64
-52
-32
-43
-66
-57
-34
-38
-45
-28
-22
-46
-57
-37
-29
-50
-64
-56
-54
-55
-41
-32
-54
-79
-64
-39
-51
-69
-52
-38
-55
-64
-47
-40
-55
-64
-55
-30
11
47
43
2
-38
-61
-87
-110
-105
-101
-128
-141
-124
-127
-146
-156
-176
-157
-93
-132
-206
-74
100
85
107
158
-129
-522
-500
-255
-204
-260
-248
-222
-223
-205
-176
-181
-197
-177
-153
-157
-125
-55
-45
-74
-30
36
11
-29
29
103
110
126
190
227
257
343
403
380
368
397
394
387
435
475
430
326
237
196
183
165
137
131
177
218
191
170
193
162
108
139
131
10
-37
2
-51
-142
-146
-107
-97
-146
-234
-273
-251
-236
-261
-292
-276
-243
-267
-285
-248
-257
-281
-216
-194
-275
-296
-251
-209
-145
-152
-232
-199
-147
-224
-223
-85
-33
-56
-48
-61
-61
5
52
85
147
138
48
9
28
33
22
7
-27
-64
-72
-70
-92
-99
-54
-24
-56
-94
-114
-77
80
181
60
-44
5
-56
-196
-121
56
112
136
179
187
210
251
237
223
269
310
311
323
357
372
364
377
412
411
374
358
358
340
337
359
371
383
412
430
458
531
590
602
611
595
514
419
340
230
93
-11
-87
-164
-229
-265
-297
-347
-395
-414
-426
-456
-478
-465
-441
-431
-429
-433
-440
-429
-393
-356
-326
-297
-263
-225
-191
-161
-130
-97
-87
-127
-203
-265
-300
-323
-325
-302
-281
-271
-261
-253
-249
-239
-224
-212
-210
-213
-208
-204
-221
-233
-209
-181
-176
-164
-133
-116
-122
-101
-15
93
134
105
74
65
62
71
90
98
111
142
159
153
156
164
149
159
215
210
164
280
469
467
378
337
148
-106
-67
163
252
231
242
265
276
287
291
277
236
192
164
131
93
79
75
65
58
