# session 5
-11
-61
-79
-86
-95
-94
-97
-120
-133
-113
-89
-100
-117
-104
-97
-95
-73
-89
-105
28
219
347
499
483
42
-382
-320
-104
-98
-139
-112
-103
-101
-82
-77
-73
-54
-46
-50
-50
-50
-43
-28
-15
-4
-3
-13
-12
11
31
43
57
79
112
146
167
181
207
239
264
279
291
299
287
243
176
108
61
29
-10
-49
-60
-58
-69
-75
-68
-73
-83
-76
-64
-68
-77
-72
-57
-47
-49
-52
-49
-54
-68
-63
-54
-72
-83
-52
-29
-45
-66
-73
-65
-48
-58
-84
-75
-43
-34
-49
-69
-81
-74
-59
-59
-68
-65
-55
-61
-66
-50
-49
-77
-90
-83
-86
-65
-16
-2
12
52
1
-119
-124
-44
-57
-132
-157
-121
-78
-119
-206
-160
-60
-101
-146
-94
-85
-50
104
241
389
484
180
-303
-394
-203
-108
-64
-21
-64
-99
-48
-7
-5
23
42
17
31
94
109
100
174
252
161
2
49
242
289
191
145
146
135
187
293
323
297
323
369
389
407
397
331
265
206
137
101
63
-28
-69
-37
-69
-123
-57
28
33
85
209
295
342
366
337
292
250
176
88
0
-85
-109
-98
-145
-202
-208
-220
-244
-215
-186
-217
-260
-270
-243
-200
-199
-226
-199
-177
-242
-282
-206
-164
-244
-291
-227
-192
-247
-270
-215
-173
-192
-223
-193
-105
-48
-57
-53
-11
-1
-34
-62
-67
-41
-15
-59
-107
-47
14
-39
-67
3
27
-3
3
16
49
154
245
235
85
-196
-378
-276
-83
13
40
4
-58
-30
55
65
-3
-24
52
106
62
13
12
20
53
105
93
20
-14
32
100
128
124
117
118
144
192
204
191
235
284
254
234
272
248
173
150
115
38
18
24
-17
-43
-33
-57
-99
-82
-26
-9
-39
-64
-64
-59
-52
-46
-46
-35
-8
-6
-35
-39
-33
-70
-79
-7
14
-56
-60
-9
-43
-85
-32
10
-29
-70
-50
10
28
-32
-76
-50
-11
-5
-32
-52
-26
-1
-25
-59
-74
-57
-13
2
14
73
88
42
47
42
-39
-58
-9
-23
-33
26
34
-27
-47
-34
-39
-29
-26
-69
-37
135
248
204
149
42
-215
-359
-225
-82
-47
37
101
29
-10
68
79
-11
-31
42
85
65
25
6
1
-22
-25
36
88
71
38
48
87
108
107
146
241
298
278
283
374
448
411
334
305
298
238
118
20
-5
-17
-52
-58
-67
-147
-197
-146
-123
-163
-143
-88
-117
-170
-144
-107
-122
-118
-99
-141
-164
-96
-69
-123
-138
-121
-138
-142
-122
-123
-111
-71
-81
-139
-151
-107
-77
-92
-119
-122
-103
-81
-73
-72
-71
-78
-81
-64
-72
-108
-66
57
108
41
-24
-28
-44
-85
-75
-36
-56
-81
-64
-84
-121
-77
-21
-48
-84
-101
-124
-53
114
170
99
31
-123
-378
-439
-259
-135
-142
-140
-115
-108
-110
-123
-116
-86
-93
-91
-43
-69
-134
-76
-4
-61
-91
-6
40
8
-15
-2
36
60
50
75
156
194
174
184
223
238
239
251
255
224
162
120
130
124
59
18
51
83
69
61
82
90
73
79
116
125
107
133
182
171
119
110
154
201
198
147
138
190
190
126
130
203
206
136
136
213
231
181
171
183
164
160
188
215
212
152
111
168
220
205
190
157
138
245
356
314
249
253
215
143
152
205
198
142
108
116
136
154
173
158
99
90
121
83
91
258
365
305
218
28
-267
-319
-101
-14
-109
-118
-56
-79
-141
-156
-146
-130
-118
-139
-195
-249
-277
-280
-268
-260
-272
-298
-320
-338
-344
-335
-329
-327
-312
-302
-301
-289
-290
-319
-329
-330
-381
-432
-441
-499
-634
-728
-741
-768
-862
-950
-962
-971
-1052
-1123
-1131
-1154
-1193
-1193
-1206
-1255
-1278
-1293
-1356
-1419
-1402
-1349
-1390
-1490
-1358
-933
-558
-337
-55
194
254
370
633
782
829
963
1071
1078
1138
1252
1310
1337
1325
1282
1326
1394
1336
1283
1320
1298
1263
1345
1364
1223
1131
1109
1018
967
1012
982
892
874
840
749
728
732
653
563
524
534
611
681
696
744
707
356
-50
-64
164
206
121
175
221
71
-38
32
66
2
-34
-54
-91
-102
-100
-127
-177
-204
-173
-146
-186
-219
-206
-209
-198
-155
-185
-242
-183
-97
-97
-79
-25
-60
-127
-111
-108
-172
-216
-267
-357
-386
-382
-449
-496
-448
-419
-439
-426
-397
-415
-460
-473
-437
-408
-426
-422
-377
-378
-396
-356
-336
-376
-373
-326
-310
-321
-344
-355
-315
-276
-282
-279
-265
-281
-287
-251
-243
-300
-334
-284
-202
-169
-188
-195
-167
-160
-171
-126
-62
-56
-72
-112
-187
-175
-96
-116
-170
-112
-48
-83
-128
-113
-76
-77
-90
-7
125
211
347
416
105
-319
-346
-149
-116
-167
-134
-85
-81
-91
-102
-113
-110
-83
-49
-32
-30
-32
-41
-52
-41
-12
5
14
46
83
88
94
140
186
201
212
226
240
277
309
297
281
284
258
199
160
153
134
63
-13
2
56
19
-34
23
76
38
47
119
103
55
124
215
189
135
162
217
245
276
298
273
248
274
329
373
371
335
344
406
418
395
451
522
488
445
484
535
555
568
573
609
703
776
765
712
684
691
715
741
739
700
678
699
726
760
791
771
749
792
834
821
846
976
1129
1204
1214
1128
772
146
-431
-753
-946
-1124
-1258
-1349
-1410
-1445
-1499
-1541
-1513
-1488
-1518
-1525
-1493
-1480
-1472
-1442
-1415
-1379
-1334
-1321
-1312
-1247
-1173
-1138
-1097
-1022
-944
-873
-806
-736
-659
-593
-548
-512
-493
-502
-518
-533
-549
-566
-572
-557
-539
-548
-549
-491
-411
-355
-303
-231
-152
-90
-42
26
95
107
114
204
304
314
294
299
282
256
275
307
320
364
458
530
523
437
346
347
379
319
298
413
396
324
734
1410
1582
1438
1635
1954
2005
2074
2248
2108
1615
1187
983
836
651
470
331
259
239
164
23
29
195
237
186
222
80
-331
-507
-319
-202
-251
-257
-227
-222
-219
-242
-266
-232
-203
-237
-273
-257
-233
-228
-206
-171
-167
-170
-130
-98
-116
-138
-131
-112
-96
-90
-77
-28
29
42
13
1
31
47
-6
-100
-176
-227
-270
-308
-329
-348
-381
-396
-377
-365
-372
-365
-349
-341
-328
-315
-322
-328
-306
-276
-267
-261
-240
-233
-245
-225
-184
-185
-202
-170
-115
-102
-125
-140
-125
-96
-87
-80
-28
30
24
-17
-38
-47
-46
-6
49
64
45
30
20
1
-17
-28
-39
-44
-33
-25
-28
-14
1
-30
-50
12
35
-29
37
230
286
281
351
192
-199
-299
-70
48
6
15
58
63
61
67
71
75
86
93
92
97
112
115
114
125
134
130
134
152
166
173
194
229
249
257
280
315
336
343
355
378
390
367
319
265
194
113
60
37
8
-30
-51
-53
-57
-69
-74
-69
-76
-86
-77
-64
-70
-80
-93
-103
-93
-85
-109
-135
-127
-110
-118
-134
-132
-128
-149
-165
-151
-150
-173
-162
-138
-166
-206
-196
-183
-199
-206
-198
-210
-222
-199
-176
-175
-143
-69
-35
-71
-118
-128
-113
-113
-146
-168
-146
-117
-120
-141
-143
-130
-126
-112
-82
-102
-123
-4
160
188
186
172
-69
-355
-282
-16
48
-20
0
85
151
192
219
228
210
179
171
170
147
132
151
165
155
157
179
189
183
190
214
227
234
259
295
317
326
339
363
385
380
354
320
278
227
176
120
65
18
-11
-24
-48
-76
-85
-87
-72
-50
-88
-133
-74
-11
-65
-102
-51
-53
-107
-78
-22
-38
-56
-52
-81
-69
14
17
-71
-83
-18
-6
-43
-55
-49
-46
-37
-33
-47
-49
-29
-29
-57
-72
-66
-66
-74
-80
-82
-70
-35
19
54
21
-42
-62
-77
-127
-139
-103
-117
-167
-171
-162
-173
-160
-142
-166
-168
-124
-137
-150
-16
132
125
48
-116
-412
-522
-296
-99
-100
-99
-56
-49
-36
-4
3
16
54
74
83
104
95
57
60
88
75
52
60
54
27
39
79
83
63
84
149
201
208
196
212
242
243
219
191
140
68
6
-45
-92
-115
-120
-130
-141
-154
-184
-202
-183
-170
-178
-187
-218
-233
-166
-135
-209
-215
-142
-153
-176
-107
-76
-119
-130
-117
-83
-34
-82
-185
-173
-125
-169
-200
-169
-173
-200
-169
-100
-53
-41
-32
9
84
135
106
74
153
283
344
371
394
360
298
267
240
210
210
213
200
206
222
212
198
213
221
206
217
220
165
184
316
365
324
293
106
-205
-256
-49
68
81
124
153
204
337
412
363
335
368
361
320
312
308
258
186
139
125
112
70
20
12
18
-19
-56
-30
0
-14
-5
55
85
64
50
51
32
-10
-58
-101
-141
-188
-222
-215
-199
-214
-223
-207
-200
-207
-202
-199
-202
-190
-178
-184
-187
-182
-189
-195
-183
-171
-182
-211
-229
-229
-227
-223
-216
-228
-239
-198
-146
-161
-188
-148
-104
-131
-169
-149
-106
-116
-170
-188
-162
-155
-171
-175
-177
-188
-187
-180
-183
-176
-158
-123
-48
1
-50
-126
-135
-121
-133
-148
-149
-144
-143
-161
-192
-217
-231
-226
-219
-244
-272
-270
-232
-130
-27
-29
-77
-176
-436
-620
-456
-230
-209
-187
-90
-78
-98
-74
-71
-73
-59
-81
-94
-50
-39
-70
-38
27
-2
-81
-83
-61
-88
-66
10
23
35
134
194
166
204
406
722
1012
1157
1224
1337
1425
1370
1276
1261
1238
1151
1125
1173
1162
1125
1164
1177
1065
948
880
785
686
610
505
436
450
412
281
160
32
-133
-224
-227
-260
-337
-388
-417
-450
-483
-500
-520
-569
-597
-560
-533
-571
-591
-554
-535
-550
-544
-512
-485
-473
-475
-476
-463
-435
-420
-423
-393
-329
-320
-356
-315
-212
-176
-196
-196
-181
-176
-184
-200
-196
-168
-155
-158
-163
-184
-199
-194
-207
-248
-317
-382
-316
-157
-125
-155
-125
-281
-605
-639
-405
-317
-350
-304
-265
-281
-258
-224
-236
-238
-206
-191
-188
-160
-122
-93
-64
-32
-5
17
37
50
65
99
137
150
157
193
252
322
391
433
435
430
438
442
421
383
336
272
207
168
143
120
115
120
115
109
99
66
39
56
77
60
39
58
75
47
18
29
44
44
74
117
101
58
70
104
98
83
88
81
66
67
65
52
61
91
94
60
34
47
64
51
39
49
44
24
26
36
24
6
5
22
41
38
30
45
66
71
91
163
233
219
145
92
73
51
29
23
21
14
-1
-11
4
32
22
-18
-28
-11
-26
-5
125
223
187
106
-49
-297
-386
-217
-54
-37
-47
-23
-3
-11
-42
-51
-27
-19
-34
-34
-38
-55
-49
-27
-20
-15
-11
-15
-14
-14
-20
-9
15
28
52
85
83
71
95
122
126
131
131
102
56
3
-61
-109
-128
-141
-169
-210
-236
-233
-229
-251
-267
-249
-218
-186
-129
-8
187
409
613
811
908
733
417
239
94
-201
-416
-401
-380
-412
-368
-317
-332
-323
-303
-338
-348
-291
-271
-305
-308
-290
-304
-349
-381
-371
-348
-363
-383
-369
-368
-390
-373
-339
-346
-352
-305
-228
-151
-74
-8
29
24
-9
-28
-16
-7
-25
-49
-61
-82
-106
-100
-88
-103
-109
-70
-36
-42
-51
-32
-23
-60
-94
-61
-9
38
190
415
509
508
550
513
410
530
858
1102
1214
1280
1250
1132
1084
1157
1242
1269
1262
1242
1222
1223
1190
1046
818
617
508
471
534
734
888
740
378
97
-44
-159
-266
-335
-375
-410
-461
-534
-603
-671
-761
-858
-934
-994
-1035
-1052
-1070
-1093
-1089
-1066
-1064
-1078
-1071
-1036
-1006
-986
-912
-802
-773
-821
-823
-786
-791
-817
-827
-843
-845
-813
-802
-829
-829
-792
-779
-795
-784
-748
-730
-723
-693
-662
-640
-570
-442
-338
-195
141
473
424
100
-67
33
241
464
696
944
1172
1303
1340
1350
1352
1354
1360
1350
1327
1312
1302
1303
1313
1314
1315
1319
1323
1339
1336
1325
1403
1474
1383
1273
1178
891
642
759
849
533
159
14
-77
-181
-227
-270
-333
-362
-387
-435
-459
-452
-451
-455
-460
-484
-498
-488
-488
-495
-484
-512
-671
-949
-1202
-1278
-1182
-1036
-893
-741
-615
-537
-476
-425
-406
-411
-417
-421
-427
-420
-394
-371
-368
-351
-316
-302
-299
-269
-232
-213
-192
-164
-146
-128
-106
-96
-91
-72
-61
-67
-75
-64
-33
-10
-10
-3
19
19
11
33
50
48
67
97
99
98
103
89
80
107
133
127
118
125
125
120
130
135
115
112
147
166
151
171
239
277
252
211
192
184
176
167
158
140
121
116
112
89
71
65
50
53
81
68
78
217
323
278
238
148
-147
-331
-152
62
70
39
45
32
24
28
17
13
22
16
3
1
4
12
20
20
12
13
26
35
33
46
79
99
106
124
150
185
237
270
265
272
304
307
270
229
171
77
3
-9
-18
-65
-104
-111
-113
-125
-136
-144
-147
-132
-107
-101
-118
-127
-119
-111
-105
-96
-95
-101
-94
-88
-102
-111
-95
-80
-77
-70
-66
-85
-107
-101
-83
-75
-67
-60
-69
-78
-67
-57
-65
-67
-51
-41
-55
-67
-53
-40
-44
-38
-35
-58
-48
27
90
82
39
2
-16
-22
-26
-31
-48
-70
-59
-27
-45
-80
-57
-41
-64
-39
-31
-76
20
208
221
187
209
-6
-345
-346
-138
-83
-93
-54
-58
-80
-54
-30
-36
-48
-58
-53
-34
-25
-30
-31
-25
-20
-25
-22
-2
11
19
55
90
91
103
145
166
177
226
277
286
279
274
256
228
179
95
37
25
-14
-74
-87
-85
-107
-107
-87
-93
-94
-66
-59
-70
-54
-33
-32
-31
-30
-35
-20
-3
-20
