# session 29
-27
-10
-38
-75
-82
-71
-60
-55
-53
-45
-38
-36
-36
-36
-38
-35
-32
-37
-43
-49
-63
-72
-70
-68
-74
-84
-92
-96
-92
-81
-73
-77
-83
-78
-67
-60
-60
-62
-64
-63
-57
-60
-85
-88
-20
68
86
53
30
15
-1
-3
0
-8
-9
6
14
2
-11
-20
-31
-13
7
-26
-21
90
193
306
478
404
-11
-274
-183
-95
-134
-132
-102
-115
-117
-92
-81
-81
-75
-59
-41
-32
-24
-6
14
21
23
36
58
78
89
106
139
173
197
219
246
266
275
293
320
331
321
298
249
169
89
34
2
-18
-34
-55
-77
-88
-88
-81
-61
-30
-15
-15
-2
26
42
45
46
52
51
38
15
-8
-31
-46
-42
-31
-28
-31
-24
-15
-18
-16
9
32
40
54
70
67
64
75
84
88
91
80
56
28
-1
-8
35
90
98
68
41
25
6
-16
-36
-56
-70
-74
-84
-113
-132
-137
-155
-158
-138
-166
-191
-109
-4
77
215
218
-95
-376
-340
-240
-270
-295
-272
-268
-265
-247
-240
-240
-224
-206
-198
-197
-195
-185
-170
-158
-149
-138
-121
-105
-91
-71
-46
-27
-14
4
22
32
39
48
52
46
27
-5
-38
-71
-110
-137
-138
-138
-152
-156
-141
-130
-126
-119
-111
-94
-49
11
56
81
98
114
129
150
175
192
192
188
195
209
223
237
246
246
251
257
252
247
252
246
227
224
236
235
224
223
222
206
194
202
204
188
192
254
317
312
268
242
227
197
158
122
91
77
81
74
58
59
57
28
13
-5
-70
-76
32
124
202
314
231
-101
-299
-215
-128
-146
-150
-124
-111
-93
-65
-54
-60
-67
-72
-75
-77
-83
-98
-111
-110
-96
-86
-97
-118
-122
-111
-109
-109
-96
-86
-76
-52
-27
-16
-13
-13
-24
-46
-78
-124
-168
-203
-230
-245
-247
-247
-248
-244
-233
-221
-208
-192
-179
-174
-171
-164
-154
-141
-128
-121
-116
-105
-99
-106
-112
-111
-110
-111
-111
-112
-113
-114
-113
-112
-117
-126
-125
-117
-122
-121
-91
-57
-44
-29
-10
-8
3
63
131
147
130
112
92
90
115
124
101
95
120
134
132
147
165
154
160
198
184
171
288
431
523
653
618
226
-102
-31
114
97
81
103
83
73
87
77
70
89
96
90
101
119
122
120
116
108
101
93
90
95
105
119
136
151
167
187
199
203
205
194
171
155
135
86
20
-38
-83
-122
-149
-168
-191
-210
-216
-216
-224
-231
-225
-211
-206
-211
-208
-197
-192
-195
-194
-192
-190
-185
-179
-174
-167
-158
-146
-126
-105
-96
-91
-82
-84
-94
-85
-63
-56
-57
-53
-56
-75
-84
-73
-79
-106
-76
21
83
73
47
38
35
28
9
-14
-19
-19
-29
-41
-37
-26
-36
-46
-32
-42
-62
10
129
233
401
481
205
-167
-224
-109
-98
-125
-106
-98
-105
-107
-109
-104
-96
-106
-120
-117
-108
-94
-67
-44
-35
-21
14
50
76
109
147
180
211
243
273
301
331
353
360
350
332
317
300
266
218
175
141
98
49
19
6
-9
-21
-21
-23
-31
-38
-45
-51
-57
-66
-79
-93
-103
-112
-124
-137
-137
-116
-98
-92
-83
-65
-60
-67
-60
-37
-31
-44
-42
-27
-26
-34
-33
-37
-48
-47
-33
-19
-14
-14
10
77
132
121
77
56
57
52
28
-13
-49
-64
-72
-89
-101
-98
-108
-125
-111
-105
-135
-94
39
143
240
333
201
-111
-224
-100
-29
-58
-53
-25
-33
-43
-22
1
5
11
29
39
41
51
52
31
6
-12
-27
-37
-46
-54
-35
19
67
94
127
165
191
211
223
211
186
163
133
98
63
18
-27
-55
-78
-108
-125
-132
-146
-162
-177
-192
-206
-219
-224
-214
-206
-210
-199
-167
-151
-157
-157
-150
-153
-153
-140
-130
-131
-124
-108
-96
-88
-78
-70
-71
-74
-72
-62
-51
-41
-28
-8
8
11
11
13
8
21
97
190
210
177
163
164
160
156
146
125
118
129
120
102
121
147
139
159
208
188
174
285
401
482
604
537
154
-113
-28
77
28
-21
-21
-19
-11
-29
-79
-104
-98
-102
-108
-87
-57
-38
-22
-8
7
29
51
64
80
106
126
129
138
172
204
209
208
221
231
222
201
161
111
71
26
-30
-67
-81
-109
-146
-157
-152
-159
-171
-182
-198
-204
-191
-187
-200
-197
-183
-188
-203
-202
-194
-194
-194
-189
-190
-197
-201
-204
-208
-204
-196
-200
-205
-191
-185
-196
-182
-145
-141
-173
-184
-172
-183
-217
-215
-153
-88
-70
-82
-99
-118
-132
-127
-116
-117
-114
-91
-67
-47
-8
27
29
58
115
108
108
228
367
503
695
664
267
-38
16
117
95
80
91
90
107
130
127
123
125
118
109
112
114
102
94
99
106
103
97
100
112
116
119
135
152
162
177
193
206
220
220
203
186
163
119
73
40
5
-32
-57
-71
-81
-91
-101
-100
-85
-74
-74
-66
-43
-23
-14
-8
1
20
35
32
29
41
55
65
75
79
80
92
104
98
80
71
69
54
27
5
-5
-16
-27
-28
-23
-30
-43
-48
-51
-71
-75
-19
45
48
11
-14
-32
-53
-80
-117
-144
-148
-151
-163
-175
-191
-217
-241
-235
-217
-240
-252
-176
-68
43
176
130
-193
-438
-389
-304
-327
-338
-321
-326
-318
-294
-286
-287
-283
-272
-252
-236
-237
-232
-203
-174
-167
-164
-142
-107
-80
-68
-54
-17
28
55
77
111
145
163
173
186
195
187
167
147
123
92
69
61
60
64
75
82
85
96
111
122
135
145
147
156
174
184
190
208
233
252
258
252
249
256
263
265
274
297
312
308
302
307
304
287
280
284
276
256
236
211
184
166
153
140
131
114
94
116
178
204
174
134
109
94
89
69
29
-5
-26
-43
-50
-52
-67
-85
-68
-19
-4
-24
24
152
291
444
482
208
-156
-240
-154
-168
-217
-204
-218
-274
-287
-268
-278
-308
-327
-327
-314
-301
-298
-299
-297
-292
-289
-290
-287
-273
-253
-234
-215
-188
-161
-142
-134
-133
-121
-100
-100
-125
-148
-161
-171
-180
-199
-234
-263
-269
-264
-279
-314
-325
-315
-339
-357
-305
-253
-242
-216
-182
-167
-133
-98
-103
-103
-79
-52
-20
5
2
7
24
19
22
52
74
96
132
136
125
161
225
261
271
286
303
323
365
381
309
261
354
459
436
356
320
311
276
224
195
192
199
226
230
186
180
194
144
136
206
173
117
245
414
516
612
478
57
-179
-75
4
-42
-56
-48
-53
-45
-65
-119
-142
-143
-178
-214
-202
-191
-220
-242
-231
-209
-174
-132
-103
-72
-32
3
40
70
75
89
115
110
95
110
128
127
125
102
42
-8
-35
-67
-97
-107
-121
-150
-174
-182
-178
-166
-161
-160
-127
-51
56
227
461
691
875
930
753
549
579
536
75
-417
-519
-464
-502
-525
-493
-489
-495
-471
-451
-446
-444
-445
-445
-436
-424
-424
-424
-399
-358
-333
-310
-238
-144
-106
-121
-134
-134
-126
-112
-100
-83
-49
-13
26
80
133
161
176
198
214
211
227
266
321
478
745
941
1053
1235
1316
1054
724
598
424
63
-209
-293
-344
-396
-411
-411
-404
-393
-395
-394
-384
-390
-402
-402
-398
-394
-401
-425
-445
-457
-477
-506
-533
-545
-522
-469
-410
-340
-252
-162
-79
-1
74
149
208
239
256
255
217
169
141
118
106
125
149
153
152
157
168
177
181
198
225
238
244
257
272
289
308
325
338
350
352
350
355
358
347
335
335
340
337
328
306
267
225
197
176
142
101
107
165
193
145
88
75
60
13
-37
-72
-89
-86
-92
-114
-110
-98
-119
-128
-89
-81
-116
-64
63
120
171
265
141
-223
-428
-370
-318
-344
-360
-372
-374
-353
-365
-403
-414
-417
-435
-436
-427
-432
-437
-441
-454
-457
-442
-435
-442
-439
-424
-412
-403
-388
-370
-341
-284
-209
-146
-94
-38
20
61
76
83
99
121
137
155
184
212
223
232
262
304
363
465
607
829
1142
1402
1528
1614
1575
1199
644
283
177
147
105
63
25
-14
-53
-81
-108
-151
-199
-226
-238
-253
-278
-306
-339
-374
-388
-379
-360
-308
-230
-202
-233
-230
-168
-107
-48
32
89
104
117
126
99
62
39
9
-34
-63
-72
-73
-85
-112
-130
-125
-128
-158
-187
-200
-209
-211
-212
-233
-252
-246
-236
-228
-204
-181
-169
-163
-180
-182
-114
-75
-141
-155
-62
-35
-89
-79
-34
-36
-24
33
52
15
4
51
72
8
-52
-17
36
18
4
65
118
88
61
117
176
153
115
137
174
165
144
148
152
160
189
194
186
227
231
145
161
297
280
143
172
264
189
72
68
79
38
19
59
102
106
87
77
85
87
52
7
2
15
4
7
46
60
9
-43
-27
-4
-70
-168
-176
-108
-79
-133
-216
-242
-194
-177
-257
-288
-163
-26
69
214
218
-90
-344
-275
-163
-190
-208
-165
-132
-132
-138
-92
-29
-65
-107
3
93
7
-22
101
128
50
90
187
162
114
158
177
129
146
210
197
179
242
267
216
197
192
135
104
118
84
21
5
5
-20
-50
-90
-143
-153
-112
-97
-134
-158
-141
-134
-157
-156
-124
-131
-168
-156
-111
-110
-137
-140
-135
-147
-148
-140
-158
-181
-171
-169
-197
-197
-160
-143
-138
-115
-91
-52
21
60
15
-28
-4
11
-22
-31
11
53
61
37
38
91
102
52
44
58
47
98
205
306
406
350
49
-159
-63
58
40
23
44
35
12
-1
-16
-27
-24
-22
-32
-33
-13
1
-2
6
25
36
51
74
92
115
138
141
155
215
274
278
265
283
299
268
221
196
146
57
9
13
-9
-61
-85
-89
-99
-92
-64
-51
-63
-56
-15
-4
-51
-105
-136
-136
-93
-42
-14
17
45
31
-4
-32
-51
-43
-38
-75
-93
-59
-55
-101
-132
-132
-95
-22
19
3
-29
-71
-95
-61
-43
-85
-93
-50
-64
-125
-121
-67
-58
-72
-71
-101
-94
33
142
200
346
356
-19
-369
-300
-132
-157
-187
-118
-94
-146
-182
-164
-131
-116
-94
-55
-34
-21
19
46
36
40
83
116
116
114
145
193
218
237
272
290
287
311
325
275
237
255
237
165
126
94
10
-49
-36
-43
-104
-139
-115
-89
-94
-103
-98
-97
-108
-115
-113
-102
-97
-121
-145
-131
-112
-134
-170
-164
-140
-154
-167
-128
-118
-169
-139
-23
0
-54
-2
116
139
99
95
95
63
40
26
-26
-84
-92
-87
-100
-103
-98
-93
-61
-51
-95
-61
89
225
395
575
432
-3
-213
-110
-49
-87
-74
-36
-37
-48
-54
-64
-70
-71
-79
-93
-97
-88
-80
-75
-62
-45
-31
-15
9
46
90
127
161
210
259
285
317
376
407
384
367
355
278
189
172
163
113
65
3
-73
-92
-83
-99
-102
-89
-113
-153
-160
-137
-134
-172
-185
-145
-136
-173
-176
-145
-116
-79
-56
-65
-65
-49
-52
-74
-93
-85
-52
-44
-88
-114
-31
114
165
85
9
11
26
28
46
30
-48
-67
16
45
-24
-52
-35
-67
-95
-61
-16
23
96
253
427
342
-45
-307
-237
-125
-144
-191
-199
-178
-165
-163
-130
-108
-144
-146
-105
-118
-128
-64
-25
-30
17
72
77
99
154
177
180
213
265
304
327
345
364
370
353
327
295
249
190
125
61
8
-44
-96
-128
-142
-158
-166
-154
-129
-108
-107
-122
-126
-107
-90
-81
-63
-43
-31
-18
3
23
26
11
7
27
43
34
17
7
-6
-23
-26
-26
-54
-79
-41
29
40
-9
-48
-60
-68
-86
-113
-135
-130
-109
-102
-103
-86
-79
-101
-96
-77
-114
-109
-1
77
161
322
240
-154
-343
-190
-98
-138
-114
-77
-101
-113
-96
-92
-93
-89
-90
-82
-64
-40
-15
3
20
41
51
49
52
58
64
80
111
152
187
199
210
244
266
255
248
251
225
174
127
83
42
10
0
10
8
-16
-23
-13
-32
-59
-64
-54
-28
-17
-76
-131
-97
-60
-82
-89
-74
-80
-75
-52
-56
-64
-57
-82
-119
-106
-77
-68
-46
-25
-41
-35
42
112
112
78
66
72
68
54
33
-11
-48
-39
-6
5
-32
-75
-40
9
-36
-20
151
277
410
684
669
151
-219
-107
6
-68
-49
42
-2
-91
-82
-40
-49
-59
-38
-26
-42
-59
-57
-42
-47
-62
-32
6
-24
-36
35
71
71
147
198
155
181
269
264
234
262
250
201
193
164
86
48
41
-18
-105
-144
-128
-114
-146
-183
-174
-151
-147
-154
-160
-158
-141
-129
-146
-172
-178
-179
-197
-211
-206
-211
-227
-224
-209
-203
-200
-203
-208
-195
-191
-212
-185
-83
-14
-29
-61
-64
-65
-83
-111
-140
-164
-181
-193
-199
-195
-193
-204
-197
-178
-207
-209
-87
82
264
458
405
42
-193
-103
3
-5
12
60
79
90
104
130
168
172
156
186
219
190
165
198
228
226
248
287
291
289
310
317
313
339
365
358
364
391
400
402
397
355
321
312
244
144
123
135
89
33
-1
-49
-87
-81
-84
-110
-119
-126
-156
-175
-172
-166
-161
-167
-188
-190
-164
-156
-189
-218
-220
-222
-218
-188
-169
-172
-149
-139
-185
-181
-118
-151
-203
-65
106
50
-88
-90
-56
-101
-132
-100
-80
-98
-104
-69
-23
-16
-30
-20
-23
-33
33
134
268
510
610
312
-61
-161
-133
-122
-104
-115
-157
-182
-200
-196
-184
-202
-205
-177
-185
-198
-159
-130
-152
-163
-145
-135
-119
-54
43
