# session 3
-44
-36
-25
-18
-8
12
32
40
40
47
65
74
61
53
67
79
75
70
73
67
56
52
51
64
113
160
149
111
86
61
37
33
23
-4
-8
13
17
4
5
10
-5
-4
16
0
15
144
233
198
188
144
-81
-242
-129
8
-5
-18
27
45
41
51
53
45
45
47
43
42
43
39
30
26
30
31
23
16
22
35
53
75
91
98
106
133
174
204
214
223
230
215
175
131
91
52
8
-35
-70
-94
-114
-130
-136
-130
-109
-65
11
135
336
575
765
888
911
746
521
442
347
48
-219
-251
-225
-255
-263
-251
-253
-244
-232
-237
-229
-218
-226
-202
-185
-300
-466
-511
-484
-480
-455
-418
-422
-422
-394
-384
-385
-363
-335
-307
-268
-223
-174
-126
-93
-66
-33
-12
-6
3
12
18
31
47
65
104
165
281
491
694
781
840
903
796
536
357
266
127
-15
-83
-120
-147
-142
-134
-145
-160
-161
-155
-163
-176
-176
-174
-186
-193
-191
-196
-207
-224
-248
-264
-265
-282
-315
-325
-309
-291
-264
-228
-197
-161
-105
-51
-12
26
56
66
64
62
70
89
99
84
75
92
98
88
98
119
122
122
123
109
103
119
120
102
102
110
100
89
89
80
64
54
52
49
34
11
8
23
29
61
126
149
116
90
75
49
38
42
35
30
34
30
25
25
25
25
19
21
41
33
17
102
224
243
242
243
60
-200
-229
-103
-58
-62
-35
-28
-37
-15
21
34
33
30
18
1
-12
-20
2
75
146
156
125
87
56
51
62
67
76
89
88
88
96
99
101
105
103
93
77
52
25
-2
-30
-55
-71
-83
-94
-100
-93
-77
-69
-65
-45
-20
-22
-37
-44
-63
-98
-108
-98
-118
-144
-131
-116
-138
-153
-137
-129
-137
-136
-128
-126
-126
-120
-118
-119
-111
-98
-98
-106
-91
-37
19
36
23
5
-9
-15
-21
-42
-63
-72
-71
-55
-45
-54
-52
-50
-63
-59
-62
-70
26
155
160
156
156
-69
-340
-286
-91
-61
-92
-73
-77
-89
-59
-41
-57
-57
-27
-14
-20
-6
15
6
0
26
40
34
57
97
107
104
125
168
209
233
249
270
293
309
320
320
304
272
224
163
104
53
19
-2
-29
-60
-67
-66
-80
-87
-74
-65
-63
-57
-51
-53
-62
-74
-67
-47
-52
-72
-67
-50
-50
-54
-48
-44
-46
-48
-41
-30
-37
-61
-54
-22
-33
-68
-29
70
113
95
86
63
9
0
42
34
-26
-31
23
36
-2
-22
-17
4
16
-25
-11
153
284
321
420
377
-9
-286
-153
-9
-77
-111
-56
-54
-87
-86
-73
-69
-69
-69
-56
-38
-44
-55
-46
-45
-61
-63
-65
-81
-77
-41
-7
24
70
113
136
149
174
207
226
219
204
188
158
111
60
13
-27
-56
-76
-87
-91
-100
-116
-125
-120
-116
-114
-96
-69
-64
-79
-85
-80
-79
-78
-68
-63
-69
-72
-64
-59
-64
-67
-59
-53
-57
-55
-38
-33
-45
-43
-33
-39
-39
-20
-19
-32
4
77
109
85
48
27
26
27
11
-15
-27
-23
-19
-23
-20
-13
-19
-13
-1
-33
-20
122
220
206
259
258
-20
-264
-172
-20
-36
-63
-41
-41
-42
-31
-41
-54
-51
-49
-49
-43
-36
-33
-34
-31
-22
-12
-9
-10
-10
2
21
37
49
69
101
123
127
137
161
172
163
157
145
97
44
20
-16
-91
-153
-178
-208
-238
-226
-184
-155
-147
-132
-97
-72
-63
-31
12
25
81
234
359
341
253
187
144
108
80
60
42
20
-3
-8
-6
-15
-28
-35
-42
-47
-46
-45
-46
-52
-55
-23
31
51
30
4
-15
-26
-30
-45
-69
-77
-72
-72
-74
-64
-56
-68
-63
-35
-48
-57
48
145
118
114
114
-64
-239
-166
-36
-41
-58
-31
-36
-49
-28
-14
-18
-15
-9
-1
19
30
20
19
29
35
46
63
70
77
99
120
133
146
161
180
202
219
231
243
252
256
245
217
184
144
94
52
31
11
-20
-42
-45
-48
-55
-49
-41
-55
-70
-62
-55
-67
-70
-53
-48
-63
-70
-60
-54
-58
-62
-61
-60
-63
-68
-73
-73
-69
-65
-60
-59
-66
-71
-78
-88
-82
-64
-71
-83
-35
37
46
5
-25
-41
-59
-69
-80
-101
-112
-106
-106
-113
-105
-100
-119
-117
-88
-97
-98
-7
65
25
-46
-157
-324
-358
-208
-108
-125
-126
-99
-105
-120
-111
-99
-95
-96
-98
-89
-74
-69
-69
-61
-51
-47
-40
-29
-15
2
16
27
46
72
94
111
132
155
175
188
192
189
185
174
146
106
68
39
12
-7
-12
-17
-34
-44
-33
-22
-18
-11
-5
-7
-4
6
6
8
22
21
8
11
24
34
44
42
26
27
44
52
55
70
83
78
69
75
82
82
90
91
74
86
157
216
213
188
174
165
158
149
129
115
118
121
114
112
117
108
104
136
139
110
188
337
385
420
471
277
-54
-90
85
123
75
95
114
101
98
97
91
92
93
94
105
115
116
113
111
114
121
124
119
116
120
132
152
178
206
230
247
260
263
259
251
241
225
200
159
100
37
-9
-41
-86
-144
-176
-173
-180
-210
-233
-238
-246
-268
-291
-296
-292
-300
-316
-323
-334
-356
-369
-377
-391
-395
-384
-395
-430
-445
-434
-442
-466
-461
-444
-457
-482
-489
-502
-503
-450
-390
-389
-423
-451
-482
-506
-507
-516
-543
-549
-536
-549
-575
-565
-549
-565
-570
-566
-574
-504
-355
-260
-188
-137
-329
-653
-697
-514
-441
-459
-433
-409
-404
-388
-378
-361
-323
-313
-341
-342
-299
-262
-256
-279
-294
-246
-160
-110
-76
-5
73
136
230
340
385
390
419
387
227
110
174
292
339
346
315
253
296
501
700
751
721
694
662
652
677
670
635
659
714
743
790
854
862
845
873
916
941
960
982
1018
1078
1155
1241
1326
1399
1457
1508
1608
1800
1997
2112
2222
2372
2409
2255
2051
1898
1756
1615
1519
1442
1355
1287
1231
1160
1115
1091
1040
1008
1038
1047
1002
947
913
955
1039
1042
946
727
348
63
114
248
192
86
65
49
-2
-71
-152
-211
-246
-315
-413
-475
-489
-520
-598
-685
-746
-803
-877
-954
-1027
-1095
-1136
-1142
-1149
-1219
-1334
-1398
-1404
-1444
-1535
-1623
-1698
-1771
-1847
-1941
-2048
-2131
-2175
-2202
-2249
-2367
-2560
-2745
-2878
-3019
-3190
-3336
-3462
-3588
-3682
-3754
-3851
-3977
-4121
-4253
-4327
-4390
-4503
-4618
-4706
-4791
-4858
-4924
-5029
-5128
-5187
-5243
-5298
-5353
-5423
-5473
-5505
-5569
-5632
-5653
-5661
-5657
-5657
-5716
-5810
-5894
-5985
-6062
-6092
-6107
-6130
-6169
-6239
-6297
-6297
-6313
-6365
-6350
-6291
-5976
-4288
-242
5401
10972
15657
19511
22998
26428
28885
29245
28275
27445
26846
26089
25340
24695
24028
23355
22721
22121
21510
20881
20365
19853
19169
18725
18349
16324
11850
6581
2076
-1639
-4628
-6691
-8026
-8913
-9450
-9800
-10082
-10268
-10380
-10479
-10552
-10586
-10614
-10642
-10657
-10668
-10677
-10650
-10572
-10458
-10320
-10171
-10018
-9839
-9633
-9424
-9207
-8966
-8732
-8514
-8263
-7981
-7726
-7493
-7245
-6997
-6757
-6498
-6241
-5997
-5747
-5510
-5275
-5000
-4735
-4531
-4272
-3876
-3376
-2499
-761
1734
4135
5608
5975
5631
4981
4184
3409
2812
2257
1573
871
272
-247
-631
-823
-947
-1053
-1103
-1148
-1112
-898
-738
-669
-400
-189
-420
-615
-355
-66
-8
66
180
205
205
211
198
222
257
262
327
470
598
722
863
976
1085
1084
744
185
-292
-597
-599
-169
444
963
1391
1716
1900
2037
2165
2236
2257
2259
2238
2182
2104
2040
1995
1949
1911
1878
1828
1787
1785
1768
1692
1612
1587
1583
1535
1463
1425
1407
1371
1328
1274
1200
1161
1164
1115
1008
954
943
894
853
870
851
777
744
739
672
575
524
489
432
381
321
231
182
192
164
77
6
-19
-42
-108
-138
-39
43
-26
-149
-336
-612
-721
-578
-457
-462
-498
-547
-569
-514
-428
-375
-414
-499
-447
-316
-368
-500
-493
-501
-608
-605
-521
-543
-608
-601
-581
-616
-654
-605
-528
-563
-629
-573
-512
-559
-566
-495
-511
-598
-609
-608
-683
-701
-629
-662
-751
-702
-679
-808
-851
-801
-848
-833
-700
-725
-844
-772
-661
-708
-736
-663
-639
-659
-623
-588
-626
-686
-698
-650
-567
-509
-519
-512
-411
-312
-291
-226
-47
153
315
432
461
427
407
404
388
385
400
374
330
390
534
652
780
837
577
223
271
590
730
730
796
852
845
871
934
963
946
924
946
996
983
895
829
772
590
299
127
170
266
328
447
610
710
788
940
1117
1223
1267
1335
1441
1488
1454
1433
1411
1297
1134
1002
867
647
336
-22
-444
-927
-1263
-1312
-1295
-1362
-1350
-1288
-1511
-2067
-2634
-3015
-3253
-3370
-3393
-3447
-3503
-3384
-3125
-2857
-2494
-1979
-1457
-986
-514
-69
330
684
958
1169
1352
1443
1419
1358
1257
1081
862
567
95
-522
-1126
-1648
-2071
-2272
-2192
-2032
-1877
-1499
-913
-420
43
531
627
375
453
876
1097
1122
1219
1305
1299
1300
1315
1301
1299
1315
1306
1264
1224
1208
1204
1185
1160
1132
1092
1065
1049
1006
974
991
1008
997
990
987
976
981
985
957
928
906
840
743
662
570
451
360
315
273
228
189
136
95
99
86
17
-11
21
5
-50
-64
-64
-96
-154
-211
-224
-220
-266
-322
-323
-315
-324
-302
-262
-263
-304
-336
-330
-306
-315
-352
-369
-358
-330
-268
-203
-244
-408
-574
-661
-695
-708
-721
-756
-794
-792
-759
-746
-753
-751
-734
-695
-673
-691
-599
-369
-237
-131
95
21
-514
-834
-677
-557
-633
-646
-596
-587
-570
-524
-486
-444
-386
-330
-288
-256
-217
-161
-104
-64
-44
-32
-20
10
60
114
163
206
246
292
338
374
413
453
462
451
460
467
425
355
299
254
195
132
103
110
115
98
82
87
103
113
113
112
126
141
142
143
158
167
156
141
143
149
141
133
152
178
167
129
131
174
182
149
143
168
171
150
138
148
165
163
143
147
193
235
231
204
186
163
126
103
100
81
53
56
70
49
32
45
31
11
33
25
11
135
293
335
348
251
-98
-366
-266
-80
-56
-75
-68
-66
-57
-55
-65
-60
-51
-54
-46
-36
-46
-50
-36
-32
-38
-42
-47
-41
-13
9
14
22
43
64
87
116
144
164
176
194
215
195
133
90
58
-13
-84
-107
-130
-168
-176
-172
-184
-184
-171
-176
-188
-181
-161
-144
-143
-146
-133
-119
-126
-135
-134
-133
-132
-125
-121
-117
-113
-118
-125
-111
-97
-113
-119
-92
-84
-97
-81
-57
-67
-83
-76
-65
-57
-52
-61
-67
-49
-22
-17
-27
-5
53
78
52
39
39
12
-4
1
-24
-51
-25
1
-15
-24
-10
-19
-35
-8
-8
-62
6
214
318
324
334
131
-259
-357
-123
1
-61
-68
-12
0
-9
1
10
12
32
65
68
30
8
36
58
41
24
28
44
50
37
51
111
138
129
163
187
167
225
338
340
274
272
292
255
178
100
40
-4
-46
-84
-98
-92
-117
-181
-194
-139
-122
-154
-151
-122
-108
-88
-71
-71
-56
-48
-82
-89
-33
-11
-61
-104
-97
-58
-21
-36
-81
-74
-21
0
-9
-2
9
-1
-12
1
16
7
-4
6
16
9
2
-3
-2
-2
-31
-17
106
171
73
5
62
89
38
-22
-62
-47
12
37
-1
-47
-43
-1
21
27
11
-25
55
249
352
387
392
131
-274
-336
-117
-30
-67
-66
-69
-91
-86
-84
-104
-115
-106
-94
-91
-97
-92
-70
-58
-60
-57
-46
-44
-41
-23
-1
28
59
82
104
135
167
203
236
249
250
250
241
218
175
112
49
3
-36
-73
-97
-110
-112
-102
-103
-127
-136
-107
-81
-86
-85
-64
-64
-92
-95
-58
-32
-40
-50
-47
-52
-68
-66
-45
-35
-43
-42
-26
-16
-25
-44
-52
-40
-30
-36
-46
-38
-16
-13
-32
-35
-12
-4
-20
-23
-7
3
-8
-24
-13
36
92
120
102
59
42
43
24
13
6
-50
-77
0
33
-39
-45
12
-4
-24
-10
-39
15
213
338
391
440
212
-234
-361
-158
-59
-88
-74
-61
-76
-70
-65
-69
-60
-53
-49
-46
-60
-66
-41
-32
-52
-55
-42
-36
-26
1
32
44
50
72
98
127
176
211
209
227
265
264
243
225
186
129
72
21
4
0
-41
-76
-60
-49
-79
-99
-73
-41
-47
-59
-35
-22
-50
-67
-47
-27
-29
-50
-63
-49
-36
-38
-45
-54
-51
-37
-49
-65
-48
-40
-58
-49
-25
-33
-58
-66
-49
-25
-25
-43
-33
-9
-19
-25
8
9
-48
-66
-27
-23
-48
-31
-17
-46
-38
38
79
41
11
33
58
43
-13
-58
-43
-22
-47
-65
-35
-14
-31
-46
-30
-15
-54
-75
55
236
325
412
403
52
-349
-332
-98
-50
-111
-89
-45
-59
-81
-67
-41
-32
-42
-49
-38
-26
-36
-47
-31
-7
-4
-16
-18
0
21
39
63
90
113
142
173
198
227
256
272
291
311
298
257
212
153
85
33
-6
-39
-58
-69
-86
-100
-102
-95
-83
-76
-84
-87
-68
-51
-63
-76
-59
-48
-62
-68
-51
-38
-44
-64
-73
-58
-52
-65
-62
-43
-37
-39
-38
-42
-45
-39
-40
-49
-46
-33
-33
-37
-36
-42
-53
-44
-30
-37
-41
-27
-33
-44
-3
61
86
79
53
4
-32
-19
10
8
-24
-45
-34
-20
-28
-45
-56
-39
1
-24
-60
58
231
327
465
482
68
-377
-330
-93
-71
-107
-66
-56
-81
-77
-57
-52
-58
-56
-53
-62
-55
-27
-19
-22
-9
-7
-17
-8
10
22
46
66
66
85
140
172
164
182
240
260
233
235
264
237
140
55
23
