# session 0
-331
14132
16355
13568
13734
13849
12622
12294
12173
11483
11065
10775
10245
9827
9505
9074
8681
8361
8004
7643
7308
6975
6657
6360
6066
5778
5501
5229
4964
4711
4463
4221
3986
3757
3534
3325
3125
2929
2742
2562
2377
2202
2052
1917
1784
1657
1539
1424
1315
1214
1118
1025
935
852
778
710
644
580
523
474
428
389
360
336
311
290
277
269
263
263
270
284
300
317
339
370
399
420
440
460
463
390
154
-242
-678
-1085
-1487
-1881
-2219
-2493
-2730
-2947
-3140
-3284
-3383
-3475
-3565
-3631
-3676
-3714
-3742
-3749
-3740
-3731
-3726
-3706
-3666
-3623
-3577
-3517
-3456
-3401
-3334
-3254
-3178
-3102
-3011
-2918
-2835
-2747
-2649
-2553
-2463
-2370
-2277
-2187
-2088
-1975
-1866
-1768
-1665
-1572
-1498
-1378
-1146
-858
-611
-410
-210
2
211
364
447
628
950
1086
1107
1652
2529
2702
2121
1655
1511
1356
1187
1111
1053
960
894
927
1018
1114
1219
1174
842
554
620
792
813
802
839
855
855
870
875
877
891
903
904
897
895
899
902
901
905
906
899
891
896
910
923
939
958
968
971
991
1020
1031
1031
1040
1034
998
960
923
860
785
725
673
622
574
527
485
455
431
409
398
385
351
316
311
317
295
256
240
240
219
180
161
153
123
92
91
96
76
28
-28
-44
-22
-34
-65
-56
-77
-142
-138
-106
-150
-175
-140
-176
-245
-218
-178
-215
-241
-228
-257
-305
-297
-260
-263
-299
-290
-216
-168
-198
-238
-253
-269
-274
-266
-292
-329
-320
-306
-325
-319
-286
-300
-318
-282
-264
-247
-119
24
100
243
340
100
-250
-290
-157
-154
-212
-217
-241
-297
-307
-286
-300
-347
-366
-347
-333
-341
-339
-314
-300
-300
-287
-265
-256
-243
-197
-129
-65
-9
30
55
111
212
283
271
234
205
148
65
-12
-88
-161
-222
-283
-327
-346
-378
-406
-380
-348
-359
-367
-346
-330
-311
-274
-247
-249
-263
-276
-282
-283
-295
-311
-312
-314
-334
-346
-348
-370
-394
-384
-370
-374
-373
-369
-377
-389
-399
-392
-367
-361
-372
-361
-336
-331
-335
-326
-313
-302
-291
-268
-215
-152
-127
-142
-161
-173
-187
-190
-180
-181
-186
-165
-141
-140
-125
-95
-91
-83
-60
-74
-35
120
264
441
707
659
167
-149
-11
142
116
112
171
215
240
280
379
511
577
574
582
627
692
734
716
691
707
717
714
743
782
801
825
859
887
935
999
1035
1064
1124
1173
1176
1176
1184
1166
1134
1113
1091
1051
1006
1000
1043
1056
1018
1020
1089
1162
1200
1193
1163
1178
1260
1354
1409
1421
1425
1454
1472
1423
1314
1220
1187
1181
1166
1159
1175
1193
1191
1163
1115
1074
1042
975
854
698
537
427
378
301
189
152
102
-221
-717
-935
-768
-551
-423
-243
-136
-357
-696
-821
-883
-1125
-1449
-1714
-1985
-2485
-3494
-4961
-6403
-7518
-8480
-9485
-10475
-11191
-11292
-10793
-10177
-9655
-8941
-7933
-6807
-5648
-4581
-3733
-2964
-2130
-1313
-643
-180
277
1059
1951
2412
2537
2757
2986
3008
2975
2977
2879
2710
2596
2491
2347
2239
2190
2152
2114
2067
1997
1921
1851
1783
1724
1693
1725
1828
1921
1972
2073
2261
2459
2642
2818
2956
3060
3179
3286
3348
3397
3448
3480
3512
3552
3550
3491
3415
3331
3229
3139
3081
3015
2916
2811
2714
2631
2561
2465
2347
2219
2015
1856
1966
2091
1790
1250
869
581
261
17
-177
-410
-599
-712
-846
-981
-1049
-1117
-1233
-1337
-1413
-1489
-1544
-1582
-1641
-1701
-1715
-1719
-1756
-1792
-1800
-1815
-1833
-1819
-1819
-1843
-1788
-1691
-1629
-1454
-1251
-1416
-1808
-1891
-1718
-1655
-1661
-1588
-1514
-1484
-1449
-1401
-1353
-1306
-1264
-1216
-1174
-1155
-1137
-1092
-1042
-1016
-996
-945
-886
-854
-824
-768
-714
-676
-632
-586
-542
-483
-419
-369
-334
-310
-283
-248
-240
-263
-266
-237
-229
-241
-222
-172
-137
-117
-89
-62
-42
-1
57
89
102
127
158
186
227
265
279
291
317
336
349
385
425
429
413
416
438
457
468
479
493
496
499
517
528
527
533
534
531
548
559
545
567
625
632
589
569
558
524
498
488
465
440
443
456
448
435
431
413
398
415
399
357
412
517
572
668
727
496
163
117
239
248
198
200
206
195
190
184
179
177
178
185
191
187
183
176
163
167
186
179
157
157
159
145
148
170
176
174
193
220
225
215
216
214
184
140
106
67
5
-54
-84
-102
-128
-152
-158
-158
-174
-197
-205
-198
-201
-213
-214
-221
-243
-251
-244
-245
-257
-269
-276
-272
-270
-286
-302
-294
-286
-295
-306
-315
-326
-327
-313
-312
-333
-349
-335
-306
-310
-347
-349
-312
-320
-370
-351
-270
-237
-251
-237
-234
-281
-308
-290
-295
-325
-333
-337
-357
-377
-376
-360
-362
-379
-365
-365
-402
-335
-189
-115
13
194
24
-430
-578
-394
-312
-361
-341
-274
-223
-153
-73
-22
15
72
134
166
182
208
233
248
250
234
216
208
193
170
165
185
213
252
303
362
439
548
666
762
854
964
1053
1091
1108
1113
1076
1006
927
837
754
678
576
466
409
378
308
219
156
93
13
-27
-20
-39
-111
-184
-223
-252
-302
-355
-395
-454
-481
-358
-163
-102
-175
-243
-284
-340
-395
-444
-498
-525
-522
-530
-537
-518
-506
-505
-462
-373
-290
-241
-215
-184
-141
-119
-126
-129
-122
-124
-125
-107
-68
-17
9
8
43
86
54
54
183
290
356
493
456
77
-218
-149
-15
-19
-55
-86
-121
-123
-132
-178
-203
-197
-202
-207
-186
-157
-145
-145
-141
-130
-128
-135
-125
-82
-35
-18
-12
31
91
123
150
208
255
259
263
281
257
196
168
161
118
86
118
143
118
111
135
149
176
226
239
221
231
259
273
299
332
339
330
315
283
248
209
141
84
73
40
-41
-86
-87
-127
-195
-214
-217
-259
-296
-298
-310
-333
-320
-287
-290
-319
-323
-302
-267
-218
-200
-210
-149
-22
51
73
104
108
93
132
200
241
283
320
300
231
169
139
118
64
-11
-54
-23
87
213
301
384
406
237
20
23
186
290
296
244
186
168
132
26
-61
-80
-89
-107
-128
-177
-225
-224
-208
-231
-266
-269
-256
-259
-263
-239
-207
-179
-138
-93
-62
-30
1
17
37
65
64
23
-29
-74
-115
-165
-219
-251
-260
-276
-284
-262
-255
-283
-285
-237
-195
-200
-220
-203
-166
-151
-138
-107
-107
-144
-150
-116
-106
-128
-131
-92
-51
-57
-89
-83
-47
-51
-82
-55
25
52
9
-13
10
36
53
64
54
38
41
50
66
110
152
143
106
90
99
113
107
74
60
86
111
138
175
209
291
403
430
425
497
586
653
701
692
643
487
157
-57
14
69
41
160
284
201
77
25
-62
-145
-138
-135
-177
-153
-65
-16
47
196
278
185
79
93
156
198
219
215
197
191
203
219
229
242
245
211
167
136
71
-26
-85
-119
-188
-254
-259
-250
-287
-337
-352
-350
-357
-360
-361
-363
-347
-326
-323
-319
-303
-296
-295
-287
-278
-264
-245
-233
-217
-202
-201
-198
-178
-156
-143
-124
-103
-103
-118
-109
-82
-78
-83
-78
-89
-97
-64
-34
-23
31
93
77
31
25
20
-5
-14
-11
-23
-32
-10
18
2
-35
-34
-11
6
27
15
-7
67
172
222
339
422
183
-154
-167
-13
-3
-44
-11
18
13
19
36
50
54
54
66
87
99
108
123
128
120
117
122
127
131
136
147
160
164
169
185
186
162
158
179
177
153
148
145
108
61
37
22
2
-13
-20
-24
-25
-29
-32
-33
-41
-54
-59
-58
-50
-31
-21
-30
-30
-18
-18
-36
-55
-66
-72
-74
-69
-60
-61
-72
-76
-70
-59
-44
-38
-47
-50
-38
-31
-34
-33
-28
-29
-30
-28
-24
-24
-26
-21
-14
-20
-14
29
70
69
46
21
0
-12
-19
-28
-38
-52
-59
-43
-35
-47
-41
-36
-60
-61
-42
-50
-12
81
135
228
365
253
-93
-249
-152
-90
-100
-84
-77
-92
-89
-81
-77
-73
-72
-66
-49
-44
-48
-43
-46
-48
-21
10
12
9
15
25
51
83
96
107
140
178
196
198
209
228
224
192
163
135
91
45
18
-6
-30
-49
-62
-58
-44
-44
-57
-64
-67
-66
-56
-47
-51
-63
-72
-70
-61
-60
-65
-73
-79
-77
-68
-64
-66
-65
-60
-59
-60
-60
-55
-43
-36
-42
-47
-44
-40
-38
-35
-34
-33
-17
-1
-5
-19
-22
-16
-2
10
0
-13
-3
1
2
52
121
127
88
62
52
47
45
35
16
0
-4
5
1
-24
-28
-15
-25
-25
-9
-32
-22
83
150
214
413
453
95
-227
-182
-63
-80
-94
-77
-86
-85
-65
-61
-64
-62
-60
-51
-41
-43
-42
-25
-8
-6
-12
-9
5
23
44
60
61
75
118
157
171
188
211
226
240
248
225
183
146
107
54
5
-29
-54
-71
-81
-89
-95
-95
-97
-103
-106
-101
-96
-93
-93
-94
-92
-91
-93
-85
-74
-78
-88
-78
-59
-57
-59
-48
-36
-37
-39
-31
-25
-30
-35
-33
-26
-22
-20
-15
-14
-17
-15
-8
-8
-19
-30
-31
-20
-14
-22
-28
-23
-25
-25
8
60
86
75
49
23
5
2
0
-15
-29
-26
-16
-18
-31
-35
-25
-26
-27
-3
-18
-62
8
137
190
320
513
368
-61
-229
-95
-37
-92
-96
-66
-61
-63
-57
-51
-58
-66
-58
-42
-39
-38
-31
-26
-23
-14
-8
-7
9
35
47
53
77
108
125
145
175
196
209
223
224
215
207
176
121
79
44
-5
-41
-51
-59
-68
-70
-72
-73
-70
-67
-65
-65
-69
-72
-72
-75
-75
-70
-71
-73
-67
-62
-66
-67
-61
-52
-53
-62
-61
-46
-42
-55
-55
-40
-40
-53
-53
-40
-36
-40
-38
-29
-27
-30
-27
-22
-25
-27
-19
-12
-12
-12
-11
-4
3
-3
-15
-18
-16
-11
-6
-12
0
56
99
80
46
39
34
14
-3
-12
-11
-10
-20
-25
-14
-8
-15
-26
-33
-17
-7
-33
-5
98
159
249
434
404
50
-193
-131
-58
-82
-75
-50
-59
-57
-40
-44
-50
-40
-32
-40
-48
-36
-20
-20
-24
-14
-2
4
13
24
36
52
76
102
117
125
146
177
194
199
202
198
183
164
131
83
41
10
-20
-44
-60
-72
-71
-68
-79
-90
-84
-81
-88
-87
-75
-67
-67
-70
-70
-65
-54
-41
-39
-51
-52
-43
-51
-67
-54
-31
-35
-51
-49
-38
-27
-24
-30
-28
-16
-15
-22
-20
-18
-26
-36
-32
-18
-12
-14
-15
-17
-18
-10
-6
-17
-24
-18
-11
-9
-10
-17
-17
-5
-3
-11
9
64
95
73
36
13
0
-6
-14
-28
-38
-44
-47
-40
-35
-38
-34
-35
-43
-26
-28
-54
8
114
154
262
415
273
-90
-215
-102
-62
-97
-85
-66
-74
-71
-60
-57
-52
-54
-61
-49
-24
-23
-33
-27
-19
-13
11
20
14
43
84
79
70
107
147
167
193
220
234
247
257
252
236
207
163
118
77
38
7
-9
-15
-21
-37
-58
-67
-67
-69
-69
-70
-74
-75
-74
-79
-85
-84
-78
-74
-75
-81
-86
-81
-73
-74
-80
-76
-67
-70
-72
-55
-41
-49
-60
-55
-41
-31
-33
-40
-37
-29
-31
-34
-30
-24
-24
-29
-33
-27
-18
-19
-23
-19
-16
-17
-15
-13
-10
-13
-24
-23
-3
1
6
48
88
73
39
24
15
-7
-32
-40
-24
-15
-32
-47
-44
-41
-45
-47
-32
-8
-27
-40
56
164
217
365
460
182
-192
-210
-61
-53
-84
-57
-54
-66
-44
-29
-41
-46
-29
-15
-18
-20
-3
11
11
13
22
29
38
50
54
58
79
112
135
149
165
189
210
225
232
229
213
187
159
124
72
22
-10
-35
-60
-74
-78
-85
-93
-96
-97
-96
-91
-83
-80
-83
-85
-77
-65
-67
-82
-83
-59
-45
-61
-79
-77
-65
-67
-82
-78
-46
-29
-48
-67
-62
-66
-81
-65
-29
-25
-42
-36
-27
-29
-20
-22
-48
-35
5
-10
-62
-73
-55
-43
-35
-33
-28
-13
-13
-16
27
93
120
101
70
46
35
25
7
-1
5
4
-6
-23
-31
-13
-4
-24
-21
-4
-21
8
106
160
255
441
380
-6
-236
-145
-61
-91
-96
-69
-60
-66
-81
-86
-75
-66
-47
-20
-24
-54
-60
-46
-38
-23
-3
4
14
37
47
51
79
103
97
105
152
189
196
202
210
205
185
151
111
85
52
-7
-50
-44
-35
-50
-64
-72
-78
-61
-42
-50
-55
-36
-28
-35
-34
-27
-18
-7
-10
-18
-13
-11
-21
-19
-6
-9
-23
-26
-18
-17
-29
-36
-33
-28
-27
-32
-37
-35
-33
-38
-44
-45
-50
-60
-66
-71
-85
-98
-89
-68
-63
-69
-66
-53
-46
-41
-36
-37
-41
-38
-30
-25
-27
-21
23
84
99
68
48
47
39
26
18
7
-8
-9
4
13
10
2
-10
-21
-5
-1
-33
1
110
169
253
423
365
3
-204
-101
-27
-70
-67
-42
-58
-53
-30
-44
-65
-56
-40
-32
-25
-16
-11
-6
2
13
23
25
29
47
70
81
88
105
118
121
139
169
183
184
177
158
141
135
111
61
25
20
5
-32
-55
-54
-58
-71
-73
-66
-64
-64
-66
-71
-68
-56
-50
-56
-65
-66
-58
-53
-57
-57
-50
-47
-53
-61
-60
-51
-51
-59
-62
-57
-59
-69
-69
-58
-53
-54
-50
-48
-58
-66
-64
-56
-55
-60
-63
-55
-44
-43
-43
-39
-38
-39
-34
-34
-37
-30
-24
-24
11
79
106
75
49
48
36
16
4
-7
-21
-23
-13
-18
-23
-3
7
-15
-14
4
-20
-4
103
175
262
461
464
98
-186
-117
-13
-56
-83
-47
-32
-31
-17
-6
-2
5
-1
-16
-6
25
35
24
26
