# session 21
40
-96
-108
-9
77
99
87
38
-23
-39
-17
25
61
53
52
114
154
137
154
203
224
258
309
300
275
330
375
309
241
239
191
100
76
64
-6
-45
-23
-22
-39
-36
-42
-67
-76
-72
-71
-68
-65
-70
-85
-100
-102
-101
-109
-113
-113
-125
-126
-105
-117
-172
-205
-208
-207
-166
-104
-121
-186
-192
-166
-150
-96
-39
-46
-56
-32
-35
-65
-56
-31
-54
-109
-129
-114
-120
-127
-91
-56
-44
-2
11
-119
-247
-159
1
72
257
506
352
-104
-232
-31
36
-53
-69
-36
-44
-35
22
22
-66
-83
13
56
18
21
51
33
-11
-29
4
48
56
70
124
152
166
232
281
242
233
328
395
348
307
350
352
251
167
132
70
16
16
3
-27
-24
-38
-89
-98
-81
-87
-72
-37
-55
-103
-106
-71
-47
-55
-83
-96
-87
-75
-64
-58
-62
-69
-75
-87
-92
-70
-49
-78
-132
-146
-116
-85
-77
-69
-14
47
19
-47
-37
-3
-32
-90
-136
-171
-161
-113
-110
-151
-117
-46
-109
-186
-69
-30
-227
-183
151
233
175
318
227
-234
-389
-121
-12
-159
-221
-159
-96
-15
63
55
9
9
32
48
78
97
82
73
78
60
75
150
157
95
124
209
217
218
289
343
352
375
398
403
397
345
262
222
205
146
70
22
6
1
-28
-65
-61
-47
-62
-64
-60
-99
-118
-79
-79
-137
-149
-121
-123
-126
-106
-105
-127
-142
-148
-140
-134
-172
-211
-174
-122
-139
-158
-134
-138
-172
-168
-148
-165
-161
-106
-73
-55
-1
-8
-101
-107
-41
-88
-187
-197
-174
-131
-29
36
-1
-85
-150
-135
-124
-190
-75
251
321
186
294
326
-54
-262
-29
116
31
-16
-10
12
60
56
39
76
82
47
60
100
115
123
128
134
157
175
167
160
170
194
216
222
230
255
261
243
257
299
311
286
254
219
176
120
60
19
-23
-77
-99
-80
-91
-139
-159
-149
-158
-188
-199
-180
-152
-140
-152
-174
-185
-186
-186
-167
-130
-140
-189
-188
-160
-166
-156
-148
-207
-205
-98
-89
-160
-128
-88
-138
-152
-133
-147
-78
77
117
20
-43
-36
-42
-65
-66
-53
-8
42
-18
-116
-69
3
-66
-88
16
11
-51
73
207
251
462
615
304
-35
15
50
-108
-118
5
32
-3
3
56
92
53
22
72
86
28
26
79
83
56
60
79
94
102
107
123
154
181
194
189
188
220
267
291
288
262
229
201
152
70
3
-36
-81
-128
-150
-148
-135
-132
-146
-152
-145
-137
-130
-136
-156
-150
-124
-136
-146
-104
-98
-157
-163
-128
-145
-149
-118
-151
-183
-111
-54
-95
-144
-156
-139
-84
-51
-71
-58
33
105
67
-25
-11
136
175
3
-104
-70
-138
-219
-93
49
72
117
137
83
68
50
43
172
254
229
327
317
-70
-339
-159
32
-14
-55
-15
-11
-36
-26
18
45
15
-20
11
47
13
-22
7
37
20
9
38
53
33
36
81
111
101
109
177
232
202
168
219
271
229
156
118
74
14
-21
-39
-74
-115
-138
-130
-106
-97
-110
-118
-119
-130
-147
-155
-161
-157
-123
-95
-118
-159
-171
-171
-154
-111
-114
-183
-190
-99
-59
-114
-148
-136
-145
-135
-70
-60
-131
-138
-41
56
76
33
36
89
9
-127
-41
112
19
-169
-212
-143
-7
127
114
9
-31
-29
13
174
336
374
420
443
186
-169
-178
56
135
77
94
158
155
126
147
191
194
169
171
179
146
121
153
162
120
124
163
134
81
90
124
140
145
136
136
166
190
188
191
205
208
183
130
72
32
-3
-48
-90
-111
-116
-115
-122
-133
-126
-132
-185
-222
-195
-165
-168
-200
-259
-273
-210
-205
-292
-305
-234
-236
-297
-298
-271
-293
-312
-280
-279
-319
-299
-260
-265
-224
-190
-297
-342
-157
-12
-49
-72
-58
-99
-118
-102
-94
-21
66
22
-62
-35
22
7
9
84
121
114
200
316
350
423
492
298
-7
-55
82
151
144
135
136
143
149
153
163
174
188
197
189
189
194
178
166
186
190
167
165
168
147
144
173
197
216
234
240
247
252
242
235
238
215
151
67
-9
-52
-65
-75
-94
-116
-133
-153
-165
-145
-129
-162
-172
-102
-65
-137
-194
-153
-111
-137
-170
-167
-160
-164
-163
-161
-162
-165
-181
-178
-142
-145
-195
-200
-158
-144
-165
-192
-177
-59
72
55
-58
-102
-73
-57
-127
-253
-226
7
129
26
-13
31
-58
-117
-9
-26
-125
40
201
150
325
574
287
-173
-210
-64
-18
-45
-151
-196
-72
6
-34
-2
74
36
-26
28
108
101
76
93
98
93
119
132
121
152
198
188
180
228
251
213
203
255
285
252
213
193
153
86
21
-35
-85
-115
-127
-137
-149
-154
-155
-160
-165
-159
-144
-132
-138
-149
-126
-103
-130
-156
-123
-99
-125
-141
-118
-96
-95
-106
-98
-49
-18
-58
-79
-8
44
-6
-28
77
195
213
162
76
-46
-149
-150
-52
24
-12
-77
-74
-29
11
-13
-80
-5
134
54
-5
251
427
382
510
549
130
-173
-26
84
42
83
96
24
3
-1
-37
-47
-50
-62
-51
-59
-113
-118
-20
58
-15
-153
-153
-30
-36
-199
-209
-20
29
-84
-75
-10
-47
-11
136
166
62
-24
-16
82
143
48
-108
-218
-297
-309
-225
-137
-81
-14
13
-37
-75
-31
64
128
120
108
147
163
135
132
147
141
134
118
85
95
142
134
71
40
35
-6
-11
93
167
89
7
49
63
-59
-152
-124
-128
-212
-234
-199
-233
-324
-367
-328
-289
-301
-262
-163
-161
-176
-56
19
-6
43
-12
-304
-437
-245
-73
-37
10
32
28
118
185
92
24
106
139
46
8
84
135
104
99
148
153
152
253
325
239
161
200
228
214
247
295
296
280
274
287
315
298
220
163
154
119
51
20
24
16
-3
-20
-29
-20
-11
-29
-53
-63
-66
-65
-70
-82
-76
-65
-83
-103
-92
-87
-100
-90
-68
-75
-84
-60
-48
-64
-49
-11
-24
-49
-23
10
15
11
-22
-88
-127
-128
-149
-207
-255
-248
-208
-182
-165
-172
-241
-276
-200
-148
-134
-34
36
47
175
192
-148
-410
-311
-216
-248
-155
23
35
-131
-218
-147
-206
-385
-242
113
150
-2
36
108
56
22
44
73
102
94
70
82
128
221
298
250
203
317
412
316
238
332
397
317
231
184
121
89
90
68
81
121
60
-47
-29
45
3
-57
21
100
32
-37
12
55
28
9
6
-11
-11
6
14
17
26
39
35
0
-25
2
28
12
19
87
123
86
60
66
25
-42
-51
-31
-48
-81
-92
-84
-75
-79
-109
-125
-97
-106
-147
-70
62
101
225
416
228
-247
-391
-209
-152
-220
-209
-170
-189
-228
-236
-194
-156
-174
-197
-186
-187
-219
-236
-196
-129
-134
-192
-157
-47
-24
-74
-66
11
66
50
35
118
183
77
-1
152
273
156
90
177
92
-111
-55
98
-50
-302
-295
-159
-102
-70
-37
-35
-21
1
0
33
103
131
125
106
56
46
111
140
134
183
212
154
108
122
138
151
173
174
153
136
138
192
284
294
196
144
172
153
90
76
75
56
68
78
50
61
90
56
22
27
23
63
144
202
344
482
270
-126
-216
-85
-72
-120
-112
-127
-165
-158
-144
-161
-165
-143
-138
-151
-157
-156
-149
-131
-126
-134
-123
-100
-88
-88
-105
-115
-67
-1
4
-1
64
118
62
13
85
110
-41
-143
-63
-58
-210
-238
-134
-177
-296
-234
-143
-248
-317
-162
-79
-185
-146
14
-83
-277
-209
-106
-167
-157
-116
-240
-288
-99
43
12
-34
-63
-81
-25
53
57
16
-15
-23
5
62
120
161
162
132
137
173
163
133
169
199
135
78
114
157
149
143
153
131
78
86
198
306
393
543
528
142
-195
-109
81
76
19
12
14
36
35
-18
-28
22
27
-9
-9
11
3
-19
-27
-19
-6
5
16
21
10
15
52
83
87
102
145
186
220
249
259
249
233
209
176
133
67
-12
-61
-81
-100
-129
-166
-195
-183
-154
-166
-202
-221
-227
-200
-143
-144
-200
-195
-136
-109
-80
-56
-104
-131
-57
-38
-109
-88
-3
-19
-59
-43
-93
-156
-62
61
62
89
183
121
-63
-70
50
-29
-163
-9
114
-177
-389
-101
170
96
43
59
-69
-96
87
165
236
456
348
-164
-401
-282
-261
-231
-32
25
-78
-73
-52
-153
-243
-264
-243
-179
-153
-183
-152
-80
-83
-136
-129
-35
36
10
7
94
150
150
186
242
271
305
342
338
299
274
273
249
176
103
59
17
-36
-78
-91
-110
-154
-157
-99
-73
-115
-140
-111
-81
-70
-51
-37
-58
-72
-44
-22
-34
-23
10
3
-25
-25
-26
-35
-18
6
7
18
50
86
136
185
184
130
66
44
70
72
6
-47
-21
10
-26
-71
-46
13
42
35
0
-9
70
144
148
248
405
280
-55
-188
-79
40
72
24
-4
51
88
80
67
10
-14
52
14
-76
53
169
-13
-94
111
75
-184
-57
235
164
136
376
267
-130
-95
196
179
48
89
121
83
89
81
2
-67
-104
-112
-88
-111
-209
-254
-209
-179
-181
-170
-171
-200
-200
-146
-107
-131
-147
-103
-86
-139
-156
-101
-80
-115
-122
-95
-94
-98
-70
-50
-62
-69
-69
-55
11
89
85
25
-3
1
-15
-43
-42
-24
-33
-38
-2
23
12
5
11
16
10
-16
15
127
192
248
400
371
3
-261
-166
-43
-72
-88
-53
-45
-62
-75
-56
-21
-40
-87
-68
-33
-53
-62
-38
-39
-42
-27
-40
-49
-5
32
25
28
66
114
145
156
185
228
210
159
170
170
80
1
-17
-50
-88
-104
-157
-232
-230
-162
-114
-112
-137
-161
-160
-156
-149
-128
-136
-155
-134
-91
-14
70
92
196
322
77
-282
-182
36
-80
-166
-41
8
15
120
180
151
132
102
55
54
73
54
22
18
34
38
25
14
3
12
64
73
32
113
274
331
452
671
515
-11
-233
-57
30
-21
7
39
-3
-12
27
28
-7
-11
34
61
26
-14
4
40
32
14
47
92
90
79
98
117
146
200
228
226
258
309
322
318
317
294
249
195
130
81
60
11
-67
-97
-77
-79
-109
-133
-136
-122
-127
-177
-201
-157
-122
-138
-158
-174
-206
-211
-175
-166
-195
-201
-208
-244
-226
-174
-220
-284
-225
-166
-207
-190
-65
-1
-59
-129
-136
-124
-185
-278
-255
-130
-81
-152
-220
-219
-214
-283
-332
-225
-117
-140
-42
189
242
231
257
-36
-438
-310
22
-82
-266
-100
7
-210
-369
-260
-127
-156
-221
-143
-15
-32
-68
37
77
-15
59
253
278
262
314
223
109
216
323
281
305
416
435
381
354
350
316
223
116
55
17
-41
-87
-77
-47
-52
-85
-101
-88
-72
-54
-39
-50
-53
-9
38
63
94
118
119
133
157
151
133
140
150
140
129
124
119
119
120
116
133
180
220
209
156
107
90
79
56
38
34
33
12
-40
-46
26
24
-68
-63
-28
-89
-43
119
151
210
372
193
-269
-405
-227
-161
-203
-182
-115
-69
-108
-199
-202
-101
-30
-67
-150
-181
-160
-123
-65
-55
-126
-105
43
107
59
28
8
10
85
155
178
203
232
284
372
358
178
19
24
93
36
-143
-207
-77
27
-12
-115
-225
-241
-100
-5
-72
-116
-92
-140
-223
-235
-210
-185
-153
-131
-131
-150
-184
-195
-172
-157
-165
-157
-125
-109
-119
-107
-29
61
70
14
-19
-20
-16
-4
-8
-64
-109
-71
-27
-47
-59
-38
-18
25
39
-9
41
192
265
352
461
251
-179
-283
-80
10
-50
-79
-63
-50
-58
-76
-66
-36
-41
-69
-60
-33
-39
-60
-56
-39
-27
-15
-18
-20
16
62
73
86
133
170
189
245
316
321
281
265
256
214
161
97
19
-20
-8
-8
-32
-49
-53
-50
-50
-69
-86
-72
-36
-13
-38
-93
-107
-82
-80
-79
-28
29
25
-16
-41
-36
-35
-48
-19
70
125
111
81
26
-35
39
220
265
176
187
250
172
98
200
243
58
-99
-44
65
71
9
-8
36
24
-36
19
136
191
304
405
173
-211
-266
-82
-29
-85
-84
-63
-72
-69
-56
-78
-110
-115
-106
-111
-119
-103
-75
-73
-98
-111
-111
-127
-137
-112
-84
-80
-79
-64
-47
-22
23
79
119
122
94
63
34
-12
-67
-122
-170
-190
-192
-204
-217
-206
-186
-179
-181
-178
-162
-140
-136
-144
-128
-93
-64
-6
81
144
265
520
693
717
899
1152
955
376
-35
-177
-250
-271
-239
-212
-175
-138
-164
-226
-248
-222
-212
-258
-294
-259
-250
-320
-347
-327
-359
-364
-309
-361
-475
-439
-318
-278
-249
-152
-53
39
150
219
277
386
401
242
105
104
127
100
61
55
81
104
106
81
36
21
34
22
26
83
121
103
73
38
6
2
-9
-54
-76
-40
-2
-11
-26
-5
19
20
27
41
29
19
47
60
20
9
69
113
79
30
33
70
90
79
63
62
79
110
119
97
95
115
109
100
109
98
94
131
148
118
106
128
132
96
59
73
112
105
81
127
209
205
127
102
130
117
73
62
63
44
31
44
43
-17
-65
-23
-1
-46
20
168
216
297
413
198
-234
-349
-193
-145
-183
-177
-180
-202
-218
-259
-267
-185
-148
-230
-231
-95
-80
-230
-265
-157
-152
-269
-333
-290
-191
-125
-137
-109
-3
-3
-98
-108
