# session 1
-3
24
18
5
16
21
-16
-65
-95
-138
-199
-228
-227
-239
-246
-227
-214
-216
-210
-196
-183
-185
-204
-197
-157
-145
-158
-136
-103
-114
-129
-106
-82
-83
-80
-62
-60
-86
-106
-91
-70
-68
-72
-75
-84
-83
-59
-37
-49
-82
-92
-54
-21
-44
-75
-58
-32
-33
-35
-31
-31
-24
-23
-41
-53
-22
49
108
116
85
58
63
81
57
1
-8
30
35
7
3
36
68
59
27
47
85
73
106
235
365
512
607
381
-32
-171
-44
26
14
15
9
-5
-14
-28
-27
-14
-17
-18
-10
-23
-30
-7
-6
-39
-35
14
33
17
21
54
78
84
101
134
157
168
189
217
226
217
216
215
180
128
94
61
13
-10
-14
-45
-79
-80
-78
-89
-90
-91
-98
-83
-57
-63
-91
-93
-73
-68
-75
-77
-79
-80
-81
-89
-89
-71
-58
-59
-68
-86
-96
-86
-80
-85
-78
-66
-67
-72
-69
-62
-57
-53
-46
-47
-62
-71
-75
-96
-104
-80
-63
-69
-76
-86
-95
-80
-49
-9
49
89
82
65
58
37
9
-5
-11
-13
-7
-2
-14
-38
-47
-44
-47
-31
-12
-50
-57
57
160
226
361
355
43
-210
-164
-82
-105
-100
-67
-75
-78
-57
-42
-41
-43
-48
-48
-36
-16
0
7
10
11
11
17
36
59
78
91
97
103
129
164
173
166
189
228
238
218
198
181
153
107
64
38
11
-18
-15
0
-24
-53
-48
-43
-47
-33
-23
-37
-45
-36
-21
3
2
-42
-59
-25
-12
-24
-9
4
-18
-37
-37
-27
-5
4
-30
-51
-23
2
-10
-25
-25
-23
-29
-41
-41
-29
-37
-55
-49
-42
-55
-49
-25
-37
-64
-64
-59
-62
-54
-43
-46
-46
-24
29
73
56
21
40
58
20
-12
-5
-21
-56
-54
-25
-22
-22
8
11
-30
-31
-7
-15
27
125
175
254
359
212
-124
-222
-75
-16
-65
-75
-66
-84
-86
-58
-43
-52
-56
-49
-57
-69
-46
-14
-22
-42
-33
-15
-9
1
12
16
28
58
94
111
108
114
142
170
184
190
183
163
147
125
81
36
11
-15
-45
-55
-47
-46
-63
-88
-89
-60
-49
-71
-79
-65
-68
-75
-59
-52
-71
-82
-65
-48
-53
-70
-70
-54
-54
-69
-68
-53
-49
-52
-43
-42
-61
-56
-22
-21
-59
-68
-40
-27
-38
-43
-37
-32
-35
-40
-32
-14
-12
-33
-48
-29
-1
22
63
108
108
71
43
29
16
18
29
11
-25
-25
2
7
9
16
-6
-5
39
19
-5
105
235
328
499
501
111
-225
-171
-59
-92
-93
-51
-67
-78
-46
-41
-70
-77
-37
7
8
-19
-22
1
17
20
31
52
61
52
62
96
106
104
139
179
185
200
229
235
237
247
228
198
190
165
99
39
9
-12
-28
-40
-62
-78
-68
-57
-73
-86
-81
-84
-98
-103
-105
-110
-113
-112
-117
-128
-139
-139
-136
-140
-137
-126
-128
-136
-126
-111
-107
-98
-86
-89
-101
-105
-99
-88
-82
-94
-107
-101
-88
-84
-79
-76
-82
-91
-93
-88
-78
-56
-23
13
34
25
-11
-48
-67
-66
-56
-58
-73
-78
-70
-68
-68
-55
-41
-29
-6
-3
-10
63
176
234
313
354
118
-203
-198
-22
-22
-78
-26
23
13
11
11
16
57
83
58
46
76
88
72
76
97
98
92
113
125
108
126
166
140
125
214
282
244
221
270
330
361
316
212
185
224
173
70
52
55
-3
-35
1
31
34
26
-1
-28
-27
-4
13
-14
-41
-7
-4
-90
-94
28
78
15
-19
-19
-36
-30
-3
-6
-8
-5
-46
-69
-16
9
-52
-103
-113
-145
-187
-193
-190
-198
-196
-195
-214
-227
-217
-213
-204
-183
-210
-266
-232
-138
-121
-160
-155
-118
-100
-96
-102
-114
-116
-105
-97
-91
-81
-83
-107
-105
-72
-80
-93
7
140
215
313
315
29
-257
-216
-70
-74
-104
-72
-60
-70
-64
-60
-55
-37
-30
-43
-41
-19
-10
-18
-16
-2
9
18
29
35
40
58
90
114
132
164
206
233
246
262
276
278
276
270
244
202
162
123
80
44
23
14
10
5
-2
1
12
18
19
29
34
19
3
9
22
25
28
32
20
4
8
18
10
3
14
18
17
34
53
51
51
67
79
82
89
95
100
116
133
132
122
127
137
130
134
183
242
257
225
182
192
221
112
-114
-227
-190
-168
-184
-169
-143
-137
-142
-131
-101
-109
-122
-22
126
224
364
413
85
-322
-332
-149
-132
-166
-128
-130
-160
-128
-88
-98
-110
-105
-116
-129
-116
-95
-93
-102
-97
-82
-82
-91
-76
-46
-36
-33
-4
38
60
68
81
98
108
112
121
131
113
62
25
6
-63
-165
-192
-149
-139
-175
-191
-179
-161
-146
-159
-192
-190
-149
-137
-167
-185
-166
-135
-113
-107
-109
-97
-72
-74
-94
-79
-53
-70
-94
-90
-95
-104
-75
-50
-61
-60
-43
-49
-52
-32
-21
-27
-17
6
-1
-22
26
123
120
11
-67
-103
-172
-225
-215
-212
-243
-247
-212
-204
-243
-260
-232
-216
-209
-177
-173
-162
-39
112
204
275
177
-166
-361
-192
-2
-11
-59
-67
-81
-92
-84
-55
15
91
89
48
132
329
408
331
319
407
431
453
622
744
637
595
852
1078
1002
874
893
908
853
837
858
855
855
877
874
810
710
605
489
366
290
265
234
204
224
273
334
464
677
914
1087
1093
912
655
433
243
39
-158
-274
-305
-325
-353
-371
-443
-584
-676
-704
-778
-887
-986
-1115
-1254
-1368
-1493
-1600
-1672
-1799
-1930
-1966
-2033
-2162
-2141
-1897
-1528
-1103
-770
-636
-530
-330
-174
-89
36
91
-58
-248
-290
-196
6
248
347
313
357
444
430
423
480
463
440
496
436
267
302
473
430
276
304
395
384
373
368
296
262
316
335
301
301
326
315
290
312
351
334
299
301
298
273
270
248
156
94
139
187
204
282
354
324
356
527
582
416
234
118
1
-77
-74
-81
-152
-226
-256
-260
-272
-307
-353
-380
-392
-410
-436
-455
-477
-533
-599
-595
-543
-563
-621
-576
-505
-555
-620
-569
-528
-614
-718
-729
-696
-684
-670
-597
-455
-304
-166
30
318
624
860
970
945
854
818
919
1097
1165
1081
976
853
660
512
420
252
59
-64
-184
-282
-300
-347
-442
-451
-442
-440
-152
437
984
1511
2037
2078
1625
1384
1479
1424
1177
1014
998
1070
1145
1063
783
433
119
-126
-204
-23
256
336
165
-98
-341
-524
-629
-682
-729
-768
-770
-758
-748
-719
-680
-636
-560
-509
-553
-593
-556
-528
-535
-534
-565
-619
-599
-554
-586
-612
-569
-571
-629
-603
-521
-525
-571
-526
-451
-461
-482
-442
-440
-491
-454
-362
-367
-400
-347
-298
-316
-319
-293
-290
-286
-259
-240
-206
-121
-39
4
41
96
136
108
36
59
177
206
158
179
196
154
163
157
73
98
232
255
197
181
186
197
231
271
292
296
368
522
642
771
871
593
45
-147
72
212
158
121
131
113
90
97
110
137
176
159
122
161
187
135
133
181
170
179
243
235
212
307
401
372
332
381
479
515
460
463
567
564
450
437
427
268
139
39
-219
-412
-360
-502
-1146
-1953
-2486
-2532
-2076
-1450
-1053
-801
-392
90
357
405
397
407
461
526
498
384
316
315
299
249
201
175
173
177
154
112
91
89
71
56
96
152
154
144
168
166
119
90
83
64
48
50
58
57
35
14
-1
-22
-42
-91
-166
-127
42
192
335
389
68
-400
-460
-225
-148
-181
-136
-98
-109
-90
-63
-70
-76
-57
-43
-46
-56
-61
-50
-44
-59
-59
-30
-12
-6
20
56
79
100
138
175
196
213
236
254
265
270
257
232
206
162
96
40
4
-26
-48
-68
-96
-111
-103
-103
-117
-105
-75
-78
-89
-50
-9
-14
5
63
69
51
98
157
161
162
172
159
162
194
190
159
167
191
170
125
103
101
83
55
64
106
118
95
73
50
23
-8
-43
-41
-2
-3
-56
-93
-93
-71
-52
-62
-77
-90
-107
-58
71
179
255
218
-105
-483
-492
-266
-186
-219
-212
-206
-227
-226
-205
-191
-207
-237
-234
-213
-230
-252
-232
-220
-245
-243
-212
-216
-239
-236
-225
-230
-245
-240
-193
-130
-96
-67
-4
59
81
68
47
36
15
-48
-115
-160
-218
-259
-233
-208
-220
-211
-199
-225
-239
-216
-184
-158
-171
-224
-246
-251
-311
-387
-407
-426
-496
-567
-598
-593
-583
-606
-651
-665
-651
-625
-564
-480
-415
-348
-289
-280
-292
-307
-389
-506
-538
-524
-573
-590
-362
155
798
1358
1792
2224
2670
3008
3251
3509
3696
3657
3578
3795
4190
4320
3991
3225
2158
1221
732
442
79
-240
-415
-557
-703
-795
-841
-887
-936
-985
-1026
-1044
-1048
-1063
-1086
-1097
-1089
-1070
-1053
-1026
-983
-957
-943
-886
-810
-777
-748
-678
-619
-589
-550
-514
-523
-557
-576
-589
-621
-656
-672
-683
-703
-717
-712
-687
-648
-625
-625
-600
-536
-507
-522
-488
-432
-446
-442
-356
-334
-376
-340
-289
-295
-264
-222
-238
-228
-180
-142
-92
-85
-119
-49
54
37
7
37
67
118
153
110
112
220
290
272
246
231
211
199
207
223
214
184
188
215
217
207
198
195
212
192
147
235
427
516
527
488
221
-105
-90
120
154
109
163
204
190
195
192
162
158
169
160
153
161
161
162
179
191
182
182
201
206
204
225
236
231
268
313
319
330
335
289
276
338
366
311
255
245
229
157
60
7
11
31
15
-36
-59
-32
-24
-46
-42
-30
-51
-51
-21
-40
-92
-90
-62
-75
-103
-98
-83
-95
-117
-123
-136
-157
-148
-123
-140
-175
-164
-132
-140
-185
-216
-199
-136
-82
-91
-130
-141
-148
-178
-196
-185
-183
-198
-201
-206
-227
-218
-180
-187
-215
-193
-182
-190
-89
74
198
392
498
148
-347
-401
-193
-156
-195
-158
-149
-170
-149
-128
-122
-98
-83
-93
-100
-91
-69
-42
-39
-53
-41
-7
6
6
24
49
57
81
139
175
173
193
244
273
275
280
282
253
189
122
71
27
-17
-38
-41
-56
-80
-85
-81
-83
-61
2
90
237
456
648
800
941
888
628
552
642
386
-121
-310
-224
-227
-279
-272
-291
-315
-265
-231
-279
-312
-264
-215
-224
-259
-279
-273
-266
-302
-328
-267
-195
-184
-142
-92
-161
-241
-185
-120
-148
-158
-117
-97
-72
1
69
76
49
47
77
87
74
72
71
51
41
47
40
32
44
42
14
25
70
56
2
14
58
58
62
95
92
60
58
79
86
80
83
91
80
54
53
63
43
25
40
38
-2
-13
23
59
60
34
16
24
29
7
-23
-18
25
55
48
39
39
32
37
64
76
58
45
57
76
78
70
65
69
75
66
40
28
34
25
2
-10
-13
-23
-36
-41
-40
-49
-67
-65
-50
-65
-90
-79
-65
-87
-110
-112
-105
-88
-83
-102
-94
-70
-98
-117
-25
82
67
2
-10
-18
-50
-56
-43
-61
-79
-67
-68
-89
-84
-68
-64
-60
-82
-95
12
160
235
319
312
-9
-344
-309
-134
-105
-106
-84
-122
-151
-110
-84
-97
-90
-66
-61
-63
-49
-31
-22
-10
0
9
34
49
44
59
91
110
150
210
233
244
292
344
364
372
379
368
335
305
286
240
159
94
57
19
-23
-56
-77
-83
-89
-107
-122
-131
-159
-175
-136
-98
-106
-99
-61
-57
-93
-121
-124
-116
-112
-117
-121
-117
-102
-75
-67
-95
-113
-90
-65
-57
-50
-55
-46
31
107
78
3
-13
-2
-23
-50
-48
-41
-54
-69
-78
-80
-65
-53
-64
-46
-19
-60
-38
141
304
442
629
512
-25
-360
-220
-69
-96
-89
-45
-65
-94
-81
-48
-35
-55
-60
-35
-31
-50
-40
-14
-8
-8
6
28
43
46
63
93
101
108
155
197
205
233
281
303
304
297
271
232
191
136
59
-10
-52
-86
-113
-104
-92
-116
-133
-126
-137
-156
-144
-125
-109
-90
-96
-124
-123
-104
-97
-90
-84
-82
-76
-86
-102
-91
-95
-123
-95
-52
-92
-125
-66
-27
-76
-111
-85
-66
-68
-76
-104
-92
14
104
90
44
18
-6
-6
2
-40
-94
-102
-87
-78
-59
-29
-44
-108
-110
-62
-96
-96
80
242
333
452
345
-63
-283
-173
-79
-62
-36
-80
-139
-97
-46
-72
-118
-139
-142
-103
-22
13
-20
-9
45
52
73
127
91
38
120
197
132
86
165
229
218
236
287
297
290
287
239
179
153
99
2
-40
-24
-41
-80
-104
-144
-163
-112
-80
-101
-82
-43
-51
-50
-37
-69
-60
53
226
435
602
694
820
868
648
457
524
443
37
-276
-320
-288
-252
-238
-282
-312
-299
-276
-225
-185
-194
-210
-228
-222
-118
-12
-35
-93
-104
-146
-201
-200
-197
-209
-174
-138
-170
-209
-174
-99
-68
-69
-44
-20
-34
-32
-10
-25
-45
-15
8
-23
-60
-70
-53
-15
0
-14
-7
-9
-48
-26
39
-8
-81
5
111
36
-60
0
84
55
-17
-21
52
75
-17
-42
61
64
-41
-15
91
74
5
11
20
-6
-1
9
-13
-8
16
18
42
79
55
-9
-46
-38
-5
12
9
18
10
-35
-25
66
76
-44
-93
11
77
19
-18
0
-30
-58
-12
4
-45
-40
-8
-44
-66
-21
-24
-71
-49
-12
-44
-64
-30
-36
-62
-28
-10
-69
-109
-56
42
97
84
55
36
22
37
54
19
15
84
76
-13
8
84
51
28
91
96
110
266
417
506
548
307
-130
-242
-40
27
-24
10
9
-45
3
