# ts,sessionnum,Breath Rate,Heart Rate,ST Change,Cadence,Body Power,Body Shock,Altitude,UGE,HRV,PEP,LVET,QOS,Device QTc,Device BR,Device HR,Device ST,Device Cadence,Device Shock,FF QOS,Device Afib,Device Calories,Device Stress,Device Power,ACCY values
0,0,0,0,0,0,0,0,9027,0,0,0,0,50,499,19,0,0,20,142,49,1,0,0,148480,-238
20000,1,4,48,26,0,0,0,20437,0,61,42,0,50,391,25,47,40,0,0,89,1,0,0,108544,162
40000,2,8,46,12,0,0,0,16722,0,63,44,0,50,406,24,46,50,0,0,89,1,0,0,110592,172
60000,3,7,45,1,0,0,0,20748,0,59,42,0,95,415,11,46,40,0,0,90,1,0,8,104448,175
81000,4,11,45,21,0,0,0,16189,0,45,44,0,95,415,12,45,50,0,0,91,1,0,11,95232,176
101000,5,13,44,19,0,0,0,20836,0,46,43,0,95,411,12,44,50,0,0,91,1,0,11,109568,179
121000,6,10,46,23,0,0,0,19929,0,46,43,0,95,426,11,46,40,0,0,91,1,0,11,87040,180
141000,7,13,46,16,0,0,0,20842,0,41,41,0,95,419,12,46,40,0,0,86,1,0,13,117760,180
161000,8,8,47,21,0,0,0,16721,0,40,44,0,95,431,11,46,40,0,0,91,1,0,13,113664,181
181000,9,11,47,15,0,0,0,20761,0,39,43,0,95,452,11,47,40,0,0,91,1,0,13,94208,182
201000,10,14,45,9,0,0,0,16196,0,40,42,0,95,424,10,46,30,0,0,91,1,0,13,98304,182
221000,11,11,46,10,0,0,0,20847,0,40,46,0,95,449,10,46,30,0,0,90,1,0,13,94208,183
241000,12,11,46,12,0,0,0,19781,0,38,43,0,95,433,12,46,30,0,0,91,1,0,14,98304,184
261000,13,4,44,13,0,0,0,20778,0,45,43,0,95,437,15,46,30,0,0,91,1,0,11,90112,184
282000,14,4,46,4,0,0,0,16932,0,55,43,0,95,451,14,45,30,0,0,91,1,0,8,82944,185
302000,15,9,46,9,0,0,0,20758,0,52,43,0,95,446,13,46,30,0,0,84,1,0,9,91136,185
322000,16,4,45,21,0,0,0,15989,0,47,44,0,95,437,13,45,20,0,0,86,1,0,9,91136,185
342000,17,12,46,18,0,0,0,17616,0,66,45,0,95,448,12,46,20,0,0,80,1,0,6,92160,193
362000,18,4,48,17,0,0,0,19364,0,73,43,0,95,455,11,50,40,0,0,89,3,0,6,54272,237
382000,19,7,43,7,0,0,0,20834,0,58,44,0,95,435,11,44,20,0,0,91,3,0,8,62464,239
402000,20,6,45,9,0,0,0,16972,0,62,41,0,95,431,13,45,20,0,0,87,1,0,7,64512,238
422000,21,3,44,9,0,0,0,20763,0,78,43,0,95,427,13,43,30,0,0,85,1,0,3,62464,236
442000,22,9,45,10,0,0,0,16002,0,70,44,0,95,431,13,45,30,0,0,90,1,0,5,71680,236
462000,23,8,46,9,0,0,0,20771,0,55,43,0,95,440,12,46,40,0,0,90,1,0,8,70656,237
483000,24,4,47,6,0,0,0,19394,0,58,42,0,95,445,12,47,30,0,0,91,1,0,7,62464,237
503000,25,4,44,5,0,0,0,20673,0,65,41,0,95,432,12,47,20,0,0,85,1,0,6,68608,236
523000,26,7,47,9,0,0,0,17104,0,61,43,0,95,446,12,46,30,0,0,85,1,0,7,66560,236
543000,27,7,46,8,0,0,0,20814,0,56,40,0,95,441,12,48,30,0,0,91,1,0,8,68608,236
563000,28,10,46,11,0,0,0,15909,0,59,45,0,95,451,12,44,30,0,0,90,1,0,7,71680,235
583000,29,13,46,5,0,0,0,20731,0,58,44,0,95,445,13,47,30,0,0,90,1,0,8,74752,236
603000,30,14,46,-7,0,0,0,19235,0,56,41,0,95,458,12,46,30,0,0,84,1,0,9,68608,235
623000,31,0,48,-1,0,0,0,20763,0,82,45,0,95,453,12,47,30,0,0,90,1,0,3,76800,235
643000,32,12,46,9,0,0,0,17213,0,83,41,0,95,446,13,45,20,0,0,91,1,0,3,64512,236
663000,33,10,45,6,0,0,0,20671,0,52,43,0,95,430,12,45,20,0,0,90,1,0,9,79872,237
684000,34,11,45,6,0,0,0,15790,0,55,40,0,95,438,11,45,20,0,0,91,1,0,8,81920,236
704000,35,3,45,5,0,0,0,20720,0,61,39,0,95,452,12,46,20,0,0,91,1,0,7,73728,236
724000,36,4,46,-1,0,0,0,19137,0,51,41,0,95,437,13,46,20,0,0,91,1,0,10,73728,237
744000,37,10,45,35,0,0,0,20811,0,48,42,0,95,453,12,45,20,0,0,86,1,0,9,73728,236
764000,38,0,47,1,0,0,0,17322,0,94,42,0,95,441,13,47,30,0,0,88,1,0,1,71680,237
784000,39,0,46,3,0,0,0,20820,0,108,42,0,95,434,13,46,10,0,0,91,1,0,0,84992,237
804000,40,4,46,2,0,0,0,15681,0,72,41,0,95,445,13,46,30,0,0,93,1,0,4,83968,237
824000,41,4,48,7,0,0,0,20712,0,53,40,0,95,441,12,46,30,0,0,92,1,0,8,75776,237
844000,42,9,45,19,0,0,0,18987,0,59,42,0,95,445,11,46,30,0,0,88,1,0,8,80896,237
864000,43,11,45,0,0,0,0,20044,0,71,41,0,95,440,11,45,20,0,0,92,1,0,4,77824,227
885000,44,4,56,11,0,0,0,15861,0,92,43,0,95,490,12,50,40,0,0,87,1,0,0,108544,91
905000,45,6,63,28,0,0,0,17659,0,88,43,0,95,496,14,62,30,0,0,85,6,0,3,144384,170
925000,46,3,52,47,0,0,0,14861,0,55,45,0,95,442,12,65,40,0,0,84,6,0,16,100352,216
945000,47,10,48,-3,0,0,0,20703,0,66,44,0,95,438,11,49,20,0,0,87,6,0,5,93184,219
965000,48,4,49,10,0,0,0,17340,0,99,45,0,95,440,9,48,30,0,0,84,6,0,0,67584,211
985000,49,3,45,-1,0,0,0,20400,0,103,43,0,95,422,8,46,40,0,0,88,6,0,0,30720,203
1005000,50,3,46,8,0,0,0,17379,0,110,43,0,95,421,11,46,20,0,0,85,6,0,0,46080,201
1025000,51,0,45,5,0,0,0,20575,0,110,41,0,95,410,11,46,20,0,0,91,6,0,0,34816,200
1045000,52,10,47,8,0,0,0,15550,0,98,43,0,95,430,11,46,30,0,0,86,6,0,1,51200,200
1065000,53,0,47,3,0,0,0,20386,0,70,43,0,95,427,11,47,10,0,0,86,6,0,4,37888,199
1086000,54,0,47,-4,0,0,0,18168,0,70,45,0,95,442,11,47,20,0,0,82,6,0,4,72704,194
1106000,55,11,46,-10,0,0,0,20626,0,98,41,0,95,428,10,45,10,0,0,84,6,0,0,75776,196
1126000,56,7,46,2,0,0,0,17593,0,109,43,0,95,423,11,46,20,0,0,85,6,0,0,65536,198
1146000,57,3,61,-20,0,0,0,9349,0,83,42,0,95,458,11,47,30,44,2,75,1,0,3,141312,-497
1166000,58,3,71,-14,0,0,0,8717,0,38,46,0,95,511,17,74,40,94,22,76,1,0,10,132096,-945
1186000,59,9,66,34,0,0,0,12554,0,20,44,0,95,496,12,67,40,84,32,80,1,0,20,103424,-953
1206000,60,3,68,1,0,0,0,11146,0,20,45,0,95,460,13,69,0,146,38,68,1,0,34,105472,-711
1226000,61,4,49,15,0,0,0,18122,0,32,45,0,95,423,13,63,40,0,0,90,1,0,22,74752,166
1246000,62,10,47,17,0,0,0,17725,0,54,44,0,95,410,13,47,30,0,0,91,1,0,10,46080,174
1266000,63,7,48,18,0,0,0,20655,0,61,42,0,95,428,12,47,30,0,0,92,1,0,7,58368,174
1287000,64,4,46,10,0,0,0,15444,0,59,45,0,95,419,12,48,30,0,0,87,1,0,8,47104,174
1307000,65,10,45,10,0,0,0,20816,0,91,41,0,95,412,11,44,20,0,0,88,3,0,1,52224,175
1327000,66,4,49,12,0,0,0,16802,0,112,41,0,95,436,12,45,20,0,0,83,3,0,0,75776,167
1347000,67,8,46,13,0,0,0,20012,0,102,44,0,95,413,12,46,30,0,0,87,3,0,0,59392,190
1367000,68,4,44,12,0,0,0,17823,0,79,45,0,95,418,11,45,30,0,0,90,6,0,5,46080,193
1387000,69,8,45,12,0,0,0,20698,0,66,46,0,95,416,11,44,30,0,0,90,1,0,7,52224,194
1407000,70,7,46,7,0,0,0,15339,0,71,42,0,95,437,11,46,30,0,0,90,1,0,5,59392,193
1427000,71,10,46,13,0,0,0,20854,0,64,43,0,95,441,12,45,30,0,0,91,1,0,6,57344,193
1447000,72,4,46,9,0,0,0,18419,0,49,43,0,95,441,11,47,20,0,0,91,1,0,10,63488,194
1467000,73,10,48,11,0,0,0,20651,0,40,42,0,95,448,11,47,30,0,0,89,1,0,13,77824,196
1488000,74,4,47,15,0,0,0,17925,0,43,44,0,95,441,12,48,30,0,0,88,1,0,12,78848,195
1508000,75,10,46,9,0,0,0,20664,0,54,45,0,95,433,12,47,20,0,0,87,6,0,9,88064,194
1528000,76,8,47,23,0,0,0,15240,0,61,43,0,95,431,13,46,20,0,0,87,6,0,5,91136,193
1548000,77,11,46,2,0,0,0,20834,0,82,42,0,95,442,12,46,30,0,0,91,1,0,3,89088,195
1568000,78,4,48,10,0,0,0,18172,0,86,42,0,95,453,14,47,30,0,0,83,6,0,3,114688,195
1588000,79,6,46,0,0,0,0,20683,0,86,45,0,95,432,12,48,20,0,0,80,6,0,3,106496,196
1608000,80,3,46,3,0,0,0,17994,0,77,41,0,95,434,11,46,20,0,0,84,6,0,4,115712,196
1628000,81,3,44,5,0,0,0,20769,0,64,43,0,95,420,11,44,20,0,0,91,3,0,7,122880,195
1648000,82,0,47,4,0,0,0,14298,0,39,42,0,95,434,12,46,30,0,0,90,3,0,13,119808,178
1668000,83,7,50,1,0,0,0,20576,0,49,41,0,95,461,15,48,30,0,0,85,1,0,9,119808,151
1689000,84,11,47,-1,0,0,0,18077,0,66,43,0,95,444,12,50,20,0,0,83,6,0,5,136192,153
1709000,85,3,53,-4,0,0,0,15588,0,72,44,0,95,451,15,46,20,0,0,86,6,0,5,107520,163
1729000,86,4,47,7,0,0,0,17962,0,73,45,0,95,439,12,50,30,0,0,86,6,0,6,36864,209
1749000,87,4,43,14,0,0,0,20848,0,85,43,0,95,417,11,44,20,0,0,91,3,0,2,35840,209
1769000,88,8,45,8,0,0,0,15140,0,79,43,0,95,437,11,45,30,0,0,91,3,0,3,34816,208
1789000,89,3,46,4,0,0,0,20743,0,58,41,0,95,442,11,46,30,0,0,91,1,0,9,41984,209
1809000,90,4,47,8,0,0,0,18054,0,53,43,0,95,438,12,47,30,0,0,91,1,0,9,43008,209
1829000,91,4,51,10,0,0,0,19402,0,47,43,0,95,467,12,47,20,0,0,81,1,0,11,43008,208
1849000,92,6,46,4,0,0,0,18200,0,57,43,0,95,440,11,51,20,0,0,85,6,0,8,45056,210
1869000,93,0,45,2,0,0,0,20729,0,78,43,0,95,433,11,45,20,0,0,84,3,0,4,48128,209
1890000,94,10,47,6,0,0,0,15245,0,75,42,0,95,439,11,45,30,0,0,92,3,0,4,46080,211
1910000,95,14,47,13,0,0,0,20666,0,59,44,0,95,432,13,48,20,0,0,83,3,0,8,47104,210
1930000,96,11,47,-1,0,0,0,17870,0,65,42,0,95,432,13,47,10,0,0,84,6,0,6,43008,209
1950000,97,6,47,2,0,0,0,20702,0,77,41,0,95,427,14,46,30,0,0,83,6,0,4,46080,210
1970000,98,12,47,-1,0,0,0,18329,0,84,41,0,95,446,12,47,10,0,0,82,6,0,4,49152,211
1990000,99,3,47,-3,0,0,0,20737,0,84,42,0,95,418,12,47,20,0,0,84,6,0,2,41984,210
2010000,100,4,47,-1,0,0,0,15313,0,75,42,0,95,439,12,47,10,0,0,82,6,0,3,40960,211
2030000,101,4,47,-6,0,0,0,20707,0,77,40,0,95,438,12,47,10,0,0,85,4,0,4,38912,210
2050000,102,7,47,-5,0,0,0,17801,0,82,43,0,95,426,14,47,10,0,0,82,6,0,4,35840,210
2070000,103,7,46,10,0,0,0,20708,0,82,42,0,95,437,12,47,10,0,0,81,6,0,4,51200,210
2091000,104,7,47,-6,0,0,0,18509,0,81,43,0,95,432,11,46,30,0,0,85,6,0,3,47104,210
2111000,105,7,48,-4,0,0,0,20764,0,87,43,0,95,456,13,48,20,0,0,83,6,0,2,36864,210
2131000,106,9,47,-4,0,0,0,15388,0,95,41,0,95,419,13,48,10,0,0,81,6,0,0,40960,212
2151000,107,4,48,-2,0,0,0,20745,0,98,40,0,95,428,13,48,10,0,0,84,4,0,0,39936,211
2171000,108,10,47,-5,0,0,0,17662,0,75,42,0,95,420,14,47,10,0,0,82,6,0,5,44032,210
2191000,109,4,47,-5,0,0,0,20623,0,75,43,0,85,431,16,46,0,0,0,89,6,0,5,46080,210
2211000,110,7,47,-6,0,0,0,18598,0,0,44,0,81,416,14,47,0,0,0,81,6,0,0,29696,211
2231000,111,4,49,-4,0,0,0,20679,0,87,41,0,95,433,14,49,20,0,0,86,6,0,0,29696,210
2251000,112,9,57,11,0,0,0,12577,0,88,43,0,95,454,14,49,20,0,0,81,6,0,2,72704,183
2271000,113,14,45,-9,0,0,0,20824,0,91,42,0,95,423,13,47,0,0,0,90,6,0,4,45056,179
2292000,114,5,46,4,0,0,0,16456,0,67,41,0,95,438,12,46,10,0,0,84,1,0,6,99328,189
2312000,115,14,46,-7,0,0,0,20748,0,66,40,0,95,441,11,45,10,0,0,85,1,0,6,87040,194
2332000,116,0,47,53,0,0,0,14995,0,50,41,0,95,458,13,47,20,0,0,88,1,0,6,90112,41
2352000,117,4,59,-31,0,0,0,14064,0,50,40,0,95,485,13,47,30,0,0,79,1,0,5,107520,-204
2372000,118,3,51,-4,0,0,0,15519,0,67,40,0,95,442,12,51,10,0,0,90,1,0,5,87040,94
2392000,119,3,49,-11,0,0,0,20981,0,67,39,0,95,433,15,50,0,0,0,80,1,0,15,83968,93
2412000,120,3,47,-10,0,0,0,17577,0,0,40,0,82,446,16,47,10,0,0,82,1,0,0,75776,94
2432000,121,4,47,-9,0,0,0,20898,0,84,41,0,95,431,15,47,0,0,0,92,1,0,3,87040,94
2452000,122,7,54,-3,0,0,0,16897,0,98,42,0,95,468,16,49,10,0,0,86,1,0,1,93184,96
2472000,123,7,46,-11,0,0,0,20779,0,109,40,0,95,435,13,52,0,0,0,86,1,0,0,63488,118
2493000,124,3,47,-17,0,0,0,15568,0,89,43,0,95,439,12,46,10,0,0,90,1,0,0,76800,120
2513000,125,4,46,-13,0,0,0,20895,0,89,42,0,95,429,13,45,0,0,0,87,4,0,0,63488,118
2533000,126,4,48,-17,0,0,0,15915,0,89,40,0,95,452,10,46,10,0,0,91,1,0,1,90112,115
2553000,127,4,46,-18,0,0,0,20823,0,89,40,0,95,434,13,48,0,0,0,84,1,0,3,112640,121
2573000,128,4,46,-13,0,0,0,18861,0,0,41,0,91,427,14,46,-10,0,0,91,1,0,0,122880,122
2593000,129,3,48,-17,0,0,0,20736,0,85,41,0,95,423,14,48,0,0,0,85,1,0,2,121856,121
2613000,130,8,47,-17,0,0,0,15660,0,77,41,0,95,446,14,48,0,0,0,82,1,0,5,117760,122
2633000,131,4,48,-23,0,0,0,20820,0,73,41,0,95,456,12,49,-10,0,0,80,1,0,4,117760,122
2653000,132,7,48,-26,0,0,0,17402,0,98,42,0,95,451,12,48,0,0,0,82,1,0,4,102400,121
2673000,133,10,49,5,0,0,0,20748,0,98,41,0,95,442,13,49,0,0,0,85,1,0,0,105472,121
2694000,134,3,49,-14,0,0,0,16307,0,92,42,0,95,439,15,49,0,0,0,83,1,0,2,100352,133
2714000,135,3,48,-8,0,0,0,20803,0,77,43,0,95,418,13,48,10,0,0,87,1,0,5,79872,176
2734000,136,4,48,-6,0,0,0,15753,0,71,39,0,95,441,13,49,10,0,0,80,1,0,5,77824,176
2754000,137,10,52,-39,0,0,0,15696,0,71,41,0,95,445,13,49,10,101,0,80,6,0,4,87040,83
2774000,138,4,49,-39,0,0,0,15828,0,82,37,0,95,444,9,62,-30,0,0,91,1,0,3,72704,-219
2794000,139,10,48,-42,0,0,0,17823,0,61,36,0,95,431,10,48,-30,0,0,91,1,0,4,71680,-218
2814000,140,7,48,-43,0,0,0,17211,0,100,38,0,95,426,13,48,-40,0,0,91,1,0,4,70656,-218
2834000,141,11,47,-37,0,0,0,18058,0,100,37,0,95,430,14,48,-30,0,0,89,1,0,0,75776,-219
2854000,142,10,49,-50,0,0,0,14935,0,109,35,0,95,444,12,48,-40,0,0,90,1,0,1,72704,-218
2874000,143,3,49,-46,0,0,0,18463,0,75,36,0,95,435,12,49,-30,0,0,80,1,0,4,57344,-220
2895000,144,7,48,-44,0,0,0,16286,0,69,37,0,95,429,11,49,-40,0,0,91,1,0,6,67584,-220
2915000,145,4,49,-51,0,0,0,17323,0,84,37,0,95,458,11,50,-40,0,0,91,1,0,2,64512,-220
2935000,146,10,48,-48,0,0,0,18081,0,100,37,0,95,439,12,49,-40,0,0,83,1,0,0,62464,-220
2955000,147,3,49,-35,0,0,0,18000,0,87,37,0,95,442,12,49,-40,0,0,92,1,0,2,68608,-221
2975000,148,7,48,-50,0,0,0,14953,0,105,36,0,95,457,11,48,-40,0,0,91,1,0,2,67584,-220
2995000,149,4,50,-54,0,0,0,18891,0,105,37,0,95,451,13,49,-40,0,0,91,1,0,0,53248,-221
3015000,150,9,50,-48,0,0,0,16155,0,102,38,0,95,445,13,50,-40,0,0,92,1,0,0,73728,-222
3035000,151,10,48,-48,0,0,0,18201,0,52,39,0,95,433,11,48,-40,0,0,91,1,0,7,53248,-221
3055000,152,9,48,-53,0,0,0,18135,0,78,36,0,95,456,13,48,-40,0,0,91,1,0,3,53248,-221
3075000,153,10,50,-51,0,0,0,18740,0,92,37,0,95,451,12,48,-40,0,0,92,1,0,2,61440,-222
3096000,154,3,51,-51,0,0,0,14437,0,61,39,0,95,446,14,51,-40,0,0,84,1,0,10,71680,-221
3116000,155,13,49,-51,0,0,0,19895,0,34,38,0,95,439,14,50,-40,0,0,90,1,0,10,59392,-222
3136000,156,11,49,-51,0,0,0,15804,0,88,36,0,95,455,15,49,-40,0,0,91,1,0,1,61440,-222
3156000,157,10,51,-14,0,0,0,18833,0,100,36,0,95,463,13,50,-40,0,0,91,1,0,0,60416,-222
3176000,158,4,50,-52,0,0,0,17547,0,114,36,0,95,441,13,51,-50,0,0,92,1,0,0,58368,-222
3196000,159,3,52,-56,0,0,0,19037,0,107,37,0,95,453,13,52,-40,0,0,92,1,0,2,54272,-222
3216000,160,8,50,-38,0,0,0,15052,0,107,38,0,95,457,14,51,-50,0,0,85,1,0,2,63488,-221
3236000,161,4,51,-58,0,0,0,18987,0,65,37,0,95,463,12,51,-40,0,0,91,1,0,8,71680,-222
3256000,162,7,51,-61,0,0,0,16483,0,79,38,0,95,455,13,51,-50,0,0,92,1,0,4,70656,-223
3276000,163,10,52,-58,0,0,0,19343,0,92,40,0,95,453,13,52,-50,0,0,93,1,0,1,50176,-222
3297000,164,10,51,-51,0,0,0,18043,0,75,39,0,95,458,12,52,-40,0,0,92,1,0,4,58368,-222
3317000,165,9,51,-50,0,0,0,19329,0,38,37,0,95,453,11,51,-50,0,0,86,1,0,16,60416,-222
3337000,166,12,50,-56,0,0,0,14783,0,90,35,0,95,446,12,51,-40,0,0,92,1,0,2,64512,-221
3357000,167,4,52,-55,0,0,0,18710,0,106,37,0,95,454,15,52,-50,0,0,92,1,0,0,65536,-222
3377000,168,10,52,-57,0,0,0,15847,0,95,36,0,95,462,13,52,-40,0,0,91,1,0,1,70656,-223
3397000,169,11,50,-60,0,0,0,18884,0,74,38,0,95,462,15,51,-50,0,0,92,1,0,5,53248,-222
3417000,170,10,51,-59,0,0,0,17664,0,71,38,0,95,453,12,52,-50,0,0,92,1,0,4,51200,-222
3437000,171,10,52,-59,0,0,0,18526,0,103,36,0,95,432,12,52,-50,0,0,92,1,0,0,57344,-222
3457000,172,10,52,-60,0,0,0,14863,0,27,35,0,95,477,11,52,-50,0,0,91,1,0,20,67584,-222
3477000,173,4,51,-58,0,0,0,19116,0,83,36,0,95,460,12,52,-50,0,0,91,1,0,20,67584,-222
3498000,174,3,52,-61,0,0,0,15876,0,109,37,0,95,447,14,53,-50,0,0,92,1,0,0,65536,-223
3518000,175,10,51,-53,0,0,0,19142,0,77,40,0,95,445,12,52,-50,0,0,92,1,0,9,58368,-222
3538000,176,4,52,-54,0,0,0,19016,0,32,37,0,95,462,12,51,-50,0,0,92,1,0,18,56320,-223
3558000,177,3,51,-56,0,0,0,18221,0,35,39,0,95,450,14,53,-40,0,0,92,1,0,16,74752,-223
3578000,178,11,51,-54,0,0,0,15360,0,90,37,0,95,467,15,52,-50,0,0,91,1,0,2,72704,-222
3598000,179,3,52,-58,0,0,0,18615,0,89,35,0,95,441,14,53,-50,0,0,91,1,0,2,62464,-223
3618000,180,10,52,-55,0,0,0,15953,0,74,38,0,95,447,13,52,-40,0,0,92,1,0,5,60416,-223
3638000,181,4,52,-55,0,0,0,18687,0,94,37,0,95,469,13,52,-50,0,0,92,1,0,1,59392,-223
3658000,182,3,53,-56,0,0,0,17406,0,88,35,0,95,463,12,52,-40,0,0,90,1,0,2,61440,-224
3678000,183,4,48,-50,0,0,0,18318,0,87,37,0,95,453,11,52,-50,0,0,91,1,0,2,65536,-225
3699000,184,11,52,-60,0,0,0,15276,0,85,36,0,95,462,14,54,-50,0,0,91,1,0,1,60416,-223
3719000,185,3,51,-57,0,0,0,20406,0,74,38,0,95,466,12,52,-40,0,0,91,1,0,5,47104,-224
3739000,186,10,51,-59,0,0,0,16222,0,49,37,0,95,467,11,52,-40,0,0,92,1,0,16,49152,-224
3759000,187,12,51,-54,0,0,0,20253,0,35,35,0,95,458,12,51,-50,0,0,87,1,0,16,69632,-224
3779000,188,10,52,-61,0,0,0,19337,0,28,37,0,95,478,12,52,-50,0,0,92,1,0,21,58368,-224
3799000,189,13,53,-43,0,0,0,19514,0,66,36,0,95,474,15,52,-50,0,0,92,1,0,6,56320,-224
3819000,190,10,51,-64,0,0,0,15827,0,96,37,0,95,453,12,52,-50,0,0,92,1,0,1,57344,-223
3839000,191,4,52,-63,0,0,0,18783,0,98,37,0,95,469,11,52,-60,0,0,91,1,0,0,51200,-224
3859000,192,10,52,-64,0,0,0,16030,0,96,37,0,95,463,11,53,-50,0,0,92,1,0,0,54272,-225
3879000,193,4,51,-65,0,0,0,19392,0,73,37,0,95,459,11,51,-50,0,0,90,1,0,1,46080,-224
3900000,194,4,54,-60,0,0,0,19480,0,65,36,0,95,453,11,53,-50,0,0,91,1,0,7,55296,-224
3920000,195,10,53,-64,0,0,0,19394,0,97,37,0,95,450,14,55,-50,0,0,87,1,0,4,53248,-224
3940000,196,7,52,-63,0,0,0,15239,0,78,36,0,95,445,14,53,-50,0,0,92,1,0,4,57344,-223
3960000,197,14,52,-61,0,0,0,19533,0,35,37,0,95,469,12,52,-40,0,0,86,1,0,17,66560,-224
3980000,198,10,51,-59,0,0,0,15994,0,35,36,0,95,466,11,52,-50,0,0,92,1,0,18,47104,-225
4000000,199,11,52,-60,0,0,0,19159,0,73,35,0,95,471,13,52,-50,0,0,91,1,0,5,57344,-224
4020000,200,11,52,-65,0,0,0,19199,0,73,35,0,95,451,13,52,-50,0,0,91,1,0,5,46080,-224
4040000,201,11,52,-61,0,0,0,18812,0,77,35,0,95,466,13,52,-50,0,0,92,1,0,4,55296,-224
4060000,202,11,52,-59,0,0,0,15739,0,29,34,0,95,462,12,52,-40,0,0,91,1,0,19,58368,-223
4080000,203,14,52,-61,0,0,0,19871,0,29,38,0,95,467,12,52,-50,0,0,91,1,0,20,52224,-224
4101000,204,8,52,-64,0,0,0,15701,0,72,38,0,95,462,13,52,-50,0,0,90,1,0,5,51200,-225
4121000,205,10,52,-60,0,0,0,19403,0,72,38,0,95,469,13,53,-50,0,0,92,1,0,5,59392,-224
4141000,206,14,51,-62,0,0,0,19691,0,57,36,0,95,464,14,52,-50,0,0,92,1,0,5,48128,-225
4161000,207,11,51,-59,0,0,0,19623,0,91,37,0,95,458,14,52,-50,0,0,92,1,0,1,57344,-224
4181000,208,14,52,-64,0,0,0,15884,0,102,39,0,95,466,12,52,-50,0,0,92,1,0,1,77824,-223
4201000,209,8,52,-63,0,0,0,18954,0,74,37,0,95,467,12,53,-50,0,0,91,1,0,5,50176,-224
4221000,210,13,52,-60,0,0,0,15980,0,77,37,0,95,470,12,52,-50,0,0,92,1,0,4,57344,-225
4241000,211,7,53,-38,0,0,0,17182,0,35,38,0,95,473,12,52,-40,0,0,89,1,0,17,71680,-181
4261000,212,4,52,-43,0,0,0,18589,0,54,40,0,95,478,11,64,-30,0,0,82,1,0,11,93184,-140
4281000,213,10,52,-43,0,0,0,18602,0,49,36,0,95,460,12,51,-30,0,0,92,1,0,12,89088,-138
4302000,214,7,51,-45,0,0,0,15634,0,30,37,0,95,464,13,51,-20,0,0,85,1,0,18,104448,-136
4322000,215,14,49,-42,0,0,0,19119,0,74,37,0,95,454,14,51,-30,0,0,90,1,0,2,99328,-136
4342000,216,13,50,-39,0,0,0,15830,0,138,39,0,95,433,13,51,-30,0,0,86,1,0,0,99328,-137
4362000,217,11,51,-37,0,0,0,19696,0,121,39,0,95,466,12,51,-30,0,0,86,1,0,0,90112,-136
4382000,218,13,52,-42,0,0,0,18561,0,27,36,0,95,453,13,51,-30,0,0,92,1,0,20,92160,-136
4402000,219,13,52,-34,0,0,0,19575,0,29,40,0,95,441,12,52,-20,0,0,90,1,0,21,90112,-136
4422000,220,8,50,-37,0,0,0,16342,0,94,38,0,95,448,14,51,-30,0,0,86,1,0,21,95232,-135
4442000,221,10,52,-39,0,0,0,19157,0,94,38,0,95,456,12,52,-30,0,0,92,1,0,1,92160,-135
4462000,222,3,52,-38,0,0,0,15363,0,65,39,0,95,477,16,52,-30,0,0,81,1,0,7,96256,-136
4482000,223,3,53,-38,0,0,0,19245,0,64,40,0,95,468,14,54,-30,0,0,87,1,0,7,92160,-135
4503000,224,10,51,-39,0,0,0,18557,0,55,37,0,95,458,12,51,-30,0,0,91,1,0,10,98304,-135
4523000,225,10,51,-5,0,0,0,18770,0,92,37,0,95,477,9,51,-30,0,0,85,1,0,1,89088,-135
4543000,226,10,51,-34,0,0,0,15789,0,79,39,0,95,464,11,51,-30,0,0,91,1,0,4,95232,-134
4563000,227,14,51,-39,0,0,0,19021,0,27,40,0,95,450,12,51,-30,0,0,91,1,0,21,91136,-134
4583000,228,8,51,-36,0,0,0,15095,0,29,39,0,95,473,11,52,-30,0,0,92,1,0,20,94208,-135
4603000,229,7,51,-41,0,0,0,19385,0,89,37,0,95,442,12,52,-30,0,0,87,1,0,2,92160,-134
4623000,230,4,51,-48,0,0,0,18367,0,88,39,0,95,444,12,51,-30,0,0,84,1,0,2,101376,-134
4643000,231,0,52,-45,0,0,0,19420,0,106,39,0,95,454,12,58,-40,0,0,87,1,0,0,87040,-134
4663000,232,11,52,-43,0,0,0,15924,0,106,40,0,95,458,12,52,-30,0,0,91,1,0,0,99328,-134
4683000,233,14,51,-39,0,0,0,19116,0,28,37,0,95,475,13,51,-30,0,0,92,1,0,20,93184,-134
4704000,234,11,52,-38,0,0,0,15132,0,30,35,0,95,469,13,52,-30,0,0,91,1,0,20,100352,-135
4724000,235,8,51,-40,0,0,0,19883,0,74,38,0,95,438,12,52,-30,0,0,86,1,0,5,98304,-134
4744000,236,4,53,-41,0,0,0,17405,0,105,37,0,95,443,11,53,-30,0,0,83,1,0,0,93184,-133
4764000,237,11,51,-40,0,0,0,19610,0,103,38,0,95,442,11,52,-30,0,0,92,1,0,0,101376,-133
4784000,238,10,51,-39,0,0,0,16351,0,30,41,0,95,469,13,51,-30,0,0,91,1,0,5,93184,-132
4804000,239,10,51,-37,0,0,0,19938,0,31,37,0,95,457,12,51,-30,0,0,87,1,0,19,101376,-133
4824000,240,4,50,-38,0,0,0,15227,0,31,40,0,95,446,14,52,-40,0,0,92,1,0,18,96256,-133
4844000,241,10,52,-37,0,0,0,18989,0,119,36,0,95,447,12,52,-30,0,0,91,1,0,0,84992,-133
4864000,242,3,51,-40,0,0,0,17684,0,33,37,0,95,450,14,51,-30,0,0,87,1,0,0,114688,-133
4884000,243,10,52,-36,0,0,0,18868,0,34,40,0,95,456,13,52,-30,0,0,91,1,0,18,87040,-133
4905000,244,3,68,-29,0,0,0,11035,0,34,46,0,95,496,14,54,0,80,90,75,1,0,20,112640,101
4925000,245,3,53,2,0,0,0,20070,0,37,43,0,95,439,13,68,20,0,0,86,6,0,20,106496,207
4945000,246,3,51,10,0,0,0,15408,0,39,44,0,95,435,12,49,30,0,0,91,1,0,16,101376,203
4965000,247,7,51,8,0,0,0,20195,0,37,44,0,95,448,14,51,20,0,0,89,1,0,12,103424,205
4985000,248,11,49,2,0,0,0,18637,0,55,41,0,95,429,12,50,20,0,0,91,6,0,9,94208,202
5005000,249,11,50,3,0,0,0,20304,0,56,43,0,95,436,11,50,30,0,0,91,1,0,11,94208,201
5025000,250,3,50,9,0,0,0,17065,0,33,43,0,95,457,11,51,30,0,0,88,1,0,17,81920,205
5045000,251,4,49,3,0,0,0,20180,0,42,43,0,95,435,14,50,10,0,0,89,6,0,14,82944,201
5065000,252,4,51,1,0,0,0,15343,0,86,44,0,95,429,13,51,20,0,0,91,1,0,1,97280,201
5085000,253,10,50,2,0,0,0,20343,0,30,42,0,95,444,12,50,20,0,0,91,1,0,19,87040,200
5106000,254,4,50,1,0,0,0,18480,0,28,40,0,95,442,11,50,20,0,0,85,1,0,20,81920,200
5126000,255,3,51,-2,0,0,0,20257,0,29,41,0,95,451,13,51,20,0,0,92,1,0,19,92160,200
5146000,256,3,53,0,0,0,0,16983,0,45,42,0,95,461,13,53,10,0,0,86,1,0,13,82944,205
5166000,257,3,49,-3,0,0,0,20322,0,44,42,0,95,436,12,51,10,0,0,91,1,0,13,92160,199
5186000,258,7,52,-5,0,0,0,15284,0,26,42,0,95,438,11,51,10,0,0,92,1,0,21,82944,200
5206000,259,10,52,-5,0,0,0,20266,0,24,42,0,95,457,11,54,10,0,0,86,1,0,23,76800,201
5226000,260,13,53,-6,0,0,0,18212,0,23,42,0,95,446,10,52,10,0,0,90,1,0,24,93184,200
5246000,261,7,55,3,0,0,0,19966,0,76,43,0,95,460,11,57,10,0,0,85,6,0,24,81920,200
5266000,262,0,54,-18,0,0,0,17274,0,112,43,0,95,456,13,57,0,0,0,81,6,0,3,87040,201
5286000,263,0,56,-10,0,0,0,19984,0,97,41,0,95,444,13,56,0,0,0,92,6,0,0,72704,200
5307000,264,3,55,-12,0,0,0,15198,0,73,40,0,95,445,12,58,10,0,0,91,1,0,8,88064,199
5327000,265,4,53,-13,0,0,0,20266,0,57,43,0,95,444,12,52,0,0,0,91,1,0,16,87040,200
5347000,266,8,55,-13,0,0,0,18060,0,24,42,0,95,456,14,55,0,0,0,91,1,0,29,84992,202
5367000,267,3,54,-7,0,0,0,20245,0,17,42,0,95,440,12,54,10,0,0,92,1,0,30,76800,201
5387000,268,3,55,-10,0,0,0,17442,0,45,42,0,95,460,13,54,0,0,0,90,1,0,10,77824,202
5407000,269,3,57,-19,0,0,0,19988,0,76,41,0,95,458,14,58,0,0,0,87,1,0,0,76800,202
5427000,270,8,56,-13,0,0,0,14988,0,87,41,0,95,461,17,56,0,0,0,86,1,0,4,88064,201
5447000,271,3,54,-15,0,0,0,20372,0,83,43,0,95,453,14,54,0,0,0,91,1,0,10,71680,200
5467000,272,10,54,-18,0,0,0,18087,0,22,43,0,95,438,13,54,0,0,0,86,1,0,9,72704,200
5487000,273,4,55,-13,0,0,0,19493,0,19,42,0,95,460,12,54,0,0,0,87,1,0,26,78848,205
5508000,274,5,52,-14,0,0,0,17460,0,28,41,0,95,438,11,57,10,0,0,85,1,0,22,40960,209
5528000,275,10,51,-16,0,0,0,20345,0,30,43,0,95,436,12,52,0,0,0,92,1,0,20,36864,207
5548000,276,13,52,-10,0,0,0,15028,0,24,44,0,95,445,11,52,10,0,0,90,1,0,22,36864,208
5568000,277,6,54,-16,0,0,0,20190,0,23,41,0,95,446,12,53,10,0,0,90,1,0,24,41984,210
5588000,278,3,53,-4,0,0,0,17794,0,27,41,0,95,459,13,53,10,0,0,82,1,0,7,37888,207
5608000,279,4,51,-13,0,0,0,20378,0,88,42,0,95,436,12,52,0,0,0,87,1,0,2,25600,207
5628000,280,11,53,-17,0,0,0,17187,0,24,41,0,95,453,11,53,0,0,0,90,1,0,7,59392,211
5648000,281,13,59,4,0,0,0,18888,0,35,42,0,95,476,12,58,20,0,0,92,1,0,18,109568,214
5668000,282,10,55,-8,0,0,0,14948,0,67,43,0,95,454,11,56,10,0,0,91,1,0,7,103424,206
5688000,283,3,53,-6,0,0,0,20160,0,62,42,0,95,436,12,54,10,0,0,92,1,0,8,83968,208
5709000,284,3,53,-8,0,0,0,17844,0,25,42,0,95,442,11,52,20,0,0,92,1,0,23,88064,210
5729000,285,3,51,-5,0,0,0,20286,0,26,43,0,95,442,11,52,20,0,0,91,1,0,21,98304,208
5749000,286,4,52,-2,0,0,0,17851,0,32,43,0,95,463,12,53,10,0,0,91,1,0,19,89088,208
5769000,287,3,51,-3,0,0,0,20363,0,68,42,0,95,442,12,51,20,0,0,93,1,0,6,99328,208
5789000,288,8,51,-4,0,0,0,14968,0,65,41,0,95,433,12,53,10,0,0,92,1,0,7,91136,207
5809000,289,4,52,-2,0,0,0,20226,0,25,43,0,95,450,14,52,10,0,0,91,1,0,22,81920,209
5829000,290,4,52,-3,0,0,0,17862,0,27,43,0,95,471,12,52,20,0,0,92,1,0,20,83968,207
5849000,291,3,51,-6,0,0,0,20351,0,26,39,0,95,464,12,51,10,0,0,90,1,0,22,82944,209
5869000,292,4,53,6,0,0,0,17390,0,62,41,0,95,448,11,54,30,0,0,92,1,0,24,98304,207
5889000,293,4,54,-1,0,0,0,20160,0,62,43,0,95,466,14,53,20,0,0,83,1,0,6,98304,208
5910000,294,4,52,-8,0,0,0,15044,0,109,39,0,95,443,12,52,10,0,0,88,6,0,0,96256,210
5930000,295,3,53,-3,0,0,0,19994,0,92,42,0,95,454,11,52,20,0,0,91,6,0,2,99328,210
5950000,296,3,54,0,0,0,0,17313,0,55,43,0,95,449,11,55,20,0,0,92,1,0,10,87040,209
5970000,297,8,52,-7,0,0,0,20412,0,53,43,0,95,447,11,53,20,0,0,92,1,0,11,94208,208
5990000,298,3,52,-5,0,0,0,18100,0,29,44,0,95,439,11,52,20,0,0,91,1,0,26,87040,209
6010000,299,3,51,-2,0,0,0,20104,0,49,41,0,95,447,10,53,20,0,0,91,1,0,12,87040,210
6030000,300,3,58,-6,0,0,0,15146,0,48,42,0,95,458,11,53,0,0,0,93,1,0,12,97280,209
6050000,301,6,57,-2,0,0,0,19621,0,24,43,0,95,468,13,58,10,0,0,90,1,0,11,81920,210
6070000,302,10,55,-16,0,0,0,17406,0,73,41,0,95,446,13,55,10,0,0,88,1,0,6,93184,209
6090000,303,10,53,-12,0,0,0,20139,0,62,41,0,95,438,11,55,10,0,0,91,1,0,4,82944,210
6111000,304,13,53,-3,0,0,0,18301,0,29,41,0,95,444,11,53,10,0,0,92,1,0,23,78848,210
6131000,305,7,54,-5,0,0,0,20275,0,14,44,0,95,449,11,54,10,0,0,91,1,0,33,75776,210
6151000,306,3,58,-5,0,0,0,13753,0,48,40,0,95,475,12,56,20,0,0,89,1,0,8,87040,224
6171000,307,0,56,-18,0,0,0,20268,0,63,41,0,95,454,12,58,0,0,0,87,1,0,3,41984,244
6191000,308,3,52,-18,0,0,0,17607,0,82,40,0,95,454,12,52,0,0,0,91,1,0,3,24576,244
6211000,309,3,51,-14,0,0,0,20441,0,26,39,0,95,436,15,51,0,0,0,90,1,0,22,30720,245
6231000,310,4,54,-9,0,0,0,18225,0,28,41,0,95,449,13,54,10,0,0,87,1,0,20,30720,249
6251000,311,3,55,-61,0,0,0,13792,0,34,42,0,95,445,12,55,0,36,12,87,1,0,18,77824,219
6271000,312,4,66,54,0,0,0,14388,0,35,48,0,95,490,14,66,60,0,0,92,1,0,15,75776,-9
6291000,313,3,51,40,0,0,0,20327,0,57,50,0,95,429,14,51,60,0,0,93,1,0,10,76800,4
6312000,314,7,51,51,0,0,0,17271,0,58,50,0,95,435,15,51,60,0,0,90,1,0,11,71680,6
6332000,315,3,54,42,0,0,0,20193,0,90,51,0,95,440,16,56,50,0,0,87,6,0,2,62464,8
6352000,316,11,51,40,0,0,0,18187,0,91,49,0,95,421,13,52,60,0,0,92,6,0,1,58368,8
6372000,317,4,51,45,0,0,0,20344,0,38,48,0,95,429,13,51,60,0,0,86,1,0,16,77824,8
6392000,318,3,52,34,0,0,0,15150,0,30,51,0,95,430,14,52,60,0,0,92,1,0,20,68608,11
6412000,319,3,54,41,0,0,0,20348,0,72,49,0,95,445,12,54,60,0,0,92,1,0,5,69632,9
6432000,320,8,54,42,0,0,0,17358,0,60,47,0,95,438,11,53,70,0,0,92,1,0,8,76800,8
6452000,321,12,51,38,0,0,0,20471,0,63,49,0,95,430,12,53,60,0,0,91,1,0,8,63488,10
6472000,322,10,52,36,0,0,0,18389,0,36,50,0,95,435,14,53,60,0,0,87,1,0,17,59392,10
6492000,323,3,53,49,0,0,0,20531,0,33,51,0,95,444,12,51,70,0,0,92,1,0,17,62464,9
6513000,324,7,52,48,0,0,0,15309,0,32,49,0,95,439,12,52,60,0,0,92,1,0,18,64512,11
6533000,325,6,54,43,0,0,0,20369,0,80,49,0,95,452,16,55,60,0,0,86,1,0,19,70656,11
6553000,326,4,56,32,0,0,0,16246,0,109,50,0,95,442,13,55,60,0,0,92,6,0,0,56320,4
6573000,327,11,58,35,0,0,0,20192,0,92,49,0,95,449,14,58,50,0,0,92,1,0,6,44032,7
6593000,328,7,56,43,0,0,0,18332,0,52,49,0,95,434,14,56,60,0,0,91,1,0,9,33792,9
6613000,329,4,53,39,0,0,0,20338,0,54,51,0,95,427,13,55,60,0,0,86,1,0,10,32768,9
6633000,330,3,52,43,0,0,0,15425,0,58,51,0,95,433,13,52,60,0,0,89,1,0,12,46080,10
6653000,331,3,54,35,0,0,0,20356,0,37,51,0,95,436,10,54,50,0,0,85,1,0,8,35840,10
6673000,332,11,51,45,0,0,0,17177,0,63,50,0,95,426,11,52,60,0,0,87,1,0,7,38912,9
6693000,333,10,52,47,0,0,0,20393,0,34,50,0,95,423,11,51,70,0,0,86,1,0,16,36864,10
6714000,334,10,52,45,0,0,0,18563,0,34,47,0,95,439,12,52,60,0,0,92,1,0,17,31744,11
6734000,335,10,53,30,0,0,0,20238,0,82,49,0,95,444,12,53,50,0,0,88,1,0,0,48128,11
6754000,336,4,52,33,0,0,0,15350,0,118,50,0,95,421,8,53,60,0,0,90,1,0,0,46080,16
6774000,337,11,52,37,0,0,0,20348,0,90,49,0,95,438,11,51,60,0,0,92,1,0,6,45056,16
6794000,338,3,54,45,0,0,0,16711,0,27,50,0,95,446,11,53,60,0,0,92,1,0,20,52224,17
6814000,339,10,56,75,0,0,0,20314,0,29,50,0,95,448,9,60,60,0,0,89,1,0,20,70656,26
6834000,340,4,54,41,0,0,0,18762,0,81,50,0,95,436,10,54,50,0,0,91,1,0,4,69632,25
6854000,341,4,53,34,0,0,0,20459,0,99,49,0,95,436,9,53,60,0,0,91,1,0,0,66560,27
6874000,342,3,52,43,0,0,0,15637,0,88,51,0,95,432,11,52,60,0,0,92,1,0,2,81920,28
6894000,343,3,52,36,0,0,0,20465,0,67,50,0,95,447,13,55,50,0,0,90,1,0,7,59392,28
6915000,344,4,52,41,0,0,0,17117,0,58,50,0,95,433,13,52,60,0,0,93,1,0,9,55296,29
6935000,345,11,52,37,0,0,0,20760,0,59,50,0,95,432,12,51,60,0,0,92,1,0,15,50176,30
6955000,346,14,51,39,0,0,0,19065,0,31,49,0,95,429,11,52,60,0,0,92,1,0,18,57344,31
6975000,347,7,51,38,0,0,0,20467,0,33,49,0,95,430,11,51,60,0,0,86,1,0,16,58368,30
6995000,348,4,52,38,0,0,0,15684,0,37,49,0,95,441,11,51,60,0,0,92,1,0,16,64512,32
7015000,349,10,53,34,0,0,0,20574,0,67,47,0,95,436,9,53,60,0,0,90,1,0,2,55296,31
7035000,350,4,52,38,0,0,0,16978,0,87,48,0,95,439,11,52,50,0,0,91,1,0,2,62464,31
7055000,351,4,51,69,0,0,0,17474,0,68,49,0,95,435,13,51,60,0,0,90,1,0,16,78848,66
7075000,352,4,68,-23,0,0,0,18112,0,41,38,0,95,501,14,68,0,0,0,83,1,0,15,131072,221
7095000,353,4,52,-24,0,0,0,20529,0,86,36,0,95,432,13,55,0,0,0,89,1,0,5,123904,219
7116000,354,4,50,-9,0,0,0,15916,0,94,37,0,95,423,13,50,0,0,0,89,1,0,2,114688,218
7136000,355,4,60,4,0,0,0,18085,0,77,43,0,95,467,16,50,30,0,0,85,1,0,5,116736,220
7156000,356,13,49,1,0,0,0,16809,0,56,39,0,95,428,13,59,20,0,0,87,1,0,10,120832,218
7176000,357,4,51,1,0,0,0,20494,0,65,41,0,95,435,14,50,20,0,0,86,1,0,4,126976,221
7196000,358,10,49,0,0,0,0,19596,0,64,42,0,95,425,13,49,20,0,0,91,1,0,7,116736,220
7216000,359,3,51,-1,0,0,0,20588,0,93,41,0,95,441,14,49,10,0,0,84,1,0,3,108544,218
7236000,360,0,0,0,0,0,0,16054,0,93,0,0,95,460,14,52,20,0,0,83,1,0,3,101376,220
7256000,361,6,50,-8,0,0,0,20688,0,119,39,0,95,435,14,49,30,0,0,84,1,0,0,95232,219
7276000,362,4,51,-5,0,0,0,16728,0,91,43,0,95,438,15,53,20,0,0,83,1,0,0,94208,218
7296000,363,11,49,-4,0,0,0,20714,0,62,43,0,95,422,14,50,30,0,0,91,1,0,7,93184,217
7317000,364,4,53,-4,0,0,0,19784,0,32,42,0,95,453,12,50,10,0,0,86,1,0,19,97280,221
7337000,365,10,52,-8,0,0,0,20528,0,34,42,0,95,441,12,54,10,0,0,87,1,0,18,104448,221
7357000,366,4,50,-4,0,0,0,16189,0,77,42,0,95,427,13,52,20,0,0,87,1,0,4,109568,221
7377000,367,11,50,-6,0,0,0,20753,0,76,40,0,95,431,13,50,10,0,0,87,1,0,4,93184,219
7397000,368,3,49,-7,0,0,0,16645,0,34,42,0,95,426,13,49,10,0,0,86,1,0,8,94208,218
7417000,369,12,50,-7,0,0,0,20625,0,76,41,0,95,430,13,50,20,0,0,87,1,0,4,98304,218
7437000,370,4,54,-4,0,0,0,19770,0,76,42,0,95,461,14,52,30,0,0,85,1,0,9,92160,227
7457000,371,12,50,-8,0,0,0,20630,0,51,43,0,95,432,12,51,20,0,0,90,1,0,10,88064,223
7477000,372,4,49,-3,0,0,0,16249,0,32,42,0,95,430,12,50,10,0,0,87,1,0,17,94208,224
7497000,373,3,50,-2,0,0,0,20642,0,115,41,0,95,439,13,49,20,0,0,83,1,0,17,80896,221
7518000,374,9,50,-11,0,0,0,16583,0,115,42,0,95,433,12,50,20,0,0,88,1,0,0,100352,221
7538000,375,3,50,-7,0,0,0,20608,0,39,42,0,95,433,11,51,20,0,0,85,1,0,15,103424,223
7558000,376,4,51,-8,0,0,0,20603,0,33,43,0,95,435,11,50,20,0,0,89,1,0,17,88064,222
7578000,377,4,50,-18,0,0,0,20630,0,64,40,0,95,432,11,52,10,0,0,87,1,0,7,93184,222
7598000,378,9,51,-4,0,0,0,16364,0,64,42,0,95,444,11,50,10,0,0,88,1,0,7,97280,222
7618000,379,11,50,-9,0,0,0,20659,0,30,41,0,95,437,11,50,20,0,0,90,1,0,18,84992,221
7638000,380,14,50,-9,0,0,0,16491,0,30,40,0,95,438,11,50,10,0,0,89,1,0,19,97280,220
7658000,381,8,51,19,0,0,0,20657,0,30,41,0,95,455,12,51,10,0,0,84,1,0,19,78848,221
7678000,382,4,50,-13,0,0,0,20442,0,75,41,0,95,436,12,50,10,0,0,82,1,0,4,92160,220
7698000,383,3,50,-12,0,0,0,20665,0,104,42,0,95,441,12,50,10,0,0,90,1,0,0,75776,220
7719000,384,9,50,-8,0,0,0,16423,0,79,42,0,95,441,11,51,20,0,0,89,1,0,4,86016,222
7739000,385,3,50,-4,0,0,0,20688,0,34,43,0,95,438,11,51,10,0,0,89,1,0,17,87040,221
7759000,386,10,50,-4,0,0,0,16382,0,32,42,0,95,433,12,50,20,0,0,89,1,0,18,89088,220
7779000,387,3,63,-10,0,0,0,15982,0,64,42,0,95,501,12,53,10,0,0,80,1,0,7,95232,219
7799000,388,4,53,-39,0,0,0,19983,0,82,39,0,95,448,12,61,-10,0,0,86,1,0,0,65536,205
7819000,389,10,53,-38,0,0,0,19285,0,111,36,0,95,449,14,53,-10,0,0,81,1,0,0,71680,207
7839000,390,4,50,-36,0,0,0,16432,0,119,36,0,95,450,12,50,-10,0,0,90,1,0,0,80896,208
7859000,391,11,50,-34,0,0,0,20506,0,106,37,0,95,429,11,49,-10,0,0,81,1,0,0,80896,206
7879000,392,3,48,-39,0,0,0,16234,0,95,36,0,95,439,12,49,-20,0,0,89,1,0,1,71680,206
7899000,393,4,49,-32,0,0,0,20557,0,56,37,0,95,441,11,50,-10,0,0,89,1,0,17,83968,207
7920000,394,4,49,-38,0,0,0,20026,0,105,36,0,95,440,12,49,-10,0,0,85,1,0,0,82944,207
7940000,395,3,49,-38,0,0,0,20416,0,171,34,0,95,441,12,49,-30,0,0,82,1,0,0,82944,208
7960000,396,8,49,-35,0,0,0,16526,0,142,40,0,95,447,12,49,-20,0,0,92,1,0,0,89088,207
7980000,397,11,50,-35,0,0,0,20710,0,47,36,0,95,438,15,50,-10,0,0,91,1,0,15,78848,208
8000000,398,13,50,-34,0,0,0,16197,0,73,38,0,95,444,13,50,-20,0,0,86,1,0,5,76800,206
8020000,399,7,50,-32,0,0,0,20691,0,72,38,0,95,451,13,50,-10,0,0,91,1,0,5,82944,207
8040000,400,4,49,-12,0,0,0,19760,0,35,37,0,95,496,15,50,-10,0,0,80,1,0,7,83968,206
8060000,401,3,50,-35,0,0,0,20410,0,115,38,0,95,446,13,50,-10,0,0,92,1,0,0,69632,207
8080000,402,4,49,-29,0,0,0,16359,0,115,38,0,95,455,13,52,-10,0,0,85,1,0,0,126976,218
8100000,403,8,49,-35,0,0,0,20486,0,91,36,0,95,436,12,49,-10,0,0,91,1,0,1,121856,215
8121000,404,13,49,-31,0,0,0,15971,0,91,39,0,95,432,11,49,-10,0,0,91,1,0,3,136192,214
8141000,405,3,50,-33,0,0,0,20492,0,31,38,0,95,457,12,49,-20,0,0,90,1,0,16,132096,215
8161000,406,10,47,-29,0,0,0,19624,0,31,38,0,95,443,12,51,-20,0,0,83,1,0,18,141312,215
8181000,407,10,49,-33,0,0,0,20611,0,98,38,0,95,442,12,49,-20,0,0,91,1,0,0,130048,214
8201000,408,8,49,-1,0,0,0,16638,0,99,37,0,95,436,12,49,-20,0,0,81,1,0,0,130048,215
8221000,409,4,49,-33,0,0,0,20427,0,84,34,0,95,448,13,49,-20,0,0,88,1,0,3,132096,215
8241000,410,4,49,-34,0,0,0,16045,0,83,36,0,95,449,12,49,-10,0,0,86,1,0,3,136192,213
8261000,411,7,49,-33,0,0,0,20565,0,36,36,0,95,449,15,50,-20,0,0,88,1,0,8,126976,214
8281000,412,4,49,-32,0,0,0,19343,0,102,36,0,95,447,14,50,-20,0,0,85,1,0,0,149504,214
8301000,413,4,48,-44,0,0,0,20489,0,134,37,0,95,423,15,49,-30,0,0,84,1,0,0,141312,214
8322000,414,9,50,-45,0,0,0,16796,0,95,38,0,95,448,15,49,-20,0,0,91,1,0,1,130048,215
8342000,415,10,49,-42,0,0,0,20685,0,38,36,0,95,458,13,49,-30,0,0,91,1,0,16,135168,214
8362000,416,14,50,-35,0,0,0,15876,0,35,35,0,95,438,12,50,-10,0,0,91,1,0,16,133120,214
8382000,417,0,48,-29,0,0,0,20462,0,58,38,0,95,436,14,49,-20,0,0,83,1,0,5,135168,214
8402000,418,7,48,-36,0,0,0,19403,0,118,37,0,95,446,15,49,-20,0,0,88,1,0,0,126976,214
8422000,419,13,49,-37,0,0,0,20596,0,133,35,0,95,426,13,49,-20,0,0,91,1,0,0,132096,214
8442000,420,4,49,-37,0,0,0,16832,0,83,39,0,95,450,12,50,-20,0,0,91,1,0,3,143360,216
8462000,421,4,49,-38,0,0,0,20566,0,37,35,0,95,428,12,48,-20,0,0,92,1,0,15,137216,215
8482000,422,7,49,-38,0,0,0,15757,0,70,38,0,95,440,14,49,-20,0,0,91,1,0,5,129024,214
8502000,423,3,48,-41,0,0,0,20398,0,123,36,0,95,439,14,50,-30,0,0,86,1,0,5,118784,215
8523000,424,4,49,-36,0,0,0,19315,0,120,39,0,95,425,13,49,-20,0,0,92,1,0,0,128000,214
8543000,425,4,48,-36,0,0,0,20522,0,67,38,0,95,422,12,48,-20,0,0,86,1,0,12,129024,215
8563000,426,9,50,-29,0,0,0,17000,0,42,37,0,95,444,12,49,-20,0,0,89,1,0,15,125952,216
8583000,427,10,48,-32,0,0,0,20345,0,96,37,0,95,427,14,50,-20,0,0,86,1,0,0,134144,215
8603000,428,7,49,-32,0,0,0,15770,0,114,39,0,95,453,13,49,-20,0,0,92,1,0,0,120832,213
8623000,429,4,49,-31,0,0,0,20565,0,73,36,0,95,446,13,49,-10,0,0,91,1,0,7,117760,214
8643000,430,11,48,-33,0,0,0,19144,0,44,38,0,95,444,14,49,-20,0,0,88,1,0,13,124928,214
8663000,431,4,48,-37,0,0,0,20539,0,42,38,0,95,456,14,48,-20,0,0,85,1,0,7,122880,214
8683000,432,10,50,-36,0,0,0,17006,0,113,36,0,95,465,13,50,-10,0,0,83,1,0,0,119808,214
8703000,433,10,49,-18,0,0,0,20338,0,113,37,0,95,431,11,49,-10,0,0,83,1,0,0,133120,215
8724000,434,8,49,-30,0,0,0,15646,0,114,36,0,95,442,12,49,-20,0,0,80,1,0,0,126976,213
8744000,435,3,48,-36,0,0,0,20429,0,137,39,0,95,454,14,49,-30,0,0,86,1,0,0,120832,214
8764000,436,10,48,-38,0,0,0,18999,0,83,36,0,95,447,13,49,-30,0,0,91,1,0,5,124928,214
8784000,437,4,49,-32,0,0,0,20520,0,40,38,0,95,436,13,49,-20,0,0,91,1,0,14,137216,214
8804000,438,4,50,-21,0,0,0,17074,0,52,37,0,95,436,13,49,-30,0,0,88,1,0,10,133120,215
8824000,439,10,49,-20,0,0,0,20486,0,50,35,0,95,436,13,49,-10,0,0,88,1,0,10,116736,214
8844000,440,10,48,-32,0,0,0,15547,0,84,36,0,95,443,13,51,-20,0,0,85,1,0,3,118784,213
8864000,441,15,50,-36,0,0,0,20447,0,97,36,0,95,454,13,49,-20,0,0,84,1,0,1,119808,213
8884000,442,9,50,-26,0,0,0,18841,0,85,36,0,95,446,9,49,-20,0,0,86,1,0,2,111616,213
8904000,443,3,50,-37,0,0,0,20583,0,75,38,0,95,444,10,50,-10,0,0,87,1,0,5,119808,214
8925000,444,4,49,-24,0,0,0,17267,0,97,38,0,95,431,11,51,-20,0,0,87,1,0,0,132096,214
8945000,445,10,49,-36,0,0,0,20594,0,93,37,0,95,454,11,48,-20,0,0,90,1,0,1,121856,214
8965000,446,11,48,-30,0,0,0,15493,0,36,40,0,95,433,11,48,-20,0,0,88,1,0,15,133120,213
8985000,447,4,48,-27,0,0,0,20453,0,86,38,0,95,436,13,49,-20,0,0,88,1,0,2,123904,214
9005000,448,7,48,-29,0,0,0,18653,0,108,37,0,95,450,13,48,-20,0,0,88,1,0,0,118784,214
9025000,449,4,48,-39,0,0,0,20369,0,108,38,0,95,489,15,49,-20,0,0,82,1,0,0,120832,215
9045000,450,10,49,-35,0,0,0,17392,0,127,38,0,95,433,13,49,-20,0,0,90,1,0,0,121856,215
9065000,451,4,49,-27,0,0,0,20498,0,140,36,0,95,447,12,49,-10,0,0,90,1,0,0,131072,215
9085000,452,4,48,-39,0,0,0,15376,0,96,36,0,95,460,14,49,-20,0,0,84,1,0,1,125952,214
9105000,453,11,49,-34,0,0,0,20472,0,103,36,0,95,445,12,49,-20,0,0,80,1,0,0,133120,214
9126000,454,14,49,-37,0,0,0,18572,0,145,37,0,95,436,11,49,-10,0,0,88,1,0,0,134144,215
9146000,455,17,48,-34,0,0,0,20515,0,146,37,0,95,431,13,48,-10,0,0,83,1,0,0,126976,215
9166000,456,11,48,-30,0,0,0,17539,0,106,36,0,95,434,13,49,-10,0,0,91,1,0,0,116736,215
9186000,457,10,48,-15,0,0,0,20398,0,87,38,0,95,428,13,48,0,0,0,83,1,0,2,125952,215
9206000,458,4,50,-21,0,0,0,15351,0,122,36,0,95,431,14,49,-20,0,0,84,1,0,0,136192,213
9226000,459,0,48,-38,0,0,0,20513,0,132,37,0,95,423,15,49,-20,0,0,88,1,0,0,133120,215
9246000,460,4,48,-32,0,0,0,18404,0,132,35,0,95,453,16,50,-10,0,0,81,1,0,0,120832,214
9266000,461,4,49,-43,0,0,0,20487,0,145,36,0,95,431,13,50,-30,0,0,88,1,0,0,120832,214
9286000,462,7,50,-35,0,0,0,17568,0,111,37,0,95,425,14,50,-20,0,0,92,1,0,0,114688,215
9306000,463,13,49,-34,0,0,0,20489,0,37,36,0,95,433,13,49,-20,0,0,90,1,0,14,113664,215
9327000,464,0,50,-7,0,0,0,15232,0,39,37,0,95,460,13,49,-20,0,0,82,1,0,14,132096,214
9347000,465,4,48,-31,0,0,0,20513,0,79,38,0,95,445,13,49,-20,0,0,85,1,0,1,117760,214
9367000,466,3,49,-41,0,0,0,18338,0,126,38,0,95,461,14,53,-20,0,0,83,1,0,0,111616,214
9387000,467,10,49,-35,0,0,0,20398,0,106,36,0,95,434,12,49,-20,0,0,92,1,0,1,130048,215
9407000,468,14,49,-30,0,0,0,17734,0,38,35,0,95,446,12,49,-10,0,0,91,1,0,16,122880,215
9427000,469,6,48,-38,0,0,0,20462,0,39,37,0,95,491,15,50,-20,0,0,81,1,0,16,128000,215
9447000,470,13,49,-38,0,0,0,15229,0,93,37,0,95,451,14,49,-20,0,0,85,1,0,11,117760,213
9467000,471,7,49,-40,0,0,0,20516,0,92,37,0,95,428,13,49,-20,0,0,92,1,0,2,119808,214
9487000,472,14,48,-36,0,0,0,18305,0,43,35,0,95,452,12,48,-20,0,0,91,1,0,13,122880,214
9507000,473,8,49,-34,0,0,0,20549,0,41,35,0,95,436,14,49,0,0,0,87,1,0,14,111616,214
9528000,474,13,48,-37,0,0,0,17709,0,108,38,0,95,438,14,49,-20,0,0,85,1,0,0,129024,216
9548000,475,7,48,-40,0,0,0,20347,0,108,36,0,95,439,15,49,-40,0,0,91,1,0,0,121856,215
9568000,476,10,49,-39,0,0,0,15170,0,125,36,0,95,426,14,49,-20,0,0,85,1,0,0,136192,213
9588000,477,10,49,-40,0,0,0,20598,0,52,38,0,95,442,13,49,-20,0,0,91,1,0,14,130048,214
9608000,478,3,50,-36,0,0,0,18069,0,81,38,0,95,459,10,50,-30,0,0,85,1,0,3,121856,214
9628000,479,10,50,-42,0,0,0,20457,0,124,36,0,95,438,10,50,-30,0,0,87,1,0,0,129024,215
9648000,480,14,48,-36,0,0,0,17929,0,101,37,0,95,446,11,49,-20,0,0,92,1,0,0,120832,215
9668000,481,7,48,-35,0,0,0,20602,0,39,37,0,95,447,12,48,-10,0,0,91,1,0,14,117760,214
9688000,482,3,49,-34,0,0,0,15074,0,50,36,0,95,436,14,48,-20,0,0,85,1,0,11,136192,214
9708000,483,10,49,-41,0,0,0,20416,0,80,37,0,95,468,15,50,-10,0,0,83,1,0,11,133120,215
9729000,484,14,53,-39,0,0,0,17970,0,72,38,0,95,467,13,53,-20,0,0,92,1,0,5,120832,214
9749000,485,15,51,-41,0,0,0,20470,0,31,38,0,95,450,12,52,-20,0,0,86,1,0,18,133120,215
9769000,486,10,49,-41,0,0,0,17974,0,35,35,0,95,433,12,50,-30,0,0,90,1,0,17,125952,216
9789000,487,4,49,-34,0,0,0,20338,0,32,37,0,95,438,11,49,-20,0,0,88,1,0,17,139264,215
9809000,488,7,48,-32,0,0,0,14904,0,90,36,0,95,438,13,48,-20,0,0,85,1,0,0,145408,213
9829000,489,4,47,-44,0,0,0,20506,0,151,36,0,95,420,14,50,-30,0,0,83,1,0,0,121856,215
9849000,490,10,48,-35,0,0,0,17873,0,153,36,0,95,438,14,49,-20,0,0,88,1,0,0,122880,216
9869000,491,11,50,-35,0,0,0,20594,0,96,37,0,95,437,12,48,-20,0,0,86,1,0,1,109568,215
9889000,492,7,48,-37,0,0,0,18088,0,42,35,0,95,438,14,49,-20,0,0,84,1,0,15,119808,215
9909000,493,0,48,-36,0,0,0,20395,0,113,37,0,95,434,14,50,-10,0,0,86,1,0,0,135168,216
9930000,494,7,49,-40,0,0,0,15172,0,137,34,0,95,430,12,50,-20,0,0,91,1,0,0,126976,216
9950000,495,4,47,-32,0,0,0,20484,0,119,35,0,95,438,14,48,-30,0,0,85,1,0,0,131072,215
9970000,496,10,50,-42,0,0,0,17720,0,109,34,0,95,438,14,49,-30,0,0,91,1,0,0,122880,214
9990000,497,7,50,-26,0,0,0,20475,0,73,36,0,95,442,13,50,-30,0,0,83,1,0,0,119808,215
10010000,498,3,48,-46,0,0,0,18248,0,98,37,0,95,425,14,49,-40,0,0,85,1,0,5,130048,216
10030000,499,4,48,-41,0,0,0,20521,0,99,37,0,95,423,12,48,-30,0,0,91,1,0,0,124928,215
10050000,500,5,51,-31,0,0,0,13741,0,45,38,0,95,466,12,49,-10,0,0,83,1,0,13,132096,230
10070000,501,3,64,0,0,0,0,18443,0,34,42,0,95,503,12,64,0,0,0,81,1,0,20,103424,213
10090000,502,8,48,-2,0,0,0,17626,0,34,40,0,95,441,12,53,20,0,0,81,1,0,17,132096,211
10110000,503,3,53,-4,0,0,0,20508,0,82,41,0,95,473,13,55,10,0,0,82,6,0,3,126976,211
10131000,504,11,46,-14,0,0,0,18395,0,102,39,0,95,417,12,45,0,0,0,91,1,0,0,117760,210
10151000,505,3,51,-2,0,0,0,20551,0,80,41,0,95,465,13,49,10,0,0,85,1,0,3,107520,212
10171000,506,8,47,-11,0,0,0,15377,0,88,38,0,95,430,11,47,0,0,0,92,1,0,2,117760,211
10191000,507,10,47,4,0,0,0,20670,0,83,42,0,95,436,11,47,10,0,0,89,1,0,3,111616,210
10211000,508,7,47,-7,0,0,0,17576,0,81,39,0,95,439,14,47,10,0,0,86,1,0,3,119808,209
10231000,509,7,48,-10,0,0,0,20660,0,124,41,0,95,443,14,48,0,0,0,86,6,0,0,102400,209
10251000,510,3,47,-15,0,0,0,18486,0,117,42,0,95,446,13,48,0,0,0,86,6,0,0,97280,209
10271000,511,4,47,-3,0,0,0,20601,0,91,40,0,95,455,12,47,0,0,0,87,6,0,2,87040,209
10291000,512,3,52,-22,0,0,0,15101,0,91,40,0,95,448,12,50,10,0,0,85,6,0,1,98304,215
10311000,513,7,48,-15,0,0,0,20658,0,92,38,0,95,431,12,61,0,0,0,83,6,0,1,57344,219
10332000,514,10,48,-20,0,0,0,17365,0,77,39,0,95,429,11,48,0,0,0,88,6,0,4,70656,220
10352000,515,7,48,-20,0,0,0,20297,0,101,39,0,95,476,15,52,10,0,0,85,1,0,4,60416,222
10372000,516,4,48,-19,0,0,0,18655,0,101,38,0,95,428,12,48,0,0,0,90,6,0,0,54272,221
10392000,517,4,53,-20,0,0,0,14325,0,126,39,0,95,477,14,51,0,0,0,81,6,0,0,78848,240
10412000,518,4,47,-17,0,0,0,15488,0,121,39,0,95,419,12,54,10,0,0,91,6,0,0,48128,283
10432000,519,11,47,-14,0,0,0,20616,0,88,40,0,95,434,13,47,0,0,0,91,1,0,6,54272,281
10452000,520,3,48,-4,0,0,0,17389,0,36,38,0,95,438,12,48,0,0,0,88,1,0,13,51200,280
10472000,521,4,49,18,0,0,0,20447,0,80,41,0,95,441,12,49,0,0,0,86,1,0,0,47104,281
10492000,522,3,47,-12,0,0,0,18833,0,126,40,0,95,441,11,49,0,0,0,84,6,0,0,57344,282
10512000,523,7,49,-17,0,0,0,20612,0,133,39,0,95,440,12,49,0,0,0,86,6,0,0,59392,282
10533000,524,3,51,-17,0,0,0,15587,0,89,39,0,95,441,13,51,0,0,0,89,1,0,3,68608,283
10553000,525,12,52,-20,0,0,0,20458,0,75,37,0,95,453,13,52,0,0,0,86,6,0,2,63488,282
10573000,526,12,52,-21,0,0,0,17258,0,136,39,0,95,440,11,54,0,0,0,84,6,0,0,67584,282
10593000,527,6,55,-31,0,0,0,20556,0,153,39,0,95,457,12,55,-10,0,0,87,1,0,0,86016,283
10613000,528,3,53,-22,0,0,0,18949,0,85,40,0,95,459,12,53,0,0,0,91,1,0,0,75776,283
10633000,529,3,54,-26,0,0,0,20760,0,42,41,0,95,466,14,55,-10,0,0,88,1,0,10,58368,281
10653000,530,4,53,-25,0,0,0,15170,0,58,40,0,95,451,14,53,-10,0,0,92,1,0,9,84992,280
10673000,531,3,53,-25,0,0,0,18526,0,59,36,0,95,455,13,56,0,0,0,89,1,0,12,103424,271
10693000,532,8,52,-9,0,0,0,17160,0,80,38,0,95,447,13,53,0,0,0,86,1,0,4,90112,267
10713000,533,10,51,-25,0,0,0,20536,0,68,39,0,95,445,12,52,0,0,0,92,1,0,6,97280,267
10734000,534,14,52,-26,0,0,0,19079,0,66,39,0,95,445,12,52,0,0,0,92,1,0,6,84992,268
10754000,535,9,53,-25,0,0,0,20557,0,84,39,0,95,462,10,53,-10,0,0,85,1,0,3,91136,268
10774000,536,3,55,-25,0,0,0,15726,0,119,39,0,95,452,10,55,-10,0,0,89,1,0,0,92160,267
10794000,537,4,54,-26,0,0,0,20575,0,115,38,0,95,456,11,55,0,0,0,89,1,0,0,89088,267
10814000,538,9,54,-4,0,0,0,17094,0,60,38,0,95,458,12,54,-10,0,0,85,1,0,9,81920,268
10834000,539,10,52,-37,0,0,0,20458,0,69,39,0,95,459,14,52,-10,0,0,90,1,0,10,110592,268
10854000,540,7,52,-23,0,0,0,19293,0,71,41,0,95,447,13,52,0,0,0,92,1,0,2,86016,269
10874000,541,3,52,-23,0,0,0,20685,0,21,40,0,95,448,12,52,0,0,0,92,1,0,24,84992,268
10894000,542,3,53,-26,0,0,0,15737,0,23,40,0,95,455,12,53,0,0,0,91,1,0,24,102400,270
10914000,543,7,52,-18,0,0,0,20562,0,23,37,0,95,453,11,52,0,0,0,91,1,0,24,87040,269
10935000,544,10,52,-24,0,0,0,16975,0,20,40,0,95,448,12,52,-10,0,0,87,1,0,25,91136,269
10955000,545,10,53,-27,0,0,0,20580,0,19,39,0,95,452,12,53,0,0,0,92,1,0,27,88064,269
10975000,546,7,54,-23,0,0,0,19268,0,18,40,0,95,468,10,54,0,0,0,87,1,0,29,82944,269
10995000,547,3,54,-31,0,0,0,20567,0,131,38,0,95,449,11,56,0,0,0,87,1,0,1,90112,269
11015000,548,4,55,-21,0,0,0,15961,0,111,36,0,95,454,11,56,0,0,0,84,1,0,0,92160,272
11035000,549,3,54,-26,0,0,0,20608,0,63,41,0,95,448,11,54,0,0,0,92,1,0,8,87040,270
11055000,550,8,53,-33,0,0,0,16898,0,24,39,0,95,442,14,53,0,0,0,89,1,0,24,92160,270
11075000,551,4,52,-8,0,0,0,20584,0,70,39,0,95,441,13,52,0,0,0,87,1,0,6,88064,269
11095000,552,3,51,-21,0,0,0,19629,0,92,40,0,95,443,12,54,0,0,0,89,1,0,1,88064,269
11115000,553,9,52,-19,0,0,0,20212,0,66,37,0,95,450,15,52,0,0,0,88,1,0,7,89088,264
11136000,554,3,51,-21,0,0,0,16023,0,63,38,0,95,442,13,51,0,0,0,91,1,0,8,86016,264
11156000,555,9,50,-19,0,0,0,20602,0,24,38,0,95,430,12,50,0,0,0,92,1,0,8,89088,263
11176000,556,3,49,-17,0,0,0,16829,0,32,38,0,95,425,12,49,0,0,0,90,1,0,21,84992,262
11196000,557,10,49,-19,0,0,0,20660,0,33,37,0,95,442,11,49,0,0,0,91,1,0,18,98304,263
11216000,558,3,51,-21,0,0,0,19690,0,25,39,0,95,450,11,51,0,0,0,92,1,0,20,86016,263
11236000,559,4,50,-28,0,0,0,20576,0,26,37,0,95,441,11,51,-10,0,0,91,1,0,21,87040,263
11256000,560,3,50,-23,0,0,0,16117,0,73,39,0,95,438,10,50,0,0,0,91,1,0,5,83968,263
11276000,561,3,51,-20,0,0,0,20631,0,72,36,0,95,450,11,51,0,0,0,91,1,0,5,82944,263
11296000,562,4,52,-16,0,0,0,16675,0,25,39,0,95,481,13,52,0,0,0,85,1,0,9,88064,263
11316000,563,4,50,-27,0,0,0,20635,0,85,38,0,95,436,12,50,0,0,0,92,1,0,3,91136,264
11337000,564,3,50,-17,0,0,0,19684,0,86,38,0,95,438,11,49,0,0,0,91,1,0,6,92160,264
11357000,565,0,51,-24,0,0,0,20618,0,31,38,0,95,453,14,51,0,0,0,88,1,0,19,81920,263
11377000,566,4,51,-16,0,0,0,16160,0,93,39,0,95,451,15,53,-10,0,0,82,1,0,1,89088,265
11397000,567,4,52,-21,0,0,0,20603,0,111,40,0,95,438,13,52,0,0,0,89,1,0,0,91136,264
11417000,568,4,50,-30,0,0,0,16623,0,114,36,0,95,440,13,52,0,0,0,88,1,0,0,89088,264
11437000,569,9,51,-26,0,0,0,20520,0,96,38,0,95,454,13,52,-10,0,0,80,1,0,0,93184,264
11457000,570,3,51,-17,0,0,0,20087,0,44,39,0,95,438,12,49,0,0,0,92,1,0,12,82944,264
11477000,571,11,50,-21,0,0,0,20589,0,41,37,0,95,436,11,51,0,0,0,85,1,0,15,73728,265
11497000,572,6,51,-24,0,0,0,16303,0,26,38,0,95,457,11,51,0,0,0,92,1,0,22,87040,265
11517000,573,4,52,-20,0,0,0,20451,0,29,37,0,95,454,12,50,0,0,0,92,1,0,20,82944,265
11538000,574,7,58,-16,0,0,0,16179,0,48,39,0,95,477,13,58,0,0,0,90,1,0,13,92160,266
11558000,575,6,64,-28,0,0,0,19989,0,43,40,0,95,498,14,64,0,0,0,88,1,0,16,88064,263
11578000,576,3,71,-17,0,0,0,14886,0,9,40,0,95,491,18,66,0,32,160,75,1,0,51,89088,200
11598000,577,9,53,-14,0,0,0,20607,0,44,40,0,95,441,15,62,10,0,0,80,1,0,16,32768,219
11618000,578,7,54,-13,0,0,0,16386,0,46,39,0,95,440,13,54,0,0,0,89,1,0,13,49152,222
11638000,579,0,56,-11,0,0,0,20133,0,57,40,0,95,465,13,55,0,0,0,81,1,0,9,38912,225
11658000,580,4,49,-19,0,0,0,16574,0,66,40,0,95,452,12,50,0,0,0,85,1,0,7,57344,224
11678000,581,10,53,-21,0,0,0,20823,0,108,40,0,95,438,15,53,0,0,0,87,1,0,0,55296,225
11698000,582,4,53,-6,0,0,0,20470,0,120,39,0,95,464,15,54,0,0,0,83,6,0,0,55296,225
11718000,583,11,53,-27,0,0,0,20549,0,75,40,0,95,442,16,53,0,0,0,90,6,0,0,67584,225
11739000,584,3,52,-27,0,0,0,16461,0,77,38,0,95,435,16,56,0,0,0,90,1,0,6,56320,225
11759000,585,7,52,-21,0,0,0,20789,0,70,40,0,95,443,13,52,0,0,0,92,1,0,20,64512,224
11779000,586,3,52,-20,0,0,0,16481,0,32,40,0,95,462,12,52,0,0,0,92,1,0,19,56320,223
11799000,587,10,49,-16,0,0,0,20747,0,27,39,0,95,428,12,50,0,0,0,91,1,0,20,74752,225
11819000,588,11,50,-17,0,0,0,20461,0,30,41,0,95,468,11,51,0,0,0,91,1,0,21,58368,224
11839000,589,14,52,-14,0,0,0,20817,0,58,40,0,95,456,14,52,0,0,0,90,1,0,9,54272,224
11859000,590,10,50,-20,0,0,0,16603,0,58,40,0,95,433,14,51,0,0,0,92,1,0,9,64512,225
11879000,591,4,49,-16,0,0,0,20814,0,32,43,0,95,458,13,51,0,0,0,91,1,0,17,55296,224
11899000,592,3,48,-9,0,0,0,16356,0,38,39,0,95,445,11,49,0,0,0,90,1,0,13,78848,223
11919000,593,8,50,-8,0,0,0,20735,0,77,42,0,95,441,12,50,0,0,0,87,1,0,4,66560,224
11940000,594,4,50,-19,0,0,0,20178,0,78,42,0,95,438,12,51,10,0,0,89,1,0,4,64512,224
11960000,595,4,48,-18,0,0,0,20840,0,42,41,0,95,436,11,49,0,0,0,91,1,0,14,59392,225
11980000,596,4,48,14,0,0,0,16668,0,73,40,0,95,442,11,47,0,0,0,81,1,0,5,67584,226
12000000,597,3,60,-53,0,0,0,14269,0,73,41,0,95,465,12,54,0,0,0,81,1,0,5,98304,186
12020000,598,4,48,-32,0,0,0,16311,0,94,39,0,95,468,11,59,-20,0,0,84,1,0,5,49152,184
12040000,599,4,49,-34,0,0,0,20943,0,95,37,0,95,430,11,49,-20,0,0,86,1,0,1,50176,185
12060000,600,3,47,-28,0,0,0,20142,0,95,38,0,95,432,11,50,-20,0,0,86,1,0,1,35840,185
12080000,601,3,47,-25,0,0,0,20799,0,77,37,0,95,430,13,48,-20,0,0,83,1,0,4,40960,185
12100000,602,11,51,-32,0,0,0,16765,0,116,38,0,95,451,16,51,-20,0,0,89,1,0,0,38912,186
12120000,603,4,47,-35,0,0,0,20843,0,96,37,0,95,443,14,51,-20,0,0,83,1,0,1,49152,186
12141000,604,0,49,-31,0,0,0,16263,0,115,37,0,95,442,13,48,-20,0,0,80,1,0,0,46080,185
12161000,605,4,50,-34,0,0,0,20759,0,116,35,0,95,437,12,50,-20,0,0,91,1,0,0,44032,185
12181000,606,4,51,-32,0,0,0,19870,0,65,37,0,95,450,14,50,-20,0,0,84,1,0,6,32768,185
12201000,607,7,49,-34,0,0,0,20883,0,85,36,0,95,439,13,49,-20,0,0,91,1,0,2,41984,185
12221000,608,4,47,-29,0,0,0,16794,0,69,36,0,95,431,14,48,-20,0,0,87,1,0,6,49152,185
12241000,609,4,47,-27,0,0,0,20913,0,43,36,0,95,442,12,48,-20,0,0,87,1,0,13,43008,186
12261000,610,11,49,-32,0,0,0,16146,0,47,37,0,95,444,11,49,-20,0,0,86,1,0,11,39936,186
12281000,611,4,50,-36,0,0,0,20569,0,95,36,0,95,437,12,49,-20,0,0,90,1,0,1,52224,186
12301000,612,0,51,-23,0,0,0,15485,0,46,42,0,95,450,13,51,-20,0,0,84,1,0,13,79872,187
12321000,613,3,57,-34,0,0,0,20595,0,48,39,0,95,478,14,61,-10,0,0,90,1,0,10,48128,194
12342000,614,7,49,-21,0,0,0,16902,0,55,39,0,95,436,14,49,0,0,0,91,1,0,9,91136,194
12362000,615,3,47,-12,0,0,0,20896,0,55,37,0,95,478,14,47,0,0,0,83,1,0,9,126976,194
12382000,616,4,48,-37,0,0,0,16064,0,55,35,0,95,433,14,47,-20,0,0,85,1,0,9,121856,193
12402000,617,0,49,-13,0,0,0,20664,0,97,40,0,95,430,12,50,-10,0,0,85,4,0,1,138240,194
12422000,618,4,47,-29,0,0,0,19557,0,94,39,0,95,426,11,49,-10,0,0,91,1,0,1,137216,194
12442000,619,7,49,-24,0,0,0,20751,0,48,38,0,95,467,11,49,0,0,0,89,1,0,11,145408,194
12462000,620,12,49,-23,0,0,0,17061,0,34,40,0,95,441,10,49,0,0,0,91,1,0,15,146432,194
12482000,621,3,50,19,0,0,0,16351,0,29,38,0,95,447,12,50,-10,133,10,88,1,0,19,120832,96
12502000,622,4,52,-24,0,0,0,15652,0,32,39,0,95,473,14,62,-20,0,0,83,1,0,20,121856,-130
12522000,623,3,51,-26,0,0,0,20154,0,70,40,0,95,442,12,50,-20,0,0,82,1,0,5,106496,-126
12543000,624,4,50,-1,0,0,0,19310,0,104,37,0,95,444,11,53,-20,0,0,84,1,0,0,100352,-125
12563000,625,9,52,-25,0,0,0,20374,0,45,39,0,95,438,12,52,-10,0,0,92,1,0,3,120832,-126
12583000,626,3,52,-29,0,0,0,16581,0,31,40,0,95,429,11,51,-20,0,0,92,1,0,18,112640,-124
12603000,627,10,50,-24,0,0,0,20375,0,36,39,0,95,446,12,52,-10,0,0,88,1,0,15,118784,-125
12623000,628,11,50,-27,0,0,0,15833,0,108,38,0,95,422,11,50,-10,0,0,88,1,0,0,99328,-126
12643000,629,4,52,-21,0,0,0,20069,0,120,41,0,95,468,14,51,-20,0,0,83,1,0,0,107520,-124
12663000,630,4,50,-28,0,0,0,19115,0,92,38,0,95,454,14,55,-20,0,0,81,1,0,1,105472,-125
12683000,631,4,50,-28,0,0,0,20306,0,75,38,0,95,448,13,51,-20,0,0,86,1,0,7,110592,-125
12703000,632,9,50,-25,0,0,0,16715,0,36,38,0,95,439,11,50,-20,0,0,90,1,0,15,109568,-124
12723000,633,3,50,-30,0,0,0,20206,0,40,39,0,95,470,12,53,-10,0,0,83,1,0,7,100352,-124
12744000,634,10,49,-31,0,0,0,15782,0,84,39,0,95,430,11,51,-20,0,0,92,1,0,3,104448,-126
12764000,635,4,49,-23,0,0,0,20439,0,83,40,0,95,446,11,49,-10,0,0,90,1,0,6,107520,-125
12784000,636,4,50,-26,0,0,0,18799,0,40,42,0,95,438,13,50,-20,0,0,90,1,0,14,104448,-125
12804000,637,3,51,-32,0,0,0,20333,0,108,39,0,95,453,12,52,-20,0,0,91,1,0,0,109568,-125
12824000,638,11,49,-27,0,0,0,16905,0,106,40,0,95,429,12,50,-20,0,0,91,1,0,0,106496,-124
12844000,639,4,49,-28,0,0,0,20412,0,39,38,0,95,433,13,49,-20,0,0,86,1,0,13,104448,-125
12864000,640,10,50,-28,0,0,0,15679,0,88,39,0,95,432,13,50,-20,0,0,86,1,0,2,101376,-126
12884000,641,3,50,-30,0,0,0,20450,0,99,38,0,95,427,14,50,-20,0,0,82,1,0,0,105472,-125
12904000,642,7,48,-23,0,0,0,18919,0,88,38,0,95,424,13,49,-20,0,0,91,1,0,2,89088,-125
12924000,643,4,49,-26,0,0,0,20461,0,74,38,0,95,428,12,49,-10,0,0,92,1,0,12,104448,-125
12945000,644,3,50,-32,0,0,0,16847,0,84,38,0,95,448,11,51,-20,0,0,85,1,0,2,106496,-125
12965000,645,10,48,-30,0,0,0,20359,0,108,37,0,95,443,11,49,-20,0,0,85,1,0,0,100352,-126
12985000,646,7,49,-28,0,0,0,15620,0,102,39,0,95,439,11,49,-20,0,0,92,1,0,0,120832,-126
13005000,647,4,49,-29,0,0,0,20397,0,82,38,0,95,441,13,53,-20,0,0,83,1,0,2,105472,-125
13025000,648,3,50,-29,0,0,0,18888,0,89,39,0,95,451,13,50,-10,0,0,92,1,0,2,101376,-125
13045000,649,10,49,-23,0,0,0,20511,0,82,39,0,95,462,11,49,-20,0,0,91,1,0,5,112640,-125
13065000,650,11,50,-27,0,0,0,17108,0,40,38,0,95,430,12,49,-20,0,0,86,1,0,14,101376,-125
13085000,651,7,49,-27,0,0,0,20076,0,40,37,0,95,436,14,50,-20,0,0,92,1,0,14,118784,-124
13105000,652,11,49,-33,0,0,0,15478,0,110,39,0,95,446,13,50,-20,0,0,91,1,0,0,124928,-126
13125000,653,8,51,-25,0,0,0,20249,0,110,40,0,95,442,14,50,-10,0,0,85,1,0,0,113664,-123
13146000,654,4,50,-30,0,0,0,18721,0,67,40,0,95,439,13,49,-20,0,0,86,1,0,11,103424,-125
13166000,655,0,50,-4,0,0,0,20209,0,67,40,0,95,439,12,50,-20,0,0,85,1,0,3,108544,-123
13186000,656,4,49,-31,0,0,0,17135,0,85,41,0,95,455,12,48,-20,0,0,88,6,0,3,107520,-123
13206000,657,4,50,-21,0,0,0,20281,0,71,38,0,95,452,11,50,-10,0,0,81,1,0,10,129024,-123
13226000,658,9,47,-25,0,0,0,15443,0,92,38,0,95,434,11,51,-10,0,0,82,1,0,1,120832,-125
13246000,659,7,50,-31,0,0,0,20209,0,156,40,0,95,447,13,48,-30,0,0,90,6,0,0,110592,-124
13266000,660,14,49,-31,0,0,0,18578,0,136,37,0,95,433,13,49,-20,0,0,91,1,0,0,103424,-124
13286000,661,11,49,-28,0,0,0,20412,0,51,37,0,95,426,12,49,-10,0,0,92,1,0,15,109568,-124
13306000,662,4,48,-28,0,0,0,17217,0,42,38,0,95,446,11,50,-20,0,0,90,1,0,13,105472,-123
13326000,663,3,47,-31,0,0,0,20461,0,62,36,0,95,423,12,49,-30,0,0,82,1,0,7,111616,-124
13347000,664,11,49,-33,0,0,0,15370,0,90,39,0,95,465,12,49,-20,0,0,87,1,0,2,123904,-125
13367000,665,4,49,-31,0,0,0,20514,0,76,40,0,95,449,12,49,-20,0,0,90,1,0,4,113664,-124
13387000,666,10,49,-28,0,0,0,18349,0,62,38,0,95,427,12,49,-20,0,0,85,1,0,7,104448,-124
13407000,667,3,48,-31,0,0,0,20379,0,95,40,0,95,443,13,49,-20,0,0,86,1,0,0,104448,-124
13427000,668,3,52,-25,0,0,0,16966,0,97,38,0,95,460,14,50,-20,0,0,90,6,0,0,102400,-99
13447000,669,12,47,-9,0,0,0,20423,0,68,39,0,95,449,13,48,0,0,0,91,1,0,9,114688,-64
13467000,670,0,47,-14,0,0,0,15256,0,92,43,0,95,422,14,47,-10,0,0,86,1,0,0,111616,-63
13487000,671,3,47,-12,0,0,0,20579,0,118,41,0,95,435,13,49,0,0,0,90,6,0,0,119808,-62
13507000,672,3,49,-4,0,0,0,18052,0,95,42,0,95,437,13,48,0,0,0,87,3,0,1,111616,-60
13527000,673,8,45,-8,0,0,0,20642,0,83,39,0,95,425,12,50,0,0,0,86,3,0,1,106496,-60
13548000,674,13,48,-13,0,0,0,17570,0,101,40,0,95,433,11,47,0,0,0,91,6,0,0,101376,-59
13568000,675,3,48,-11,0,0,0,20566,0,83,42,0,95,448,11,49,0,0,0,88,3,0,6,105472,-57
13588000,676,3,47,-9,0,0,0,15230,0,71,42,0,95,426,10,48,0,0,0,91,3,0,5,103424,-59
13608000,677,4,49,2,0,0,0,20377,0,71,37,0,95,467,14,46,0,0,0,81,6,0,5,108544,-57
13628000,678,4,50,-12,0,0,0,18138,0,99,41,0,95,456,14,49,0,0,0,85,6,0,0,94208,-57
13648000,679,4,47,-13,0,0,0,20699,0,129,40,0,95,414,12,47,0,0,0,90,6,0,0,107520,-57
13668000,680,7,49,-10,0,0,0,17589,0,121,39,0,95,428,13,48,0,0,0,91,3,0,0,106496,-56
13688000,681,3,49,-7,0,0,0,20691,0,98,40,0,95,426,12,47,0,0,0,92,6,0,0,98304,-56
13708000,682,7,46,-7,0,0,0,15115,0,94,40,0,95,432,14,48,0,0,0,86,6,0,1,101376,-58
13728000,683,3,48,-16,0,0,0,20576,0,102,40,0,95,435,14,48,-10,0,0,92,4,0,0,110592,-56
13749000,684,11,47,-15,0,0,0,18047,0,116,40,0,95,435,14,47,-10,0,0,87,6,0,0,100352,-57
13769000,685,11,49,-11,0,0,0,20686,0,82,40,0,95,432,14,48,0,0,0,91,6,0,5,95232,-56
13789000,686,12,48,-9,0,0,0,17772,0,47,42,0,95,415,15,48,0,0,0,91,1,0,10,92160,-55
13809000,687,11,48,-4,0,0,0,20758,0,52,40,0,95,438,14,47,0,0,0,91,3,0,10,103424,-56
13829000,688,0,46,-5,0,0,0,15060,0,49,39,0,95,442,15,48,0,0,0,82,3,0,12,100352,-56
13849000,689,10,48,-7,0,0,0,20639,0,70,37,0,95,431,14,48,0,0,0,84,6,0,4,90112,-55
13869000,690,4,48,-11,0,0,0,17807,0,70,37,0,95,436,12,48,-10,0,0,87,6,0,4,104448,-54
13889000,691,15,48,11,0,0,0,20538,0,115,41,0,95,429,12,48,0,0,0,87,6,0,0,92160,-55
13909000,692,10,48,-9,0,0,0,17865,0,102,36,0,95,431,13,48,0,0,0,89,6,0,0,102400,-54
13929000,693,4,53,17,0,0,0,20295,0,48,40,0,95,470,14,51,0,0,0,86,6,0,12,102400,-49
13950000,694,11,47,-8,0,0,0,15031,0,47,40,0,95,431,13,47,0,0,0,89,6,0,12,91136,-52
13970000,695,4,48,-7,0,0,0,20675,0,68,38,0,95,431,12,48,0,0,0,88,3,0,6,81920,-51
13990000,696,7,48,-12,0,0,0,17860,0,103,38,0,95,446,12,48,0,0,0,85,6,0,0,84992,-52
14010000,697,10,48,-10,0,0,0,20759,0,120,40,0,95,424,12,49,0,0,0,90,6,0,0,93184,-51
14030000,698,10,47,-10,0,0,0,18044,0,89,38,0,95,428,11,48,0,0,0,91,1,0,2,78848,-51
14050000,699,3,47,-3,0,0,0,20432,0,41,39,0,95,431,12,49,10,0,0,90,1,0,14,95232,-52
14070000,700,12,48,-14,0,0,0,15022,0,80,39,0,95,436,13,48,0,0,0,83,1,0,3,91136,-50
14090000,701,8,48,-8,0,0,0,20420,0,133,40,0,95,436,15,48,-10,0,0,86,6,0,0,70656,-51
14110000,702,10,49,-13,0,0,0,17807,0,115,41,0,95,435,13,49,0,0,0,92,1,0,0,93184,-52
14130000,703,9,48,-9,0,0,0,20656,0,45,38,0,95,428,12,48,0,0,0,89,1,0,13,81920,-51
14151000,704,9,48,-4,0,0,0,18097,0,65,40,0,95,428,12,48,0,0,0,91,3,0,6,86016,-51
14171000,705,11,48,-6,0,0,0,20502,0,63,41,0,95,433,11,48,0,0,0,91,6,0,7,91136,-51
14191000,706,3,47,-11,0,0,0,15147,0,101,38,0,95,440,11,48,0,0,0,86,6,0,0,88064,-50
14211000,707,10,48,-10,0,0,0,20628,0,113,40,0,95,431,12,48,0,0,0,92,6,0,0,94208,-51
14231000,708,14,46,-10,0,0,0,17619,0,66,39,0,95,429,12,47,0,0,0,91,3,0,6,93184,-51
14251000,709,7,47,-4,0,0,0,20527,0,74,38,0,95,431,11,47,0,0,0,87,3,0,5,87040,-51
14271000,710,11,48,-11,0,0,0,18205,0,83,38,0,95,429,12,48,0,0,0,90,6,0,3,86016,-51
14291000,711,3,47,-5,0,0,0,20683,0,57,42,0,95,421,12,48,0,0,0,91,3,0,8,78848,-51
14311000,712,7,47,-7,0,0,0,15189,0,68,40,0,95,434,13,49,0,0,0,86,3,0,5,89088,-49
14331000,713,11,48,-8,0,0,0,20576,0,85,39,0,95,449,12,48,0,0,0,84,6,0,2,96256,-50
14352000,714,4,47,-6,0,0,0,17579,0,78,39,0,95,433,13,48,0,0,0,82,6,0,4,86016,-52
14372000,715,4,47,-4,0,0,0,20553,0,101,38,0,95,415,13,47,0,0,0,91,6,0,0,103424,-50
14392000,716,10,50,-10,0,0,0,18353,0,103,40,0,95,439,13,48,0,0,0,91,6,0,0,74752,-50
14412000,717,3,50,-9,0,0,0,20650,0,63,40,0,95,451,13,50,0,0,0,91,3,0,7,86016,-50
14432000,718,3,48,-6,0,0,0,15329,0,37,38,0,95,443,13,49,0,0,0,90,3,0,14,84992,-49
14452000,719,3,48,-4,0,0,0,20596,0,62,39,0,95,431,11,47,0,0,0,87,3,0,7,79872,-50
14472000,720,6,46,-7,0,0,0,17339,0,99,41,0,95,419,14,48,0,0,0,87,6,0,0,93184,-51
14492000,721,11,48,-7,0,0,0,20582,0,95,42,0,95,428,12,47,0,0,0,92,6,0,1,74752,-50
14512000,722,10,47,-7,0,0,0,18497,0,57,39,0,95,430,12,48,0,0,0,91,6,0,9,83968,-50
14532000,723,11,46,-5,0,0,0,20653,0,71,40,0,95,423,12,47,0,0,0,91,3,0,4,82944,-50
14553000,724,4,47,-9,0,0,0,15336,0,71,38,0,95,425,12,47,0,0,0,86,3,0,4,71680,-49
14573000,725,7,49,-5,0,0,0,20727,0,87,40,0,95,427,11,49,0,0,0,91,6,0,0,82944,-50
14593000,726,4,46,-7,0,0,0,17454,0,91,38,0,95,434,11,47,0,0,0,85,1,0,3,76800,-51
14613000,727,10,49,-7,0,0,0,20742,0,81,41,0,95,444,11,49,0,0,0,92,1,0,1,84992,-49
14633000,728,4,47,-5,0,0,0,18642,0,61,37,0,95,432,14,48,0,0,0,87,3,0,3,71680,-49
14653000,729,8,48,-8,0,0,0,20619,0,61,42,0,95,449,13,47,0,0,0,81,6,0,6,78848,-50
14673000,730,3,47,-9,0,0,0,15402,0,86,41,0,95,432,12,46,0,0,0,88,6,0,1,79872,-49
14693000,731,9,48,-8,0,0,0,20650,0,92,38,0,95,425,12,48,0,0,0,91,6,0,2,64512,-50
14713000,732,13,48,3,0,0,0,17309,0,72,40,0,95,441,12,48,0,0,0,90,3,0,6,76800,-50
14733000,733,4,47,-8,0,0,0,20320,0,61,40,0,95,448,11,48,0,0,0,87,3,0,7,83968,-50
14754000,734,3,50,35,0,0,0,15249,0,98,41,0,95,445,12,49,0,0,0,87,6,0,0,81920,13
14774000,735,9,73,23,0,0,0,14984,0,34,45,0,95,511,12,74,0,0,0,87,1,0,22,107520,281
14794000,736,3,48,9,0,0,0,15580,0,48,42,0,95,422,11,59,10,0,0,87,1,0,22,90112,266
14814000,737,3,56,-2,0,0,0,20243,0,87,41,0,95,474,12,47,0,0,0,87,6,0,2,98304,263
14834000,738,4,49,-10,0,0,0,16975,0,91,40,0,95,439,11,56,0,0,0,82,1,0,1,97280,263
14854000,739,4,46,-2,0,0,0,20327,0,90,41,0,95,414,11,47,10,0,0,83,1,0,0,99328,259
14874000,740,3,49,20,0,0,0,17761,0,91,43,0,95,420,13,49,30,0,0,89,6,0,0,61440,245
14894000,741,4,57,5,0,0,0,19806,0,83,44,0,95,461,13,56,20,0,0,85,6,0,4,122880,249
14914000,742,7,48,8,0,0,0,15775,0,71,43,0,95,427,12,48,10,0,0,91,6,0,6,125952,246
14934000,743,11,47,10,0,0,0,20526,0,66,42,0,95,420,11,48,20,0,0,88,3,0,5,114688,245
14955000,744,0,0,0,0,0,0,16871,0,66,0,0,95,434,14,50,10,0,0,85,6,0,5,111616,244
14975000,745,4,53,4,0,0,0,20439,0,94,42,0,95,438,14,50,20,0,0,92,6,0,1,118784,248
14995000,746,7,48,6,0,0,0,19316,0,85,42,0,95,425,13,49,30,0,0,91,1,0,5,105472,246
15015000,747,10,48,8,0,0,0,20518,0,44,41,0,95,428,12,49,30,0,0,91,3,0,13,109568,246
15035000,748,4,47,9,0,0,0,15811,0,40,41,0,95,420,11,49,20,0,0,92,3,0,5,111616,246
15055000,749,3,48,7,0,0,0,20504,0,88,43,0,95,414,11,47,30,0,0,91,6,0,2,108544,245
15075000,750,4,48,4,0,0,0,16838,0,86,42,0,95,443,13,49,20,0,0,88,3,0,7,106496,244
15095000,751,7,48,17,0,0,0,20455,0,95,41,0,95,414,12,48,10,0,0,85,3,0,1,105472,244
15115000,752,4,48,4,0,0,0,19434,0,119,41,0,95,420,14,48,20,0,0,89,6,0,0,92160,244
15135000,753,3,54,12,0,0,0,17559,0,83,42,0,95,442,14,49,30,0,0,90,6,0,3,108544,243
15156000,754,4,56,-3,0,0,0,15810,0,62,41,0,95,481,15,63,0,0,0,86,6,0,8,97280,202
15176000,755,8,46,14,0,0,0,20117,0,69,42,0,95,414,13,46,10,0,0,88,6,0,6,81920,201
15196000,756,4,46,-8,0,0,0,16695,0,79,43,0,95,420,13,53,0,0,0,80,3,0,0,73728,199
15216000,757,8,46,-3,0,0,0,20522,0,111,40,0,95,411,15,44,10,0,0,91,3,0,0,82944,200
15236000,758,7,46,-4,0,0,0,19411,0,118,41,0,95,416,15,47,0,0,0,83,6,0,0,72704,199
15256000,759,4,48,-5,0,0,0,20468,0,98,41,0,95,416,13,47,10,0,0,91,6,0,0,72704,199
15276000,760,4,47,-8,0,0,0,15995,0,72,43,0,95,418,12,48,0,0,0,87,6,0,5,64512,200
15296000,761,7,47,-2,0,0,0,20541,0,68,42,0,95,432,14,46,0,0,0,85,6,0,6,61440,199
15316000,762,4,47,-6,0,0,0,16711,0,65,42,0,95,418,13,47,0,0,0,88,3,0,5,61440,199
15336000,763,10,47,2,0,0,0,20309,0,65,42,0,95,420,12,48,0,0,0,82,3,0,5,73728,199
15357000,764,4,49,-9,0,0,0,19612,0,102,40,0,95,420,12,48,0,0,0,90,6,0,0,54272,199
15377000,765,10,46,-3,0,0,0,20421,0,130,42,0,95,419,12,50,0,0,0,83,6,0,0,69632,198
15397000,766,10,46,-7,0,0,0,16094,0,134,41,0,95,417,9,47,10,0,0,86,6,0,0,66560,199
15417000,767,14,47,-8,0,0,0,20567,0,119,42,0,95,419,10,47,10,0,0,91,6,0,0,64512,198
15437000,768,7,47,-1,0,0,0,16610,0,92,42,0,95,424,12,48,10,0,0,85,3,0,2,71680,197
15457000,769,6,49,-7,0,0,0,19831,0,111,43,0,95,450,14,48,0,0,0,82,3,0,0,77824,201
15477000,770,12,47,-7,0,0,0,19643,0,111,43,0,95,417,13,50,0,0,0,83,6,0,0,115712,210
15497000,771,12,46,-6,0,0,0,20502,0,137,41,0,95,415,13,46,10,0,0,86,6,0,0,112640,209
15517000,772,3,48,0,0,0,0,16111,0,111,43,0,95,455,11,48,10,0,0,91,6,0,0,139264,211
15537000,773,11,48,-5,0,0,0,20041,0,55,42,0,95,450,14,51,0,0,0,86,6,0,9,107520,208
15558000,774,10,45,-6,0,0,0,16411,0,67,42,0,95,421,13,49,10,0,0,82,6,0,3,122880,210
15578000,775,10,46,-3,0,0,0,20377,0,67,41,0,95,435,13,45,0,0,0,83,6,0,3,136192,209
15598000,776,4,52,14,0,0,0,20290,0,93,41,0,95,458,13,47,0,0,0,83,6,0,0,123904,211
15618000,777,10,46,-8,0,0,0,20505,0,116,42,0,95,414,12,46,10,0,0,87,6,0,0,124928,209
15638000,778,4,47,-3,0,0,0,16274,0,99,43,0,95,423,12,47,10,0,0,91,6,0,3,123904,210
15658000,779,4,47,12,0,0,0,20450,0,62,42,0,95,428,12,47,0,0,0,83,3,0,0,120832,210
15678000,780,4,49,-3,0,0,0,16321,0,100,41,0,95,439,12,47,0,0,0,83,4,0,0,143360,210
15698000,781,0,48,-9,0,0,0,20377,0,100,42,0,95,421,12,54,0,0,0,87,4,0,0,126976,210
15718000,782,3,48,-9,0,0,0,20433,0,128,42,0,95,426,11,48,0,0,0,89,1,0,0,128000,210
15738000,783,3,64,11,0,0,0,18378,0,46,45,0,95,496,12,49,10,0,0,86,1,0,13,113664,206
15759000,784,8,57,4,0,0,0,16060,0,43,44,0,95,484,13,67,10,0,0,86,1,0,10,88064,202
15779000,785,0,0,0,0,0,0,20507,0,101,0,0,95,399,13,45,20,0,0,88,6,0,10,73728,199
15799000,786,4,47,2,0,0,0,15727,0,101,44,0,95,433,12,44,10,0,0,86,3,0,0,81920,200
15819000,787,4,47,12,0,0,0,20564,0,129,42,0,95,411,13,52,20,0,0,92,3,0,0,100352,205
15839000,788,10,45,23,0,0,0,20168,0,133,44,0,95,402,14,47,20,0,0,88,6,0,0,111616,201
15859000,789,11,46,4,0,0,0,20566,0,117,40,0,95,407,14,45,10,0,0,88,6,0,0,121856,202
15879000,790,10,48,1,0,0,0,16373,0,81,43,0,95,438,10,49,30,0,0,85,6,0,0,128000,202
15899000,791,14,47,8,0,0,0,20475,0,91,45,0,95,412,10,48,20,0,0,85,6,0,0,133120,200
15919000,792,12,49,6,0,0,0,16227,0,86,42,0,95,433,10,49,20,0,0,89,3,0,1,129024,200
15939000,793,7,47,-4,0,0,0,20518,0,85,41,0,95,426,11,48,20,0,0,90,3,0,5,138240,201
15960000,794,3,48,16,0,0,0,19932,0,85,43,0,95,421,13,47,10,0,0,90,6,0,1,121856,201
15980000,795,3,50,-1,0,0,0,20484,0,120,41,0,95,430,12,49,10,0,0,89,6,0,0,129024,201
16000000,796,4,47,3,0,0,0,16546,0,103,41,0,95,412,11,48,10,0,0,89,6,0,1,116736,200
16020000,797,8,48,12,0,0,0,20578,0,49,42,0,95,429,12,47,20,0,0,90,3,0,13,114688,199
16040000,798,12,48,7,0,0,0,16118,0,87,41,0,95,420,11,48,20,0,0,86,6,0,2,137216,199
16060000,799,4,51,3,0,0,0,20430,0,118,43,0,95,439,12,50,20,0,0,88,6,0,0,130048,202
16080000,800,7,47,-4,0,0,0,19850,0,93,41,0,95,411,11,48,10,0,0,91,6,0,0,108544,199
16100000,801,11,48,1,0,0,0,20624,0,64,43,0,95,423,12,48,20,0,0,86,3,0,7,107520,201
16120000,802,8,47,14,0,0,0,16607,0,65,42,0,95,423,13,47,20,0,0,89,3,0,11,125952,200
16140000,803,4,46,4,0,0,0,20562,0,72,40,0,95,421,14,47,10,0,0,85,6,0,5,113664,200
16161000,804,7,48,0,0,0,0,16058,0,128,45,0,95,425,13,49,10,0,0,90,6,0,0,119808,200
16181000,805,7,47,6,0,0,0,20598,0,118,42,0,95,420,13,48,10,0,0,91,6,0,0,115712,200
16201000,806,14,46,9,0,0,0,19614,0,120,41,0,95,410,13,47,10,0,0,87,3,0,0,106496,198
16221000,807,7,48,2,0,0,0,20481,0,140,40,0,95,428,13,48,20,0,0,88,6,0,0,116736,200
16241000,808,3,47,4,0,0,0,16669,0,99,43,0,95,417,12,47,10,0,0,88,6,0,0,110592,201
16261000,809,11,47,1,0,0,0,20542,0,68,43,0,95,409,11,47,20,0,0,88,6,0,0,112640,199
16281000,810,14,48,4,0,0,0,15999,0,58,40,0,95,419,11,47,20,0,0,91,3,0,4,109568,199
16301000,811,13,47,8,0,0,0,20565,0,58,42,0,95,419,14,47,20,0,0,88,3,0,8,109568,200
16321000,812,0,47,5,0,0,0,19580,0,74,42,0,95,418,12,46,10,0,0,88,6,0,6,106496,199
16341000,813,9,46,5,0,0,0,20403,0,72,41,0,95,421,13,48,20,0,0,85,6,0,5,120832,199
16362000,814,11,48,2,0,0,0,16762,0,88,41,0,95,421,11,48,10,0,0,90,6,0,0,104448,200
16382000,815,4,46,5,0,0,0,20529,0,95,42,0,95,413,11,48,20,0,0,88,6,0,1,117760,199
16402000,816,6,49,-1,0,0,0,15909,0,96,42,0,95,422,11,48,10,0,0,91,6,0,3,110592,200
16422000,817,4,48,1,0,0,0,20504,0,82,42,0,95,413,8,49,10,0,0,91,6,0,3,105472,200
16442000,818,3,52,9,0,0,0,19233,0,58,41,0,95,446,9,49,20,0,0,86,3,0,8,102400,203
16462000,819,3,48,3,0,0,0,20470,0,72,41,0,95,413,9,51,20,0,0,84,6,0,1,115712,200
16482000,820,7,47,-4,0,0,0,16893,0,90,42,0,95,421,11,48,10,0,0,91,6,0,0,104448,202
16502000,821,12,47,1,0,0,0,20602,0,96,41,0,95,420,11,48,10,0,0,91,3,0,4,105472,201
16522000,822,17,48,6,0,0,0,15787,0,106,40,0,95,420,12,47,0,0,0,82,6,0,0,126976,199
16542000,823,10,47,-1,0,0,0,20465,0,138,42,0,95,419,12,48,10,0,0,89,6,0,0,103424,202
16563000,824,7,50,2,0,0,0,19276,0,111,41,0,95,435,12,49,20,0,0,83,6,0,0,101376,202
16583000,825,11,53,5,0,0,0,20446,0,96,42,0,95,436,14,53,10,0,0,84,6,0,0,117760,202
16603000,826,4,51,-3,0,0,0,17024,0,135,39,0,95,420,13,52,10,0,0,84,6,0,0,103424,202
16623000,827,13,50,-4,0,0,0,20584,0,101,43,0,95,417,12,50,10,0,0,91,1,0,1,121856,202
16643000,828,4,50,-3,0,0,0,15802,0,29,42,0,95,443,12,50,0,0,0,92,3,0,20,104448,202
16663000,829,4,53,3,0,0,0,18302,0,31,43,0,95,459,12,53,20,0,0,86,3,0,19,109568,203
16683000,830,4,52,-4,0,0,0,19044,0,35,42,0,95,439,12,57,10,0,0,86,6,0,18,103424,204
16703000,831,3,52,-6,0,0,0,20560,0,62,42,0,95,438,12,52,0,0,0,92,1,0,7,96256,206
16723000,832,4,50,-7,0,0,0,17081,0,72,40,0,95,422,12,53,20,0,0,90,1,0,5,105472,206
16743000,833,3,51,0,0,0,0,20580,0,72,40,0,95,426,11,51,0,0,0,87,1,0,5,114688,205
16764000,834,8,50,-6,0,0,0,15726,0,77,42,0,95,422,12,50,0,0,0,89,6,0,1,112640,204
16784000,835,7,51,-3,0,0,0,20609,0,77,41,0,95,427,11,51,10,0,0,91,6,0,10,121856,205
16804000,836,0,50,2,0,0,0,18772,0,77,42,0,95,495,14,51,10,0,0,80,1,0,10,94208,204
16824000,837,3,51,-3,0,0,0,20379,0,77,41,0,95,446,13,62,0,0,0,83,6,0,10,109568,206
16844000,838,3,53,-11,0,0,0,17242,0,89,39,0,95,435,12,53,0,0,0,86,6,0,2,106496,206
16864000,839,10,52,-5,0,0,0,20397,0,22,40,0,95,418,13,52,0,0,0,91,1,0,23,113664,205
16884000,840,4,54,-11,0,0,0,15575,0,92,42,0,95,443,12,53,0,0,0,88,1,0,1,104448,204
16904000,841,3,62,-5,0,0,0,17273,0,106,45,0,95,464,14,54,10,0,0,85,1,0,0,114688,204
16924000,842,9,73,-35,0,0,0,14222,0,56,41,0,95,511,14,72,-30,19,124,84,1,0,11,124928,-155
16944000,843,3,53,-37,0,0,0,20503,0,22,39,0,95,442,12,56,-20,0,0,91,1,0,31,121856,-142
16965000,844,7,52,-38,0,0,0,16997,0,40,39,0,95,432,13,52,-20,0,0,86,1,0,16,121856,-141
16985000,845,6,55,-41,0,0,0,20724,0,30,37,0,95,449,14,55,-30,0,0,92,1,0,21,126976,-143
17005000,846,4,53,-45,0,0,0,15852,0,29,38,0,95,435,13,53,-30,0,0,91,1,0,21,119808,-144
17025000,847,3,54,-47,0,0,0,20813,0,54,41,0,95,434,14,52,-40,0,0,85,1,0,3,120832,-143
17045000,848,3,54,-48,0,0,0,19061,0,108,38,0,95,427,17,55,-30,0,0,84,1,0,0,120832,-144
17065000,849,11,51,-44,0,0,0,20869,0,98,39,0,95,421,14,53,-30,0,0,89,1,0,4,121856,-143
17085000,850,14,52,-46,0,0,0,17282,0,34,36,0,95,417,14,51,-40,0,0,88,1,0,17,122880,-143
17105000,851,7,51,-42,0,0,0,20913,0,57,37,0,95,429,13,52,-30,0,0,84,1,0,8,115712,-143
17125000,852,4,49,-35,0,0,0,15814,0,104,39,0,95,418,14,52,-40,0,0,86,1,0,8,121856,-144
17145000,853,3,51,-46,0,0,0,20800,0,139,35,0,95,423,16,51,-30,0,0,85,1,0,0,126976,-144
17166000,854,3,51,-40,0,0,0,19110,0,111,37,0,95,427,16,51,-30,0,0,88,1,0,2,120832,-144
17186000,855,7,50,-43,0,0,0,20776,0,42,34,0,95,450,13,52,-30,0,0,88,1,0,13,116736,-144
17206000,856,3,50,-39,0,0,0,17418,0,38,37,0,95,432,13,50,-30,0,0,81,1,0,16,142336,-144
17226000,857,7,51,-41,0,0,0,20800,0,88,37,0,95,445,14,52,-30,0,0,90,1,0,2,132096,-144
17246000,858,12,50,-42,0,0,0,15631,0,100,39,0,95,430,13,51,-30,0,0,91,1,0,0,125952,-145
17266000,859,3,48,-38,0,0,0,20955,0,67,40,0,95,416,9,49,-40,0,0,92,1,0,3,125952,-144
17286000,860,4,48,-16,0,0,0,19026,0,111,36,0,95,402,11,50,-30,0,0,90,1,0,3,113664,-145
17306000,861,0,49,-42,0,0,0,21005,0,111,37,0,95,440,11,47,-40,0,0,86,1,0,0,113664,-144
17326000,862,8,49,-39,0,0,0,17494,0,116,36,0,95,412,13,50,-20,0,0,80,1,0,0,124928,-144
17346000,863,4,53,-50,0,0,0,20916,0,132,40,0,95,447,15,53,-30,0,0,92,1,0,0,129024,-144
17367000,864,4,52,-51,0,0,0,15247,0,155,36,0,95,433,15,56,-40,0,0,85,1,0,0,119808,-155
17387000,865,9,50,-45,0,0,0,21015,0,45,37,0,95,432,15,52,-40,0,0,92,1,0,0,113664,-154
17407000,866,10,52,-50,0,0,0,18856,0,32,36,0,95,447,13,51,-40,0,0,88,1,0,18,119808,-155
17427000,867,4,52,-46,0,0,0,20908,0,34,37,0,95,441,12,53,-40,0,0,92,1,0,17,123904,-154
17447000,868,10,51,-42,0,0,0,17621,0,37,39,0,95,435,11,51,-30,0,0,91,1,0,16,123904,-154
17467000,869,10,51,-46,0,0,0,20995,0,65,38,0,95,436,12,52,-30,0,0,91,1,0,16,120832,-154
17487000,870,4,51,-43,0,0,0,15550,0,65,37,0,95,420,16,51,-30,0,0,83,1,0,6,130048,-156
17507000,871,3,52,-53,0,0,0,21015,0,35,38,0,95,438,13,51,-40,0,0,92,1,0,17,113664,-154
17527000,872,3,51,-47,0,0,0,18811,0,36,36,0,95,427,12,51,-40,0,0,92,1,0,16,112640,-155
17547000,873,4,49,-37,0,0,0,21018,0,84,37,0,95,426,13,51,-30,0,0,91,1,0,3,102400,-154
17568000,874,0,0,0,0,0,0,17738,0,128,0,0,95,408,15,52,-30,0,0,91,1,0,0,115712,-155
17588000,875,18,50,-43,0,0,0,20878,0,152,37,0,95,446,15,51,-30,0,0,91,1,0,0,117760,-157
17608000,876,7,57,-54,0,0,0,15486,0,140,36,0,95,452,16,57,-50,0,0,92,1,0,0,124928,-158
17628000,877,17,56,-51,0,0,0,20985,0,108,37,0,95,444,15,57,-40,0,0,92,1,0,0,108544,-158
17648000,878,10,54,-58,0,0,0,18671,0,117,37,0,95,432,16,56,-50,0,0,91,1,0,0,120832,-158
17668000,879,6,53,-53,0,0,0,20983,0,97,37,0,95,439,13,53,-50,0,0,92,1,0,2,115712,-158
17688000,880,7,50,-47,0,0,0,17788,0,35,40,0,95,416,14,50,-40,0,0,92,1,0,18,116736,-157
17708000,881,3,50,-50,0,0,0,20947,0,34,41,0,95,436,16,50,-40,0,0,92,1,0,6,116736,-158
17728000,882,3,48,-45,0,0,0,15430,0,117,37,0,95,409,13,53,-40,0,0,81,1,0,0,117760,-159
17748000,883,11,50,-49,0,0,0,20921,0,118,40,0,95,416,13,50,-40,0,0,92,1,0,0,116736,-158
17769000,884,3,50,-45,0,0,0,18522,0,71,39,0,95,429,12,51,-40,0,0,92,1,0,5,113664,-159
17789000,885,7,48,-42,0,0,0,21018,0,71,36,0,95,417,12,49,-30,0,0,91,1,0,8,122880,-158
17809000,886,3,51,-42,0,0,0,17988,0,45,36,0,95,422,15,50,-30,0,0,83,1,0,12,122880,-158
17829000,887,4,48,-42,0,0,0,20959,0,59,37,0,95,430,15,50,-30,0,0,90,1,0,7,124928,-158
17849000,888,7,50,-51,0,0,0,15306,0,105,38,0,95,439,15,51,-40,0,0,92,1,0,0,128000,-159
17869000,889,3,51,-51,0,0,0,20880,0,99,40,0,95,427,14,50,-40,0,0,92,1,0,1,116736,-158
17889000,890,4,52,-50,0,0,0,18471,0,99,40,0,95,453,14,50,-40,0,0,91,1,0,1,114688,-159
17909000,891,11,52,-49,0,0,0,20965,0,98,36,0,95,428,14,53,-50,0,0,91,1,0,0,112640,-159
17929000,892,7,50,-47,0,0,0,18050,0,145,35,0,95,414,13,52,-40,0,0,91,1,0,0,124928,-158
17949000,893,7,50,-48,0,0,0,20965,0,139,39,0,95,418,13,49,-40,0,0,86,1,0,0,110592,-159
17970000,894,6,53,-46,0,0,0,14936,0,86,38,0,95,430,13,53,-40,0,0,92,1,0,0,119808,-158
17990000,895,0,56,-23,0,0,0,16917,0,95,40,0,95,454,14,54,-10,0,0,90,1,0,3,108544,-92
18010000,896,13,47,14,0,0,0,16951,0,95,41,0,95,415,13,51,-10,0,0,91,1,0,3,100352,-77
18030000,897,4,47,-18,0,0,0,18373,0,115,40,0,95,419,14,50,-10,0,0,87,6,0,0,102400,-76
18050000,898,4,54,-22,0,0,0,14297,0,106,38,0,95,434,15,51,-10,0,0,92,6,0,0,112640,-74
18070000,899,4,52,-17,0,0,0,17081,0,106,40,0,95,430,15,54,0,0,0,90,1,0,0,99328,-71
18090000,900,7,49,-17,0,0,0,14059,0,116,39,0,95,413,13,54,-10,0,0,82,4,0,0,89088,-70
18110000,901,4,47,-17,0,0,0,18997,0,134,40,0,95,418,14,47,-10,0,0,91,4,0,0,84992,-70
18130000,902,12,50,-16,0,0,0,14669,0,80,40,0,95,433,14,49,-10,0,0,85,3,0,8,94208,-67
18150000,903,4,46,-11,0,0,0,16375,0,44,40,0,95,409,12,51,0,0,0,92,6,0,12,86016,-64
18171000,904,0,48,-14,0,0,0,16632,0,64,38,0,95,418,15,48,0,0,0,88,6,0,7,78848,-64
18191000,905,3,47,-13,0,0,0,18073,0,90,39,0,95,409,14,48,-10,0,0,90,6,0,1,77824,-64
18211000,906,4,49,-13,0,0,0,13705,0,91,41,0,95,420,12,50,0,0,0,92,1,0,1,90112,-62
18231000,907,3,50,-15,0,0,0,17021,0,35,40,0,95,427,12,50,-10,0,0,91,1,0,11,95232,-63
18251000,908,8,49,-12,0,0,0,15324,0,31,41,0,95,426,12,48,0,0,0,92,3,0,16,92160,-64
18271000,909,4,50,-3,0,0,0,14648,0,31,40,0,95,448,14,51,0,0,0,85,6,0,17,94208,-36
18291000,910,12,54,-8,0,0,0,14151,0,94,37,0,95,440,15,53,0,0,0,91,6,0,1,87040,-33
18311000,911,4,53,-12,0,0,0,15647,0,101,39,0,95,445,13,55,0,0,0,86,6,0,0,81920,-33
18331000,912,4,49,-4,0,0,0,13530,0,115,39,0,95,428,13,55,0,0,0,81,4,0,0,80896,-32
18351000,913,10,46,-10,0,0,0,16404,0,85,38,0,95,414,12,46,0,0,0,90,4,0,0,65536,-32
18372000,914,7,49,3,0,0,0,12918,0,85,39,0,95,429,12,50,0,0,0,89,3,0,4,79872,-26
18392000,915,0,45,-2,0,0,0,16954,0,98,40,0,95,417,11,47,0,0,0,91,6,0,0,66560,-30
18412000,916,11,51,-8,0,0,0,15544,0,143,38,0,95,433,13,45,0,0,0,90,6,0,0,60416,-29
18432000,917,9,52,-10,0,0,0,16590,0,136,40,0,95,432,14,53,0,0,0,89,6,0,0,66560,-29
18452000,918,4,49,-4,0,0,0,12203,0,83,40,0,95,419,13,51,0,0,0,85,1,0,6,92160,-25
18472000,919,7,49,-6,0,0,0,15905,0,35,38,0,95,425,12,48,0,0,0,90,1,0,16,74752,-27
18492000,920,4,47,-2,0,0,0,14301,0,59,40,0,95,426,14,47,0,0,0,87,3,0,4,62464,-28
18512000,921,3,47,-5,0,0,0,15805,0,94,38,0,95,433,12,49,0,0,0,83,6,0,0,65536,-27
18532000,922,4,65,25,0,0,0,11305,0,92,43,0,95,468,14,52,30,0,0,82,6,0,4,112640,132
18552000,923,3,67,18,0,0,0,19944,0,52,43,0,95,481,14,69,10,0,0,92,1,0,21,123904,220
18573000,924,0,44,6,0,0,0,15387,0,68,44,0,95,413,13,48,0,0,0,89,6,0,6,121856,209
18593000,925,0,44,-4,0,0,0,20325,0,95,39,0,95,409,13,45,0,0,0,89,6,0,1,126976,206
18613000,926,3,46,0,0,0,0,17099,0,95,41,0,95,432,14,45,0,0,0,81,3,0,1,114688,207
18633000,927,10,47,-3,0,0,0,20433,0,95,41,0,95,419,13,46,0,0,0,88,6,0,1,104448,205
18653000,928,12,47,-9,0,0,0,18821,0,77,40,0,95,419,13,48,0,0,0,91,6,0,4,106496,204
18673000,929,4,48,0,0,0,0,20470,0,76,40,0,95,424,14,46,0,0,0,84,3,0,4,93184,204
18693000,930,7,47,-7,0,0,0,15536,0,82,39,0,95,410,13,48,0,0,0,83,4,0,3,96256,204
18713000,931,10,47,-11,0,0,0,20470,0,90,39,0,95,407,12,48,0,0,0,88,4,0,2,89088,202
18733000,932,3,48,-8,0,0,0,17139,0,84,42,0,95,420,11,47,0,0,0,91,3,0,2,86016,201
18753000,933,3,48,-5,0,0,0,19848,0,45,42,0,95,421,11,49,0,0,0,91,3,0,12,84992,203
18774000,934,4,49,0,0,0,0,17536,0,38,41,0,95,428,11,49,0,0,0,88,3,0,16,110592,217
18794000,935,4,50,-12,0,0,0,20240,0,53,41,0,95,424,12,51,0,0,0,87,1,0,9,98304,220
18814000,936,4,46,-1,0,0,0,15543,0,73,42,0,95,419,11,49,0,0,0,91,6,0,4,107520,222
18834000,937,4,45,-3,0,0,0,20401,0,131,43,0,95,416,14,45,0,0,0,82,6,0,0,99328,223
18854000,938,4,49,-12,0,0,0,16978,0,135,41,0,95,425,14,46,0,0,0,91,6,0,0,106496,222
18874000,939,4,47,-14,0,0,0,20474,0,83,41,0,95,422,14,48,0,0,0,91,6,0,0,94208,222
18894000,940,4,48,-14,0,0,0,19005,0,58,39,0,95,422,13,47,-10,0,0,85,6,0,8,111616,221
18914000,941,3,47,-11,0,0,0,20513,0,44,41,0,95,421,15,48,0,0,0,91,3,0,12,87040,222
18934000,942,7,48,-10,0,0,0,15701,0,96,40,0,95,442,13,50,0,0,0,84,1,0,1,106496,223
18954000,943,7,49,-9,0,0,0,20392,0,124,39,0,95,426,15,48,0,0,0,85,1,0,0,97280,224
18975000,944,11,48,-14,0,0,0,16978,0,88,41,0,95,423,12,49,-10,0,0,92,1,0,2,83968,220
18995000,945,0,48,-13,0,0,0,20611,0,34,40,0,95,423,12,48,-10,0,0,88,3,0,13,99328,222
19015000,946,3,52,1,0,0,0,16522,0,102,41,0,95,449,13,48,10,0,0,81,3,0,13,103424,231
19035000,947,4,66,-7,0,0,0,18650,0,100,43,0,95,511,13,67,0,19,8,90,6,0,0,106496,140
19055000,948,10,47,0,0,0,0,15874,0,42,40,0,95,417,13,47,10,0,0,91,1,0,15,110592,153
19075000,949,7,46,1,0,0,0,20693,0,49,43,0,95,413,14,47,0,0,0,84,1,0,10,104448,153
19095000,950,7,46,4,0,0,0,16989,0,58,44,0,95,406,14,46,0,0,0,80,3,0,8,97280,153
19115000,951,8,46,11,0,0,0,20589,0,71,40,0,95,427,12,45,10,0,0,81,6,0,8,91136,154
19135000,952,3,45,-2,0,0,0,19425,0,62,43,0,95,394,11,44,0,0,0,87,6,0,4,88064,154
19155000,953,4,44,2,0,0,0,20688,0,62,41,0,95,391,14,46,0,0,0,83,3,0,6,96256,156
19176000,954,3,50,-5,0,0,0,15844,0,98,41,0,95,430,14,46,0,0,0,85,6,0,1,100352,159
19196000,955,4,53,10,0,0,0,20468,0,132,43,0,95,430,13,55,0,0,0,91,6,0,0,97280,156
19216000,956,3,50,-15,0,0,0,16824,0,110,42,0,95,430,14,52,0,0,0,81,6,0,0,88064,154
19236000,957,4,51,-11,0,0,0,20614,0,83,41,0,95,415,14,51,0,0,0,84,6,0,0,86016,156
19256000,958,3,46,-11,0,0,0,19503,0,113,41,0,95,400,13,51,0,0,0,88,6,0,0,97280,156
19276000,959,7,48,-8,0,0,0,20770,0,96,40,0,95,408,12,48,0,0,0,90,6,0,3,90112,157
19296000,960,4,49,-1,0,0,0,16048,0,35,41,0,95,425,14,48,10,0,0,91,3,0,16,105472,159
19316000,961,10,51,-6,0,0,0,20698,0,37,42,0,95,438,13,51,0,0,0,91,3,0,15,86016,160
19336000,962,4,49,-5,0,0,0,16665,0,48,39,0,95,413,12,51,10,0,0,83,1,0,11,108544,157
19356000,963,3,63,-1,0,0,0,15298,0,85,44,0,95,478,13,55,0,0,0,90,1,0,3,98304,200
19377000,964,3,54,-24,0,0,0,19202,0,44,40,0,95,456,13,68,-10,0,0,89,1,0,6,88064,185
19397000,965,7,48,-11,0,0,0,20322,0,81,40,0,95,411,12,48,-10,0,0,87,1,0,12,126976,186
19417000,966,8,49,-17,0,0,0,15996,0,81,41,0,95,410,11,49,0,0,0,82,1,0,3,130048,187
19437000,967,4,49,-16,0,0,0,20305,0,92,39,0,95,419,14,50,-10,0,0,82,1,0,2,141312,187
19457000,968,0,52,-15,0,0,0,16529,0,69,41,0,95,448,14,51,0,0,0,87,6,0,6,134144,184
19477000,969,3,50,-24,0,0,0,20388,0,71,41,0,95,423,13,50,0,0,0,92,1,0,5,131072,185
19497000,970,8,49,-20,0,0,0,19666,0,87,42,0,95,414,12,49,-10,0,0,85,1,0,2,136192,185
19517000,971,10,46,-19,0,0,0,20541,0,68,41,0,95,405,11,47,-10,0,0,91,1,0,6,122880,184
19537000,972,4,48,-21,0,0,0,16116,0,54,40,0,95,421,13,46,-10,0,0,86,1,0,9,134144,186
19557000,973,3,49,-14,0,0,0,20461,0,67,41,0,95,423,14,50,0,0,0,90,1,0,5,125952,186
19578000,974,10,49,-12,0,0,0,16478,0,61,40,0,95,420,14,49,0,0,0,91,1,0,7,125952,185
19598000,975,4,48,-13,0,0,0,20479,0,52,40,0,95,426,13,48,0,0,0,91,1,0,10,122880,185
19618000,976,0,45,4,0,0,0,20319,0,80,40,0,95,405,12,48,-10,0,0,90,1,0,3,123904,184
19638000,977,4,48,-17,0,0,0,20365,0,106,40,0,95,415,13,47,-10,0,0,83,6,0,0,118784,185
19658000,978,9,60,-49,0,0,0,13843,0,108,40,0,95,464,14,52,-20,21,0,85,6,0,0,83968,-42
19678000,979,7,49,-22,0,0,0,20392,0,93,37,0,95,414,13,58,-40,0,0,88,6,0,1,35840,-218
19698000,980,0,47,-37,0,0,0,16507,0,101,38,0,95,407,13,47,-40,0,0,92,1,0,1,40960,-219
19718000,981,0,47,-36,0,0,0,20795,0,101,38,0,95,405,14,48,-40,0,0,81,1,0,0,37888,-219
19738000,982,11,48,-42,0,0,0,20731,0,130,37,0,95,411,13,50,-40,0,0,91,1,0,0,46080,-220
19758000,983,4,48,-42,0,0,0,20749,0,124,39,0,95,421,14,48,-40,0,0,91,1,0,0,31744,-220
19779000,984,7,48,-47,0,0,0,16216,0,110,40,0,95,421,14,51,-40,0,0,87,1,0,0,49152,-219
19799000,985,0,56,-32,0,0,0,18132,0,110,39,0,95,439,14,51,-20,0,0,91,1,0,0,89088,-153
19819000,986,3,49,-20,0,0,0,14544,0,48,38,0,95,419,14,51,-10,0,0,92,1,0,3,117760,-137
19839000,987,3,48,-15,0,0,0,17190,0,48,37,0,95,428,14,48,-10,0,0,84,1,0,12,112640,-136
19859000,988,4,53,-19,0,0,0,17507,0,98,41,0,95,435,15,54,-10,0,0,87,1,0,0,98304,-140
19879000,989,4,46,-21,0,0,0,19255,0,132,38,0,95,401,13,48,-20,0,0,87,1,0,0,101376,-149
19899000,990,3,50,-25,0,0,0,13835,0,124,39,0,95,416,13,46,-20,0,0,82,6,0,0,114688,-148
19919000,991,4,49,-28,0,0,0,19006,0,117,37,0,95,454,14,49,-20,0,0,86,6,0,0,105472,-149
19939000,992,4,47,-17,0,0,0,14877,0,88,37,0,95,422,12,49,-10,0,0,86,1,0,4,98304,-150
19959000,993,3,49,-26,0,0,0,16972,0,83,38,0,95,416,13,49,-20,0,0,92,6,0,3,107520,-149
19980000,994,8,49,-25,0,0,0,17959,0,85,35,0,95,421,12,49,-20,0,0,87,6,0,2,104448,-149
20000000,995,0,48,-21,0,0,0,17681,0,42,36,0,95,429,12,48,-20,0,0,92,1,0,13,95232,-149
20020000,996,4,47,-23,0,0,0,14471,0,79,41,0,95,416,12,48,-10,0,0,91,1,0,2,99328,-149
20040000,997,11,47,-29,0,0,0,18651,0,122,40,0,95,435,15,49,-20,0,0,80,1,0,0,108544,-149
20060000,998,4,48,-25,0,0,0,14224,0,133,38,0,95,435,15,48,-10,0,0,90,1,0,0,104448,-150
20080000,999,4,48,-26,0,0,0,18500,0,96,36,0,95,425,14,48,-20,0,0,91,1,0,1,100352,-149
20100000,1000,12,48,-25,0,0,0,17881,0,45,39,0,95,446,13,48,-20,0,0,91,1,0,12,104448,-149
20120000,1001,3,49,-25,0,0,0,17731,0,81,37,0,95,420,13,48,-20,0,0,91,1,0,3,96256,-149
20140000,1002,7,48,-27,0,0,0,14833,0,81,40,0,95,419,12,49,-20,0,0,86,1,0,3,131072,-149
20160000,1003,8,46,-17,0,0,0,18655,0,64,38,0,95,421,12,48,-10,0,0,90,1,0,4,99328,-149
20181000,1004,0,48,-22,0,0,0,14760,0,84,39,0,95,428,14,50,-20,0,0,91,1,0,3,96256,-150
20201000,1005,4,50,-20,0,0,0,17003,0,84,40,0,95,451,15,48,-20,0,0,92,4,0,3,110592,-149
20221000,1006,3,50,-26,0,0,0,17688,0,136,39,0,95,438,16,53,-20,0,0,80,4,0,0,103424,-149
20241000,1007,10,49,-28,0,0,0,18391,0,166,37,0,95,430,15,52,-20,0,0,80,6,0,0,108544,-149
20261000,1008,4,48,-27,0,0,0,15406,0,122,39,0,95,413,13,47,-10,0,0,85,1,0,0,114688,-149
20281000,1009,10,49,-23,0,0,0,17982,0,52,39,0,95,441,12,49,-20,0,0,92,1,0,9,98304,-149
20301000,1010,11,48,-22,0,0,0,15142,0,45,39,0,95,425,12,48,-10,0,0,87,1,0,12,106496,-150
20321000,1011,10,51,-26,0,0,0,17461,0,88,36,0,95,453,13,49,-20,0,0,85,6,0,2,92160,-149
20341000,1012,15,48,-26,0,0,0,18237,0,95,37,0,95,425,12,49,-20,0,0,92,6,0,1,98304,-149
20361000,1013,8,47,-24,0,0,0,18860,0,62,39,0,95,448,11,49,-20,0,0,91,1,0,8,119808,-149
20382000,1014,7,48,-25,0,0,0,15226,0,88,37,0,95,419,13,48,-20,0,0,91,1,0,2,110592,-148
20402000,1015,4,49,-29,0,0,0,17578,0,129,38,0,95,432,13,49,-20,0,0,86,1,0,0,107520,-149
20422000,1016,12,48,-28,0,0,0,15362,0,104,40,0,95,409,11,48,-20,0,0,90,6,0,0,110592,-150
20442000,1017,4,48,-28,0,0,0,18442,0,47,40,0,95,418,12,49,-20,0,0,86,1,0,11,105472,-149
20462000,1018,4,48,-23,0,0,0,17239,0,92,39,0,95,414,11,48,-20,0,0,85,1,0,1,110592,-149
20482000,1019,4,47,-21,0,0,0,18758,0,95,40,0,95,428,10,48,-20,0,0,83,1,0,0,104448,-149
20502000,1020,7,47,-25,0,0,0,15318,0,84,37,0,95,407,12,48,-20,0,0,86,6,0,1,101376,-148
20522000,1021,11,48,-28,0,0,0,18715,0,92,38,0,95,412,11,48,-20,0,0,86,6,0,2,94208,-149
20542000,1022,4,48,-13,0,0,0,14618,0,66,39,0,95,431,11,50,-20,0,0,84,1,0,9,104448,-150
20562000,1023,7,48,-23,0,0,0,18922,0,48,38,0,95,424,12,47,-10,0,0,91,1,0,11,104448,-149
20583000,1024,4,48,-26,0,0,0,17773,0,89,38,0,95,425,12,49,-20,0,0,91,1,0,1,116736,-149
20603000,1025,11,49,-28,0,0,0,18423,0,138,37,0,95,427,11,49,-20,0,0,87,6,0,1,105472,-149
20623000,1026,7,48,-28,0,0,0,14821,0,141,38,0,95,438,12,49,-20,0,0,85,6,0,0,114688,-149
20643000,1027,4,49,-25,0,0,0,18810,0,94,37,0,95,421,12,49,-20,0,0,92,6,0,1,103424,-149
20663000,1028,4,49,-25,0,0,0,14735,0,47,39,0,95,426,12,49,-20,0,0,92,1,0,12,105472,-150
20683000,1029,7,48,-22,0,0,0,18084,0,47,40,0,95,421,12,49,-20,0,0,85,1,0,12,104448,-149
20703000,1030,4,47,-5,0,0,0,17614,0,69,39,0,95,426,11,47,-20,0,0,81,1,0,12,112640,-149
20723000,1031,9,49,-25,0,0,0,18582,0,69,39,0,95,442,11,49,-20,0,0,91,1,0,6,97280,-149
20743000,1032,4,49,-22,0,0,0,15587,0,69,39,0,95,421,14,49,-20,0,0,86,1,0,5,107520,-149
20763000,1033,7,49,-32,0,0,0,18499,0,84,41,0,95,439,12,49,-30,0,0,91,1,0,3,99328,-149
20784000,1034,11,47,-24,0,0,0,14934,0,106,38,0,95,409,13,48,-20,0,0,91,1,0,0,99328,-150
20804000,1035,4,49,-21,0,0,0,19074,0,65,38,0,95,427,12,49,-20,0,0,86,1,0,3,104448,-150
20824000,1036,4,49,-22,0,0,0,17573,0,65,39,0,95,443,14,50,-20,0,0,81,1,0,7,107520,-149
20844000,1037,10,48,-23,0,0,0,18621,0,97,41,0,95,425,12,48,-10,0,0,80,1,0,0,122880,-149
20864000,1038,4,48,-44,0,0,0,15606,0,131,39,0,95,431,12,48,-20,0,0,91,1,0,0,110592,-149
20884000,1039,0,49,-26,0,0,0,18492,0,125,41,0,95,433,12,49,-20,0,0,90,1,0,0,100352,-149
20904000,1040,9,48,-25,0,0,0,14923,0,76,39,0,95,436,13,49,-20,0,0,86,1,0,4,110592,-150
20924000,1041,3,48,-25,0,0,0,18669,0,51,39,0,95,436,15,48,-20,0,0,92,1,0,10,114688,-149
20944000,1042,4,48,-25,0,0,0,17823,0,115,40,0,95,431,14,48,-20,0,0,92,1,0,0,114688,-150
20964000,1043,4,48,-24,0,0,0,18224,0,115,37,0,95,425,15,50,-20,0,0,91,6,0,0,104448,-149
20985000,1044,9,48,-29,0,0,0,15760,0,115,39,0,95,424,13,49,-30,0,0,86,6,0,0,118784,-149
21005000,1045,3,48,-28,0,0,0,19061,0,64,37,0,95,413,12,48,-20,0,0,87,6,0,1,101376,-150
21025000,1046,9,49,-24,0,0,0,14487,0,91,37,0,95,436,13,48,-20,0,0,91,1,0,2,106496,-150
21045000,1047,4,52,-29,0,0,0,15502,0,81,40,0,95,432,13,49,-20,0,0,85,1,0,2,110592,-147
21065000,1048,0,51,-36,0,0,0,18827,0,60,38,0,95,428,13,52,-30,0,0,85,1,0,8,106496,-149
21085000,1049,4,49,-30,0,0,0,17724,0,61,37,0,95,445,13,50,-20,0,0,85,1,0,7,110592,-148
21105000,1050,9,49,-22,0,0,0,15580,0,44,40,0,95,413,12,48,-20,0,0,88,1,0,13,109568,-148
21125000,1051,7,47,-28,0,0,0,18920,0,102,39,0,95,408,12,49,-20,0,0,90,1,0,0,105472,-149
21145000,1052,0,48,-23,0,0,0,14321,0,138,39,0,95,431,11,48,-20,0,0,84,1,0,0,116736,-149
21165000,1053,7,48,-26,0,0,0,18792,0,118,38,0,95,428,8,48,-20,0,0,90,6,0,0,98304,-149
21186000,1054,10,48,-32,0,0,0,17175,0,72,41,0,95,426,10,47,-30,0,0,91,6,0,12,109568,-149
21206000,1055,13,49,-24,0,0,0,17742,0,40,40,0,95,428,12,49,-20,0,0,91,1,0,13,116736,-149
21226000,1056,4,47,-43,0,0,0,15838,0,40,34,0,95,446,13,49,-20,0,0,91,6,0,13,102400,-148
21246000,1057,8,48,-26,0,0,0,18376,0,71,36,0,95,428,13,48,-10,0,0,86,6,0,5,116736,-149
21266000,1058,10,48,-29,0,0,0,14469,0,73,39,0,95,445,11,48,-20,0,0,91,1,0,5,118784,-149
21286000,1059,4,47,-26,0,0,0,18015,0,49,39,0,95,414,14,49,-10,0,0,92,1,0,11,107520,-149
21306000,1060,4,47,-26,0,0,0,17338,0,93,38,0,95,433,13,49,-20,0,0,86,1,0,0,109568,-149
21326000,1061,3,48,-27,0,0,0,18334,0,111,40,0,95,425,14,49,-20,0,0,82,1,0,0,117760,-149
21346000,1062,10,48,-27,0,0,0,15951,0,111,38,0,95,424,14,49,-30,0,0,92,4,0,0,109568,-148
21366000,1063,13,47,-26,0,0,0,18431,0,86,37,0,95,438,12,48,-10,0,0,92,4,0,6,118784,-148
21387000,1064,4,46,-26,0,0,0,14421,0,60,36,0,95,441,11,47,-20,0,0,90,1,0,8,116736,-149
21407000,1065,4,48,-27,0,0,0,18340,0,79,39,0,95,421,11,48,-20,0,0,90,1,0,3,107520,-148
21427000,1066,11,46,-26,0,0,0,17333,0,99,38,0,95,414,10,47,-30,0,0,86,1,0,0,114688,-148
21447000,1067,4,47,-27,0,0,0,18797,0,115,41,0,95,417,10,47,-30,0,0,80,6,0,0,105472,-148
21467000,1068,11,46,-28,0,0,0,16154,0,115,39,0,95,422,10,47,-20,0,0,90,4,0,0,112640,-148
21487000,1069,14,48,-31,0,0,0,18259,0,110,39,0,95,414,12,47,-30,0,0,85,4,0,0,114688,-148
21507000,1070,6,47,-28,0,0,0,14609,0,92,39,0,95,424,9,48,-20,0,0,89,1,0,0,110592,-149
21527000,1071,4,48,-26,0,0,0,18531,0,92,38,0,95,432,10,48,-20,0,0,82,1,0,1,101376,-148
21547000,1072,7,46,-22,0,0,0,16889,0,92,40,0,95,431,12,48,-20,0,0,81,1,0,1,105472,-149
21567000,1073,4,48,-30,0,0,0,18340,0,103,36,0,95,421,12,48,-20,0,0,91,1,0,0,107520,-148
21588000,1074,4,48,-22,0,0,0,16348,0,118,37,0,95,439,12,48,-20,0,0,86,1,0,0,113664,-148
21608000,1075,4,48,-28,0,0,0,18833,0,110,36,0,95,406,12,48,-20,0,0,91,1,0,0,104448,-148
21628000,1076,4,47,-22,0,0,0,14638,0,53,39,0,95,414,11,47,-20,0,0,82,1,0,10,119808,-149
21648000,1077,4,47,-29,0,0,0,18265,0,88,39,0,95,418,13,50,-30,0,0,82,6,0,1,115712,-148
21668000,1078,4,68,17,0,0,0,11757,0,100,43,0,95,472,13,50,20,19,192,78,6,0,0,123904,163
21688000,1079,4,49,-1,0,0,0,20049,0,64,44,0,95,413,13,66,20,0,0,89,6,0,11,98304,204
21708000,1080,3,47,-1,0,0,0,17824,0,54,39,0,95,400,12,46,10,0,0,89,1,0,10,128000,202
21728000,1081,3,44,-2,0,0,0,20403,0,73,39,0,95,419,11,46,0,0,0,81,1,0,4,114688,199
21748000,1082,8,52,-7,0,0,0,15013,0,73,38,0,95,427,12,44,10,0,0,85,6,0,4,118784,202
21768000,1083,4,49,-17,0,0,0,20322,0,64,39,0,95,435,14,55,0,0,0,81,6,0,8,111616,203
21789000,1084,4,49,-10,0,0,0,17891,0,61,40,0,95,418,13,48,0,0,0,91,6,0,7,106496,207
21809000,1085,4,45,-5,0,0,0,20429,0,70,41,0,95,410,12,49,0,0,0,85,1,0,4,102400,204
21829000,1086,9,43,-6,0,0,0,17995,0,70,38,0,95,388,12,44,10,0,0,87,3,0,4,97280,200
21849000,1087,4,46,-5,0,0,0,20367,0,95,40,0,95,419,13,44,0,0,0,80,3,0,0,89088,199
21869000,1088,4,44,-5,0,0,0,15000,0,103,37,0,95,400,15,46,0,0,0,83,6,0,0,92160,198
21889000,1089,0,45,-12,0,0,0,20495,0,97,39,0,95,401,13,45,-10,0,0,82,6,0,3,90112,197
21909000,1090,9,49,-16,0,0,0,17929,0,76,39,0,95,419,13,48,0,0,0,91,6,0,4,80896,199
21929000,1091,7,47,-17,0,0,0,20529,0,70,38,0,95,434,12,49,-20,0,0,83,1,0,5,73728,198
21949000,1092,7,47,-20,0,0,0,18120,0,74,37,0,95,419,11,47,-20,0,0,88,1,0,4,84992,200
21969000,1093,3,48,-22,0,0,0,20520,0,52,38,0,95,416,11,49,-20,0,0,92,1,0,10,70656,198
21990000,1094,3,49,-20,0,0,0,15147,0,79,41,0,95,447,11,47,0,0,0,80,1,0,3,68608,200
22010000,1095,10,48,-25,0,0,0,20579,0,89,38,0,95,414,11,48,-10,0,0,87,6,0,2,66560,198
22030000,1096,7,48,-12,0,0,0,17781,0,62,39,0,95,421,11,48,-20,0,0,80,6,0,7,69632,199
22050000,1097,4,57,-21,0,0,0,16048,0,84,42,0,95,458,13,48,-10,0,0,82,1,0,3,71680,177
22070000,1098,4,50,-22,0,0,0,18045,0,84,40,0,95,448,13,61,-20,0,0,91,6,0,3,55296,182
22090000,1099,4,49,-23,0,0,0,20446,0,108,40,0,95,421,12,50,-10,0,0,91,6,0,0,40960,183
22110000,1100,3,47,-17,0,0,0,15258,0,78,40,0,95,409,12,49,0,0,0,86,1,0,4,46080,180
22130000,1101,7,46,-14,0,0,0,20598,0,41,40,0,95,409,13,46,0,0,0,83,6,0,14,39936,180
22150000,1102,8,47,-16,0,0,0,17778,0,107,41,0,95,444,14,46,-10,0,0,89,6,0,0,65536,178
22170000,1103,3,47,-23,0,0,0,20622,0,132,38,0,95,422,13,47,-10,0,0,88,6,0,0,53248,178
22191000,1104,0,0,0,0,0,0,18263,0,132,0,0,95,424,14,50,-10,0,0,91,6,0,0,50176,181
22211000,1105,3,47,-18,0,0,0,20465,0,141,38,0,95,421,15,48,-10,0,0,83,6,0,0,48128,180
22231000,1106,4,47,-17,0,0,0,15311,0,134,39,0,95,431,14,48,-10,0,0,85,6,0,0,53248,181
22251000,1107,10,46,-21,0,0,0,20638,0,83,38,0,95,412,13,47,0,0,0,91,1,0,4,54272,180
22271000,1108,11,45,-18,0,0,0,17677,0,54,37,0,95,409,12,46,-10,0,0,87,1,0,9,58368,178
22291000,1109,0,0,0,0,0,0,20471,0,54,0,0,95,422,14,46,-10,0,0,90,3,0,9,60416,179
22311000,1110,3,45,-17,0,0,0,18434,0,54,37,0,95,407,10,46,0,0,0,81,6,0,9,71680,179
22331000,1111,4,46,-21,0,0,0,20437,0,111,39,0,95,406,10,45,-10,0,0,91,6,0,0,65536,178
22351000,1112,3,46,-23,0,0,0,15375,0,141,39,0,95,412,14,47,-10,0,0,86,6,0,0,54272,181
22371000,1113,3,51,-5,0,0,0,20506,0,124,37,0,95,444,14,50,-10,0,0,80,6,0,0,64512,181
22392000,1114,8,49,-25,0,0,0,17510,0,93,39,0,95,418,15,50,-10,0,0,87,6,0,0,72704,178
22412000,1115,7,48,-24,0,0,0,20685,0,55,37,0,95,425,13,49,-10,0,0,92,6,0,1,59392,180
22432000,1116,8,48,-25,0,0,0,18551,0,35,38,0,95,423,12,49,-20,0,0,88,1,0,7,61440,181
22452000,1117,3,50,-25,0,0,0,20597,0,102,39,0,95,429,12,48,-10,0,0,88,1,0,0,67584,182
22472000,1118,4,48,-23,0,0,0,15499,0,120,39,0,95,425,11,50,-20,0,0,88,6,0,0,58368,182
22492000,1119,4,50,-25,0,0,0,20560,0,75,37,0,95,446,11,50,-20,0,0,87,1,0,4,61440,183
22512000,1120,3,52,-28,0,0,0,17160,0,93,38,0,95,433,13,52,-10,0,0,89,1,0,1,53248,186
22532000,1121,3,48,-16,0,0,0,20658,0,97,41,0,95,421,12,49,0,0,0,91,6,0,1,43008,186
22552000,1122,4,47,-16,0,0,0,18675,0,106,40,0,95,418,12,48,-10,0,0,84,1,0,0,37888,186
22572000,1123,4,47,-26,0,0,0,20513,0,106,38,0,95,403,13,47,-20,0,0,84,1,0,0,41984,186
22593000,1124,8,49,-21,0,0,0,15542,0,114,36,0,95,423,13,48,-20,0,0,86,6,0,0,58368,187
22613000,1125,11,48,-23,0,0,0,20554,0,42,36,0,95,416,13,49,0,0,0,91,1,0,7,49152,185
22633000,1126,3,50,-21,0,0,0,17277,0,42,39,0,95,433,14,48,-10,0,0,80,1,0,13,45056,186
22653000,1127,4,49,-23,0,0,0,20648,0,94,42,0,95,425,13,50,-10,0,0,90,6,0,1,45056,187
22673000,1128,4,49,-22,0,0,0,18782,0,57,36,0,95,438,12,48,-10,0,0,82,1,0,1,48128,186
22693000,1129,4,49,-29,0,0,0,20429,0,81,39,0,95,436,11,50,-20,0,0,87,1,0,6,35840,187
22713000,1130,9,49,-21,0,0,0,15650,0,65,41,0,95,412,11,50,-20,0,0,86,6,0,3,44032,186
22733000,1131,13,51,-23,0,0,0,20528,0,34,40,0,95,457,12,50,-10,0,0,91,1,0,17,50176,186
22753000,1132,7,50,-25,0,0,0,17188,0,53,39,0,95,424,15,51,-10,0,0,91,1,0,5,65536,185
22773000,1133,10,51,-27,0,0,0,20574,0,71,40,0,95,438,13,52,-20,0,0,90,1,0,5,43008,185
22794000,1134,3,50,-28,0,0,0,19039,0,57,37,0,95,423,12,50,-20,0,0,92,1,0,19,51200,186
22814000,1135,11,49,-24,0,0,0,20554,0,27,39,0,95,420,11,49,-20,0,0,92,1,0,21,53248,186
22834000,1136,3,50,-25,0,0,0,15722,0,28,38,0,95,434,12,49,-20,0,0,88,1,0,18,54272,186
22854000,1137,3,50,-27,0,0,0,20615,0,29,37,0,95,425,11,50,-20,0,0,89,1,0,18,57344,186
22874000,1138,8,50,-32,0,0,0,17173,0,47,39,0,95,423,12,50,-30,0,0,91,1,0,12,52224,185
22894000,1139,14,51,-29,0,0,0,20644,0,48,38,0,95,436,11,51,-20,0,0,91,1,0,12,61440,187
22914000,1140,3,52,-26,0,0,0,19116,0,24,39,0,95,438,13,51,-20,0,0,91,1,0,20,52224,187
22934000,1141,3,49,-20,0,0,0,20482,0,28,41,0,95,436,12,50,-20,0,0,90,1,0,19,63488,186
22954000,1142,3,51,-25,0,0,0,15727,0,29,39,0,95,453,11,50,-30,0,0,91,1,0,21,55296,187
22974000,1143,3,60,-27,0,0,0,15617,0,83,42,0,95,467,14,52,-10,0,0,80,1,0,3,86016,198
22995000,1144,3,66,-44,0,0,0,16836,0,81,40,0,95,496,14,67,-30,0,0,91,1,0,4,112640,207
23015000,1145,4,50,-27,0,0,0,20587,0,51,38,0,95,422,13,52,-20,0,0,88,1,0,10,98304,205
23035000,1146,7,49,-32,0,0,0,19344,0,69,39,0,95,413,13,48,-30,0,0,91,1,0,6,99328,205
23055000,1147,10,49,-33,0,0,0,20615,0,55,39,0,95,420,12,49,-20,0,0,92,1,0,11,101376,206
23075000,1148,0,50,-35,0,0,0,15866,0,46,36,0,95,432,13,51,-30,0,0,84,1,0,12,113664,206
23095000,1149,4,49,-25,0,0,0,20433,0,92,39,0,95,410,12,51,-40,0,0,83,6,0,0,94208,205
23115000,1150,4,47,-34,0,0,0,16919,0,123,37,0,95,418,12,49,-30,0,0,86,6,0,0,100352,204
23135000,1151,4,48,-32,0,0,0,20609,0,112,38,0,95,420,14,46,-30,0,0,87,6,0,0,90112,205
23155000,1152,12,45,-34,0,0,0,19408,0,76,36,0,95,405,13,48,-20,0,0,81,1,0,2,102400,205
23175000,1153,11,49,-34,0,0,0,20626,0,91,37,0,95,421,14,49,-30,0,0,92,1,0,1,97280,203
23196000,1154,4,49,-33,0,0,0,15955,0,89,40,0,95,419,15,49,-30,0,0,91,1,0,4,103424,206
23216000,1155,3,45,-29,0,0,0,20573,0,81,39,0,95,443,16,49,-20,0,0,80,6,0,3,95232,205
23236000,1156,0,48,-25,0,0,0,16787,0,112,37,0,95,418,15,47,-30,0,0,90,6,0,0,99328,204
23256000,1157,11,48,-28,0,0,0,20621,0,124,39,0,95,415,16,48,-30,0,0,81,3,0,0,111616,204
23276000,1158,8,50,-34,0,0,0,19514,0,95,38,0,95,433,13,49,-20,0,0,82,1,0,0,102400,205
23296000,1159,13,49,-30,0,0,0,20511,0,82,36,0,95,427,12,50,-30,0,0,81,1,0,2,113664,205
23316000,1160,14,55,-35,0,0,0,15992,0,82,39,0,95,471,12,50,-30,0,0,84,6,0,3,107520,206
23336000,1161,8,56,-31,0,0,0,20297,0,89,38,0,95,449,13,56,-30,0,0,87,6,0,1,108544,206
23356000,1162,3,57,-35,0,0,0,16732,0,92,35,0,95,454,14,57,-30,0,0,89,6,0,3,105472,205
23376000,1163,4,55,-38,0,0,0,20447,0,86,36,0,95,440,14,54,-30,0,0,84,1,0,4,116736,205
23397000,1164,9,54,-44,0,0,0,19608,0,87,38,0,95,432,13,54,-30,0,0,92,1,0,2,113664,204
23417000,1165,10,55,-48,0,0,0,20547,0,54,38,0,95,438,17,55,-40,0,0,89,1,0,10,94208,206
23437000,1166,14,51,-36,0,0,0,16083,0,65,39,0,95,414,16,53,-30,0,0,91,1,0,8,113664,206
23457000,1167,8,51,-35,0,0,0,20511,0,77,36,0,95,435,16,51,-20,0,0,85,1,0,7,106496,206
23477000,1168,4,50,-44,0,0,0,16637,0,75,39,0,95,438,14,50,-30,0,0,91,1,0,4,108544,205
23497000,1169,4,51,-35,0,0,0,20353,0,76,39,0,95,438,15,51,-30,0,0,84,1,0,2,95232,206
23517000,1170,3,67,20,0,0,0,14289,0,104,49,0,95,465,16,64,0,185,2,87,1,0,0,105472,140
23537000,1171,4,53,23,0,0,0,19838,0,81,49,0,95,415,15,60,40,0,0,89,1,0,7,101376,12
23557000,1172,10,49,33,0,0,0,15867,0,50,49,0,95,404,15,51,40,0,0,88,6,0,12,109568,12
23577000,1173,3,49,32,0,0,0,20393,0,55,49,0,95,419,11,51,40,0,0,87,1,0,8,95232,11
23598000,1174,12,49,32,0,0,0,16482,0,74,47,0,95,410,13,50,50,0,0,91,1,0,4,100352,10
23618000,1175,3,53,36,0,0,0,20368,0,71,49,0,95,432,13,53,40,0,0,89,1,0,7,95232,10
23638000,1176,3,52,29,0,0,0,20403,0,80,50,0,95,424,12,52,40,0,0,91,1,0,4,108544,9
23658000,1177,3,55,61,0,0,0,20381,0,93,49,0,95,420,9,54,40,0,0,87,1,0,1,109568,9
23678000,1178,7,48,27,0,0,0,15990,0,103,50,0,95,408,9,49,50,0,0,91,1,0,0,93184,9
23698000,1179,0,48,26,0,0,0,20612,0,106,48,0,95,408,10,48,50,0,0,90,1,0,0,98304,8
23718000,1180,3,51,35,0,0,0,16416,0,66,49,0,95,420,10,51,50,0,0,92,1,0,6,118784,8
23738000,1181,4,49,30,0,0,0,20434,0,40,48,0,95,414,9,50,50,0,0,91,1,0,14,109568,8
23758000,1182,4,48,28,0,0,0,20158,0,99,49,0,95,408,8,49,50,0,0,88,1,0,0,98304,7
23778000,1183,3,51,23,0,0,0,20314,0,136,49,0,95,437,9,49,40,0,0,87,1,0,0,93184,8
23799000,1184,4,51,27,0,0,0,16170,0,121,49,0,95,421,8,52,40,0,0,91,1,0,0,101376,8
23819000,1185,10,49,29,0,0,0,20596,0,79,49,0,95,415,9,50,40,0,0,90,1,0,7,101376,8
23839000,1186,13,49,38,0,0,0,16325,0,98,49,0,95,409,11,49,40,0,0,86,1,0,0,109568,8
23859000,1187,7,48,29,0,0,0,20314,0,127,50,0,95,415,9,48,30,0,0,87,1,0,0,105472,9
23879000,1188,3,50,22,0,0,0,19930,0,128,48,0,95,419,12,56,40,0,0,90,1,0,0,98304,9
23899000,1189,4,47,24,0,0,0,20364,0,128,49,0,95,398,11,47,40,0,0,90,1,0,0,92160,8
23919000,1190,3,48,33,0,0,0,16248,0,136,48,0,95,406,9,47,60,0,0,91,1,0,0,105472,9
23939000,1191,4,49,29,0,0,0,20625,0,106,47,0,95,427,11,49,50,0,0,89,1,0,1,94208,9
23959000,1192,4,50,33,0,0,0,16154,0,91,48,0,95,426,12,51,40,0,0,87,1,0,2,103424,8
23979000,1193,3,49,30,0,0,0,20497,0,109,50,0,95,405,13,53,30,0,0,85,1,0,0,94208,9
24000000,1194,4,51,32,0,0,0,20043,0,81,47,0,95,420,13,51,40,0,0,91,1,0,3,91136,8
24020000,1195,4,49,33,0,0,0,20441,0,56,50,0,95,410,14,48,40,0,0,88,1,0,9,107520,9
24040000,1196,0,0,0,0,0,0,16113,0,84,0,0,95,471,15,52,50,0,0,85,1,0,0,95232,9
24060000,1197,8,48,29,0,0,0,20404,0,84,46,0,95,401,15,49,50,0,0,89,1,0,0,96256,8
24080000,1198,0,50,27,0,0,0,16099,0,133,48,0,95,410,13,50,50,0,0,90,1,0,0,99328,8
24100000,1199,3,48,32,0,0,0,20272,0,124,48,0,95,406,12,48,50,0,0,85,1,0,0,99328,8
24120000,1200,0,49,38,0,0,0,20047,0,91,47,0,95,412,12,49,50,0,0,91,1,0,4,105472,8
24140000,1201,4,49,29,0,0,0,20500,0,74,51,0,95,419,14,51,50,0,0,84,1,0,5,92160,8
24160000,1202,3,47,31,0,0,0,16389,0,62,50,0,95,405,14,50,50,0,0,91,1,0,7,94208,9
24180000,1203,3,48,29,0,0,0,20591,0,99,48,0,95,414,13,48,50,0,0,89,1,0,0,95232,8
24201000,1204,8,50,36,0,0,0,16054,0,114,49,0,95,419,13,48,50,0,0,90,1,0,0,113664,8
24221000,1205,4,50,25,0,0,0,20472,0,109,49,0,95,420,12,51,40,0,0,87,1,0,0,100352,8
24241000,1206,7,52,26,0,0,0,19668,0,95,48,0,95,417,15,52,40,0,0,90,1,0,0,90112,8
24261000,1207,7,48,30,0,0,0,20446,0,119,50,0,95,401,14,53,40,0,0,88,1,0,0,101376,8
24281000,1208,4,50,34,0,0,0,16513,0,106,48,0,95,413,13,50,50,0,0,91,1,0,0,99328,9
24301000,1209,10,50,35,0,0,0,20726,0,34,47,0,95,416,11,49,50,0,0,92,1,0,17,101376,9
24321000,1210,10,49,33,0,0,0,16059,0,39,48,0,95,420,12,49,50,0,0,89,1,0,14,96256,8
24341000,1211,6,53,64,0,0,0,18654,0,70,48,0,95,434,12,52,50,0,0,81,1,0,14,89088,55
24361000,1212,0,0,0,0,0,0,18452,0,70,0,0,95,486,15,64,30,0,0,88,1,0,3,91136,81
24381000,1213,10,54,14,0,0,0,19743,0,87,48,0,95,420,13,56,40,0,0,88,1,0,2,80896,88
24402000,1214,4,51,14,0,0,0,16380,0,71,44,0,95,404,13,52,30,0,0,89,1,0,4,67584,89
24422000,1215,12,51,19,0,0,0,20106,0,49,46,0,95,408,13,50,40,0,0,86,1,0,12,61440,89
24442000,1216,4,56,34,0,0,0,15037,0,71,48,0,95,424,13,55,20,0,0,89,1,0,6,61440,93
24462000,1217,10,53,11,0,0,0,19533,0,112,46,0,95,406,13,56,30,0,0,87,1,0,0,91136,95
24482000,1218,7,49,50,0,0,0,18850,0,106,49,0,95,397,12,52,30,0,0,84,1,0,0,119808,96
24502000,1219,10,50,18,0,0,0,19658,0,106,46,0,95,403,9,50,30,0,0,89,1,0,0,117760,99
24522000,1220,3,49,84,0,0,0,16366,0,76,48,0,95,392,8,49,40,0,0,84,1,0,4,128000,99
24542000,1221,0,0,0,0,0,0,19539,0,77,0,0,95,409,9,49,30,0,0,82,1,0,3,112640,100
24562000,1222,10,53,3,0,0,0,15457,0,114,50,0,95,412,10,53,30,0,0,86,1,0,0,116736,100
24582000,1223,0,0,0,0,0,0,19465,0,132,0,0,95,465,11,55,30,0,0,81,1,0,0,109568,102
24603000,1224,3,69,-35,0,0,0,14182,0,110,39,0,95,477,12,66,-20,0,0,76,1,0,0,107520,209
24623000,1225,4,50,-44,0,0,0,19989,0,73,38,0,95,405,11,59,-40,0,0,87,1,0,6,72704,216
24643000,1226,14,48,-27,0,0,0,16920,0,58,39,0,95,410,11,48,-20,0,0,88,1,0,9,74752,215
24663000,1227,4,46,-30,0,0,0,20672,0,72,39,0,95,392,11,46,-30,0,0,90,1,0,5,77824,214
24683000,1228,11,48,-24,0,0,0,15618,0,54,39,0,95,416,12,47,-20,0,0,91,1,0,9,82944,212
24703000,1229,0,48,-30,0,0,0,20605,0,40,38,0,95,431,11,49,-30,0,0,91,1,0,12,79872,214
24723000,1230,12,49,-35,0,0,0,18787,0,88,38,0,95,414,13,49,-30,0,0,82,6,0,2,87040,213
24743000,1231,11,49,-43,0,0,0,20313,0,108,37,0,95,435,13,50,-30,0,0,82,6,0,0,96256,213
24763000,1232,4,52,-48,0,0,0,16879,0,137,35,0,95,448,14,54,-30,0,0,88,4,0,0,92160,214
24783000,1233,10,48,-42,0,0,0,20556,0,145,38,0,95,408,13,50,-40,0,0,85,1,0,0,92160,213
24804000,1234,7,50,-39,0,0,0,15431,0,93,38,0,95,448,13,50,-30,0,0,91,1,0,1,118784,211
24824000,1235,7,48,-38,0,0,0,20652,0,52,39,0,95,415,12,49,-40,0,0,91,1,0,11,86016,213
24844000,1236,7,49,-31,0,0,0,18539,0,72,40,0,95,438,12,49,-20,0,0,83,1,0,11,93184,213
24864000,1237,4,48,-39,0,0,0,20468,0,72,38,0,85,434,13,50,-50,0,0,92,1,0,5,102400,212
24884000,1238,3,47,-43,0,0,0,17169,0,111,38,0,95,424,14,49,-40,0,0,91,4,0,0,99328,212
24904000,1239,4,53,-43,0,0,0,20225,0,129,37,0,95,456,14,51,-40,0,0,85,6,0,0,98304,212
24924000,1240,3,47,-36,0,0,0,15584,0,109,36,0,95,422,14,51,-30,0,0,83,6,0,0,102400,211
24944000,1241,7,46,-32,0,0,0,20372,0,80,37,0,95,400,12,46,-30,0,0,87,1,0,3,92160,212
24964000,1242,11,47,-39,0,0,0,18719,0,92,38,0,95,416,12,48,-30,0,0,85,6,0,3,113664,210
24984000,1243,11,50,-44,0,0,0,20266,0,104,36,0,95,424,12,51,-40,0,0,90,6,0,0,99328,211
25005000,1244,0,47,-38,0,0,0,17346,0,104,37,0,95,421,12,48,-40,0,0,83,1,0,0,99328,212
25025000,1245,4,45,-36,0,0,0,20304,0,104,37,0,95,412,15,49,-30,0,0,92,6,0,2,105472,211
25045000,1246,7,48,-38,0,0,0,15531,0,142,35,0,95,422,12,48,-30,0,0,86,6,0,0,106496,209
25065000,1247,4,47,-39,0,0,0,20432,0,122,36,0,95,439,11,48,-30,0,0,86,1,0,0,106496,211
25085000,1248,9,49,-36,0,0,0,18577,0,122,39,0,95,413,10,47,-30,0,0,82,6,0,0,116736,210
25105000,1249,4,47,-38,0,0,0,20550,0,135,37,0,95,400,10,48,-30,0,0,87,6,0,0,101376,210
25125000,1250,7,48,-40,0,0,0,17374,0,82,36,0,95,418,10,49,-30,0,0,90,1,0,3,98304,211
25145000,1251,3,47,-40,0,0,0,20484,0,97,37,0,95,414,12,48,-40,0,0,87,1,0,3,106496,209
25165000,1252,3,48,-37,0,0,0,15483,0,97,39,0,95,415,13,48,-40,0,0,80,1,0,2,97280,208
25185000,1253,10,50,-45,0,0,0,20359,0,103,35,0,95,421,13,48,-40,0,0,88,6,0,0,104448,209
25206000,1254,10,49,-38,0,0,0,18534,0,85,39,0,95,413,12,51,-30,0,0,91,1,0,3,119808,208
25226000,1255,3,48,-39,0,0,0,20476,0,64,36,0,95,407,13,48,-30,0,0,86,1,0,7,126976,209
25246000,1256,7,48,-39,0,0,0,17435,0,45,35,0,95,417,13,48,-40,0,0,82,1,0,6,102400,209
25266000,1257,3,48,-37,0,0,0,20495,0,106,36,0,95,414,15,48,-30,0,0,82,6,0,0,108544,208
25286000,1258,7,49,-42,0,0,0,15428,0,123,39,0,95,419,13,49,-30,0,0,86,6,0,0,111616,207
25306000,1259,3,47,-35,0,0,0,20605,0,80,38,0,95,413,13,49,-30,0,0,82,1,0,2,107520,208
25326000,1260,3,55,-40,0,0,0,13734,0,93,39,0,95,444,15,49,-30,130,2,72,6,0,0,111616,178
25346000,1261,3,54,20,0,0,0,20062,0,104,48,0,95,450,16,66,50,0,0,91,6,0,3,81920,11
25366000,1262,4,48,75,0,0,0,17075,0,98,49,0,95,411,14,47,50,0,0,87,6,0,1,93184,14
25386000,1263,0,47,38,0,0,0,20096,0,98,49,0,95,400,15,46,50,0,0,82,6,0,1,81920,13
25407000,1264,4,48,29,0,0,0,15252,0,139,49,0,95,408,14,48,50,0,0,89,6,0,0,92160,12
25427000,1265,0,0,0,0,0,0,20133,0,160,0,0,95,456,15,48,50,0,0,87,1,0,0,93184,12
25447000,1266,0,0,0,0,0,0,17960,0,160,0,0,95,430,12,49,50,0,0,82,1,0,0,83968,12
25467000,1267,4,49,34,0,0,0,19935,0,174,50,0,95,429,14,49,50,0,0,87,1,0,0,97280,12
25487000,1268,3,49,25,0,0,0,17404,0,166,49,0,95,404,12,49,50,0,0,92,1,0,0,83968,13
25507000,1269,7,49,32,0,0,0,20562,0,103,49,0,95,410,12,50,50,0,0,91,1,0,0,99328,12
25527000,1270,4,50,30,0,0,0,15146,0,46,50,0,95,412,13,50,50,0,0,90,1,0,12,97280,11
25547000,1271,3,47,27,0,0,0,20276,0,113,49,0,95,405,14,49,50,0,0,90,1,0,0,93184,12
25567000,1272,0,48,32,0,0,0,17962,0,113,48,0,95,400,14,48,50,0,0,87,1,0,0,92160,12
25587000,1273,0,0,0,0,0,0,20170,0,147,0,0,95,392,13,48,50,0,0,86,1,0,0,86016,12
25608000,1274,7,50,31,0,0,0,17412,0,147,49,0,95,408,16,48,50,0,0,89,1,0,0,90112,12
25628000,1275,7,50,30,0,0,0,20355,0,141,48,0,95,407,17,53,50,0,0,91,1,0,0,83968,11
25648000,1276,4,48,34,0,0,0,15132,0,113,47,0,95,394,14,50,50,0,0,89,1,0,0,91136,11
25668000,1277,0,0,0,0,0,0,19965,0,113,0,0,95,424,15,46,50,0,0,87,1,0,0,84992,11
25688000,1278,4,48,33,0,0,0,18040,0,102,49,0,95,397,14,49,50,0,0,89,1,0,0,89088,11
25708000,1279,0,0,0,0,0,0,20252,0,139,0,0,95,398,15,48,40,0,0,89,1,0,0,82944,11
25728000,1280,4,49,32,0,0,0,17547,0,142,49,0,95,407,11,49,50,0,0,91,1,0,0,91136,11
25748000,1281,10,49,35,0,0,0,20377,0,142,48,0,95,410,10,48,50,0,0,88,1,0,0,86016,11
25768000,1282,10,49,35,0,0,0,15067,0,134,50,0,95,395,10,49,50,0,0,85,1,0,0,87040,10
25788000,1283,0,0,0,0,0,0,20239,0,131,0,0,95,406,8,55,40,0,0,86,1,0,0,98304,10
25809000,1284,10,48,34,0,0,0,18079,0,96,48,0,95,410,11,48,50,0,0,92,1,0,1,84992,11
25829000,1285,0,0,0,0,0,0,20004,0,114,0,0,95,465,11,48,50,0,0,87,1,0,1,99328,11
25849000,1286,4,48,27,0,0,0,17638,0,114,48,0,95,404,11,49,40,0,0,86,1,0,0,84992,11
25869000,1287,4,47,35,0,0,0,20338,0,126,49,0,95,401,11,48,50,0,0,90,1,0,0,97280,11
25889000,1288,4,50,35,0,0,0,15062,0,123,49,0,95,409,12,49,50,0,0,92,1,0,0,91136,9
25909000,1289,3,50,32,0,0,0,20640,0,101,48,0,95,417,11,51,50,0,0,92,1,0,1,81920,11
25929000,1290,0,0,0,0,0,0,17681,0,43,0,0,95,417,11,49,50,0,0,88,1,0,5,89088,10
25949000,1291,4,49,31,0,0,0,20211,0,87,48,0,95,405,9,50,50,0,0,89,1,0,0,81920,10
25969000,1292,12,49,34,0,0,0,17718,0,130,49,0,95,401,11,49,50,0,0,89,1,0,0,87040,11
25989000,1293,4,47,32,0,0,0,20238,0,133,49,0,95,400,10,49,50,0,0,90,1,0,0,92160,10
26010000,1294,4,48,31,0,0,0,14903,0,133,48,0,95,406,11,48,50,0,0,89,1,0,0,102400,11
26030000,1295,7,47,31,0,0,0,20370,0,119,47,0,95,401,13,48,50,0,0,89,1,0,2,89088,10
26050000,1296,3,49,27,0,0,0,17682,0,103,50,0,95,412,14,49,40,0,0,83,1,0,2,86016,10
26070000,1297,9,49,33,0,0,0,20513,0,127,47,0,95,413,12,49,50,0,0,90,1,0,0,90112,10
26090000,1298,4,50,25,0,0,0,17816,0,141,47,0,95,410,10,50,50,0,0,85,1,0,0,82944,10
26110000,1299,10,47,37,0,0,0,20490,0,126,48,0,95,398,9,48,50,0,0,90,1,0,0,86016,10
26130000,1300,0,0,0,0,0,0,14828,0,126,0,0,95,473,12,48,50,0,0,83,1,0,0,88064,11
26150000,1301,10,48,28,0,0,0,20141,0,121,50,0,95,398,11,50,50,0,0,89,1,0,0,94208,10
26170000,1302,7,48,38,0,0,0,17720,0,103,46,0,95,402,11,49,50,0,0,90,1,0,0,87040,10
26190000,1303,3,47,37,0,0,0,20470,0,76,51,0,95,408,8,48,60,0,0,91,1,0,4,97280,10
26211000,1304,12,50,29,0,0,0,17846,0,120,48,0,95,411,11,50,40,0,0,88,1,0,0,95232,11
26231000,1305,0,0,0,0,0,0,20376,0,142,0,0,95,451,14,49,40,0,0,89,1,0,0,90112,10
26251000,1306,10,47,39,0,0,0,15077,0,110,49,0,95,399,13,48,50,0,0,91,1,0,0,103424,11
26271000,1307,9,50,39,0,0,0,20603,0,77,49,0,95,417,13,50,60,0,0,92,1,0,4,98304,10
26291000,1308,3,47,31,0,0,0,17557,0,45,49,0,95,405,14,48,50,0,0,90,1,0,12,82944,10
26311000,1309,3,49,27,0,0,0,20388,0,81,47,0,95,408,14,47,50,0,0,86,1,0,3,89088,10
26331000,1310,9,49,33,0,0,0,17866,0,81,49,0,95,401,10,52,40,0,0,90,1,0,3,82944,10
26351000,1311,3,48,41,0,0,0,20270,0,129,49,0,95,409,12,50,50,0,0,88,1,0,0,101376,10
26371000,1312,10,49,35,0,0,0,15197,0,155,47,0,95,414,11,49,50,0,0,90,1,0,0,91136,10
26391000,1313,10,49,28,0,0,0,20385,0,132,48,0,95,407,11,50,40,0,0,88,1,0,0,93184,10
26412000,1314,3,50,30,0,0,0,17408,0,83,49,0,95,403,12,49,50,0,0,90,1,0,3,81920,9
26432000,1315,4,48,39,0,0,0,20183,0,132,49,0,95,398,10,47,40,0,0,86,1,0,0,105472,9
26452000,1316,8,49,28,0,0,0,18292,0,126,48,0,95,408,12,50,50,0,0,90,1,0,0,89088,10
26472000,1317,7,48,37,0,0,0,20201,0,126,47,0,95,447,14,48,50,0,0,88,1,0,0,100352,9
26492000,1318,10,50,37,0,0,0,15159,0,83,50,0,95,400,12,50,50,0,0,86,1,0,3,93184,10
26512000,1319,4,47,32,0,0,0,20561,0,84,48,0,95,397,12,48,50,0,0,90,1,0,3,97280,9
26532000,1320,7,50,30,0,0,0,17387,0,70,47,0,95,410,13,49,50,0,0,90,1,0,6,80896,8
26552000,1321,7,50,48,0,0,0,20265,0,69,48,0,95,417,12,49,50,0,0,88,1,0,2,96256,9
26572000,1322,11,49,30,0,0,0,18138,0,110,47,0,95,407,13,49,40,0,0,88,6,0,0,94208,9
26592000,1323,11,49,25,0,0,0,20265,0,124,49,0,95,425,13,49,40,0,0,89,1,0,0,91136,9
26613000,1324,4,49,31,0,0,0,13690,0,128,48,0,95,407,13,56,50,0,0,75,1,0,0,100352,55
26633000,1325,4,75,-44,0,0,0,13650,0,111,40,0,95,499,13,75,-20,0,0,83,6,0,3,157696,211
26653000,1326,13,47,-33,0,0,0,17180,0,62,37,0,95,409,13,51,-30,0,0,87,1,0,9,120832,209
26673000,1327,7,47,-27,0,0,0,20297,0,72,36,0,95,410,13,46,-20,0,0,80,1,0,1,125952,207
26693000,1328,16,47,-29,0,0,0,18882,0,83,39,0,95,408,13,47,-20,0,0,90,1,0,3,124928,206
26713000,1329,0,49,-38,0,0,0,20527,0,81,36,0,95,419,13,48,-30,0,0,83,1,0,7,120832,206
26733000,1330,6,48,-43,0,0,0,15614,0,52,36,0,95,431,12,48,-40,0,0,91,1,0,9,126976,206
26753000,1331,11,47,-32,0,0,0,20464,0,70,37,0,95,408,13,49,-30,0,0,83,1,0,5,121856,205
26773000,1332,4,51,-41,0,0,0,17071,0,73,34,0,95,426,14,49,-40,0,0,89,6,0,3,135168,205
26793000,1333,4,47,-36,0,0,0,20675,0,73,39,0,95,404,13,48,-40,0,0,87,6,0,3,135168,204
26814000,1334,9,48,-37,0,0,0,18981,0,84,38,0,95,418,12,49,-30,0,0,87,1,0,3,133120,203
26834000,1335,4,47,-36,0,0,0,20280,0,91,39,0,95,414,12,47,-30,0,0,82,6,0,3,132096,203
26854000,1336,11,48,-35,0,0,0,15705,0,86,36,0,95,422,14,45,-40,0,0,84,6,0,2,141312,204
26874000,1337,7,50,-44,0,0,0,20404,0,84,37,0,95,408,12,49,-30,0,0,88,6,0,3,151552,203
26894000,1338,11,48,-39,0,0,0,17117,0,71,37,0,95,416,14,50,-40,0,0,90,6,0,5,119808,202
26914000,1339,3,47,-40,0,0,0,20508,0,55,37,0,95,404,12,49,-40,0,0,91,6,0,9,131072,202
26934000,1340,7,51,-39,0,0,0,18011,0,56,37,0,95,430,14,47,-30,0,0,90,1,0,9,135168,202
26954000,1341,3,64,-54,0,0,0,18769,0,60,38,0,95,474,15,63,-30,0,0,86,1,0,9,139264,150
26974000,1342,4,48,-40,0,0,0,15760,0,65,36,0,95,423,13,54,-30,0,0,87,1,0,8,129024,153
26994000,1343,4,50,-39,0,0,0,20673,0,67,38,0,95,416,13,50,-30,0,0,90,1,0,5,137216,154
27015000,1344,3,50,-33,0,0,0,17004,0,89,38,0,95,424,13,50,-40,0,0,81,1,0,5,123904,152
27035000,1345,4,49,-46,0,0,0,20699,0,89,38,0,95,420,14,49,-30,0,0,87,1,0,0,132096,152
27055000,1346,4,49,-51,0,0,0,19232,0,111,39,0,95,404,15,50,-40,0,0,84,1,0,0,112640,152
27075000,1347,7,50,-38,0,0,0,20697,0,118,35,0,95,427,13,49,-20,0,0,85,1,0,0,119808,152
27095000,1348,4,47,-46,0,0,0,15906,0,125,36,0,95,416,12,48,-40,0,0,86,1,0,0,117760,152
27115000,1349,10,53,-44,0,0,0,20603,0,123,36,0,95,438,13,54,-30,0,0,91,1,0,0,110592,154
27135000,1350,7,49,-48,0,0,0,16997,0,123,38,0,95,418,12,50,-40,0,0,92,1,0,0,118784,151
27155000,1351,4,51,-50,0,0,0,20824,0,80,37,0,95,414,11,48,-40,0,0,91,1,0,0,111616,153
27175000,1352,3,55,-44,0,0,0,19394,0,46,37,0,95,427,12,52,-30,0,0,91,1,0,13,99328,152
27195000,1353,3,53,-48,0,0,0,20717,0,36,38,0,95,421,12,55,-30,0,0,88,1,0,9,111616,152
27216000,1354,8,51,-43,0,0,0,15924,0,113,36,0,95,425,13,53,-30,0,0,91,1,0,9,102400,152
27236000,1355,4,47,-51,0,0,0,20775,0,113,37,0,95,395,12,52,-40,0,0,91,1,0,0,110592,151
27256000,1356,7,51,-48,0,0,0,16813,0,141,37,0,95,413,12,51,-40,0,0,83,1,0,0,118784,150
27276000,1357,10,61,-11,0,0,0,13886,0,136,38,0,95,467,13,55,-20,40,14,80,1,0,0,124928,100
27296000,1358,4,63,-75,0,0,0,17977,0,106,39,0,95,461,11,66,-60,0,0,90,6,0,0,101376,-164
27316000,1359,4,50,-60,0,0,0,20550,0,41,41,0,95,414,11,50,-60,0,0,91,1,0,16,103424,-169
27336000,1360,10,54,-65,0,0,0,15698,0,100,37,0,95,414,15,56,-50,0,0,92,1,0,0,93184,-169
27356000,1361,4,51,-65,0,0,0,20347,0,128,35,0,95,430,12,53,-60,0,0,92,1,0,0,103424,-171
27376000,1362,3,52,-66,0,0,0,16863,0,138,40,0,95,418,13,52,-50,0,0,91,1,0,0,115712,-172
27396000,1363,4,50,-62,0,0,0,20572,0,139,40,0,95,407,14,53,-60,0,0,92,1,0,0,100352,-173
27417000,1364,10,51,-64,0,0,0,19347,0,113,39,0,95,404,13,51,-50,0,0,92,1,0,0,88064,-173
27437000,1365,3,50,-58,0,0,0,20705,0,75,39,0,95,417,12,52,-60,0,0,92,1,0,4,98304,-174
27457000,1366,4,53,-64,0,0,0,15849,0,92,39,0,95,430,13,51,-50,0,0,92,1,0,1,88064,-173
27477000,1367,9,54,-71,0,0,0,20557,0,89,39,0,95,426,13,54,-60,0,0,92,1,0,2,84992,-174
27497000,1368,4,51,-68,0,0,0,16803,0,98,35,0,95,417,14,57,-60,0,0,86,1,0,0,90112,-175
27517000,1369,10,56,-70,0,0,0,20556,0,115,37,0,95,434,17,56,-60,0,0,92,1,0,0,81920,-175
27537000,1370,4,55,-71,0,0,0,19506,0,105,38,0,95,429,17,57,-60,0,0,92,1,0,0,83968,-175
27557000,1371,4,57,-65,0,0,0,20582,0,106,39,0,95,427,18,58,-60,0,0,92,1,0,0,103424,-176
27577000,1372,4,53,-68,0,0,0,15983,0,101,36,0,95,420,15,56,-60,0,0,91,1,0,5,83968,-175
27597000,1373,4,50,-63,0,0,0,20704,0,110,36,0,95,419,12,51,-60,0,0,91,1,0,0,86016,-176
27618000,1374,4,49,-62,0,0,0,16818,0,97,38,0,95,397,12,51,-60,0,0,91,1,0,0,99328,-177
27638000,1375,10,54,-65,0,0,0,20778,0,116,39,0,95,428,13,53,-60,0,0,92,1,0,0,105472,-177
27658000,1376,4,52,-68,0,0,0,20728,0,106,35,0,95,430,11,53,-60,0,0,91,1,0,0,89088,-177
27678000,1377,6,52,-64,0,0,0,20626,0,33,36,0,95,420,12,53,-60,0,0,91,1,0,19,97280,-177
27698000,1378,3,49,-56,0,0,0,16093,0,74,37,0,95,398,8,52,-60,0,0,91,1,0,2,90112,-177
27718000,1379,3,49,-62,0,0,0,20601,0,117,38,0,95,410,10,51,-50,0,0,91,1,0,0,89088,-178
27738000,1380,7,49,-62,0,0,0,16712,0,133,37,0,95,415,14,50,-60,0,0,91,1,0,0,74752,-178
27758000,1381,7,52,-62,0,0,0,20770,0,117,39,0,95,415,16,51,-50,0,0,87,1,0,0,80896,-178
27778000,1382,7,55,-64,0,0,0,20690,0,95,37,0,95,427,17,55,-50,0,0,92,1,0,1,72704,-178
27798000,1383,10,51,-63,0,0,0,20769,0,102,40,0,95,426,15,56,-60,0,0,92,1,0,0,82944,-178
27819000,1384,3,49,-69,0,0,0,16213,0,86,35,0,95,414,13,51,-60,0,0,91,1,0,2,79872,-178
27839000,1385,0,0,0,0,0,0,17369,0,82,0,0,95,422,16,53,-50,0,0,90,1,0,3,101376,-144
