# session 0
-383
694
850
632
632
613
485
437
413
337
277
239
190
148
109
52
1
-21
-49
-103
-151
-181
-214
-243
-261
-297
-350
-379
-387
-413
-457
-491
-514
-543
-575
-604
-633
-659
-675
-676
-658
-637
-642
-668
-698
-722
-738
-746
-755
-768
-789
-808
-810
-801
-794
-790
-786
-768
-740
-743
-752
-688
-579
-494
-432
-489
-744
-962
-925
-798
-773
-773
-719
-647
-553
-404
-208
19
263
474
606
655
639
574
491
416
345
284
244
208
166
138
162
363
956
2041
3565
5421
7377
9038
10089
10416
9987
8903
7483
6083
4884
3916
3155
2559
2080
1686
1362
1104
898
719
550
401
275
161
62
-13
-75
-142
-209
-257
-290
-329
-373
-400
-408
-422
-440
-446
-453
-474
-495
-505
-516
-531
-544
-561
-590
-618
-631
-650
-684
-711
-734
-769
-796
-811
-826
-830
-828
-860
-926
-986
-1032
-1076
-1140
-1248
-1382
-1506
-1625
-1753
-1882
-2011
-2122
-2191
-2230
-2261
-2292
-2347
-2409
-2404
-2341
-2286
-2289
-2423
-2671
-2833
-2811
-2756
-2770
-2796
-2811
-2847
-2898
-2945
-2972
-2980
-2996
-3021
-3028
-3026
-3025
-3012
-3005
-3019
-3019
-3010
-3021
-3031
-3031
-3055
-3084
-3077
-3073
-3106
-3130
-3121
-3133
-3192
-3225
-3196
-3174
-3183
-3179
-3178
-3201
-3188
-3156
-3164
-3151
-3093
-3080
-3108
-3112
-3139
-3199
-3184
-3078
-2958
-2828
-2689
-2602
-2523
-2348
-2123
-1935
-1768
-1678
-1666
-1615
-1993
-3405
-4651
-3377
959
7345
14992
22027
25638
25691
24426
22704
20371
18314
17173
16343
15264
13802
11853
9641
7476
5196
2593
-7
-1900
-2698
-3130
-4323
-5879
-6432
-5965
-5282
-4570
-3995
-3532
-2805
-2471
-3041
-3290
-2855
-2778
-2135
813
5065
8884
12618
16894
20974
23882
25185
24837
23214
20960
18629
16589
15004
13737
12410
10567
7798
4148
518
-2019
-3207
-3331
-2643
-1570
-662
-140
156
390
456
476
952
1438
762
-1014
-4152
-10427
-18281
-22407
-21734
-20275
-19757
-18999
-17998
-17296
-16579
-15769
-15083
-14422
-13731
-13106
-12517
-11926
-11374
-10855
-10350
-9876
-9430
-9004
-8603
-8227
-7868
-7532
-7223
-6933
-6661
-6405
-6160
-5930
-5734
-5583
-5466
-5367
-5280
-5205
-5144
-5096
-5062
-5044
-5043
-5056
-5081
-5117
-5166
-5228
-5299
-5379
-5475
-5581
-5699
-5834
-5971
-6110
-6272
-6416
-6526
-6688
-6755
-6252
-4989
-3272
-1363
725
2937
5125
7189
9028
10498
11575
12459
13334
14112
14620
14884
15044
15142
15155
15076
14920
14696
14413
14075
13686
13259
12792
12278
11751
11237
10710
10164
9612
9029
8416
7826
7244
6626
5990
5373
4776
4187
3606
3032
2458
1875
1312
769
200
-360
-820
-1202
-1573
-1897
-2144
-2292
-2175
-1647
-782
274
1411
2447
3206
3711
4106
4336
4111
3308
2114
691
-844
-2223
-3343
-4326
-5024
-5199
-4871
-3776
-1642
1205
5150
10950
16516
18518
17630
16788
16264
15428
14965
14000
10416
4780
-966
-6660
-12475
-18105
-24194
-31233
-39203
-48695
-57664
-61394
-60265
-58740
-57140
-55540
-55485
-47973
-21750
11210
27654
27051
24889
25501
24967
23910
23708
23267
22578
22208
21777
21234
20841
20451
20012
19643
19289
18917
18587
18270
17947
17658
17368
17072
16834
16573
16256
16065
15688
14296
11933
9535
7404
5375
3744
2228
-316
-3717
-6491
-8608
-11418
-14926
-17920
-20178
-22180
-23523
-23569
-22751
-21862
-21016
-20037
-18943
-17772
-16461
-14953
-13352
-11881
-10593
-9399
-8326
-7387
-6446
-5468
-4573
-3786
-3038
-2338
-1757
-1295
-874
-481
-195
6
235
495
747
1057
1456
1830
2101
2313
2480
2570
2650
2841
3184
3728
4516
5373
6030
6506
6963
7319
7417
7369
7317
7178
6886
6558
6254
5916
5554
5207
4773
4135
3427
2930
2670
2403
2000
1556
1140
724
318
-27
-305
-577
-874
-1134
-1312
-1471
-1651
-1788
-1861
-1926
-1993
-2047
-2129
-2279
-2444
-2577
-2770
-3139
-3602
-4000
-4339
-4706
-5109
-5557
-6120
-6820
-7538
-8095
-8489
-8950
-9516
-9791
-9470
-8734
-7867
-6994
-6237
-5662
-5140
-4526
-3841
-3185
-2441
-1208
731
3107
5408
7023
7383
6602
5485
4505
3547
2764
2531
2813
3766
6015
9566
14068
19548
24775
27295
26966
26049
25552
24976
24295
23704
23129
22586
21973
21341
20976
20054
17104
12494
8007
4349
1207
-1460
-3587
-5363
-6901
-8148
-9131
-10002
-10786
-11227
-11122
-10675
-10263
-9981
-9681
-9326
-9023
-8816
-8660
-8542
-8467
-8395
-8271
-8084
-7862
-7629
-7393
-7161
-6918
-6658
-6431
-6277
-6128
-5914
-5633
-5297
-4987
-4789
-4604
-4506
-4889
-5520
-5487
-4873
-4762
-5167
-5198
-5079
-5148
-3815
20
4048
5396
4139
2020
616
835
1768
1655
628
-192
-933
-1860
-2424
-2509
-2531
-2565
-2504
-2375
-2355
-2528
-2590
-3013
-5721
-11231
-17096
-21394
-24795
-28168
-31305
-33951
-36140
-37838
-38443
-36948
-33396
-28642
-22795
-16762
-12580
-9192
-3299
4717
12318
19333
25686
29916
31587
30668
27236
23512
21311
19256
17188
18588
24690
31417
34821
35127
34236
33210
32587
31795
28945
23669
18016
13522
10466
9150
8845
7590
4897
2166
203
-1342
-2703
-3776
-4532
-5022
-5319
-5369
-4917
-3891
-2367
-100
2734
4891
5641
5725
5734
5471
5071
4896
4741
4285
3558
2701
1812
948
78
-777
-1511
-2142
-2779
-3407
-3946
-4408
-4830
-5207
-5555
-5896
-6223
-6526
-6793
-7010
-7187
-7328
-7436
-7536
-7633
-7678
-7641
-7554
-7448
-7318
-7150
-6971
-6830
-6739
-6665
-6583
-6515
-6499
-6518
-6500
-6415
-6308
-6196
-6022
-5749
-5422
-5069
-4670
-4236
-3830
-3466
-3110
-2772
-2500
-2287
-2100
-1932
-1764
-1583
-1414
-1271
-1120
-927
-660
-342
-47
206
381
361
246
304
514
675
799
934
994
1027
1162
1350
1472
1553
1651
1752
1845
1939
2025
2088
2146
2229
2323
2377
2388
2417
2472
2503
2512
2535
2536
2488
2420
2371
2360
2354
2298
2249
2295
2374
2372
2300
2230
2190
2142
2043
1929
1850
1790
1734
1700
1653
1574
1519
1458
1278
1045
952
1008
1105
1220
1344
1433
1557
1795
2001
2007
1900
1785
1617
1512
1544
1370
839
395
249
100
-53
87
364
345
-1
-466
-1018
-1610
-2053
-2285
-2391
-2321
-1940
-1317
-663
-97
333
562
578
459
319
213
110
-13
-106
-161
-238
-318
-321
-276
-264
-277
-279
-290
-336
-394
-454
-547
-714
-929
-1081
-1074
-946
-817
-735
-674
-592
-459
-303
-205
-168
-150
-147
-135
-117
-94
-14
27
-84
-86
211
458
398
225
59
-222
-648
-1026
-1183
-1263
-1461
-1621
-1570
-1454
-1451
-1512
-1502
-1399
-1281
-1184
-1108
-1027
-871
-682
-580
-506
-381
-345
-425
-396
-264
-271
-359
-304
-209
-231
-260
-243
-251
-225
-167
-178
-165
-54
-12
-90
-120
-57
-8
-51
-116
-99
-65
-111
-134
-95
-117
-153
-124
-164
-251
-184
-74
-113
-140
-45
9
-15
-7
35
87
151
197
237
292
321
334
426
591
721
781
857
995
1127
1190
1225
1270
1335
1444
1578
1681
1732
1676
1482
1333
1427
1681
1872
1920
1883
1818
1754
1711
1637
1448
1215
1054
882
610
358
225
144
50
-45
-119
-167
-210
-261
-330
-432
-524
-540
-522
-553
-597
-596
-587
-600
-617
-659
-699
-689
-687
-731
-757
-760
-782
-787
-770
-762
-746
-721
-699
-663
-636
-649
-655
-612
-545
-482
-443
-462
-522
-526
-433
-361
-351
-279
-150
-90
-72
-74
-206
-408
-509
-581
-756
-916
-931
-879
-828
-741
-657
-640
-664
-701
-766
-842
-896
-927
-959
-987
-979
-929
-861
-788
-713
-620
-511
-425
-340
-204
-94
-77
-38
70
125
141
264
480
699
912
1045
1030
1057
1287
1539
1620
1606
1607
1618
1636
1663
1694
1782
1962
2133
2172
2092
1941
1727
1482
1228
953
695
495
317
132
-18
-114
-218
-353
-448
-471
-499
-567
-599
-576
-585
-637
-650
-601
-570
-612
-666
-647
-595
-596
-620
-614
-601
-590
-580
-597
-625
-621
-613
-620
-614
-589
-572
-567
-572
-580
-580
-576
-564
-529
-497
-507
-535
-541
-540
-550
-555
-549
-540
-519
-482
-468
-471
-431
-377
-350
-300
-290
-361
-174
425
915
938
771
668
688
899
1144
1205
1178
1190
1175
1110
1031
930
829
736
608
466
371
313
244
141
36
17
81
125
102
-22
-286
-530
-546
-447
-444
-468
-413
-375
-411
-434
-404
-370
-352
-325
-282
-236
-182
-113
-50
8
77
154
232
292
319
340
389
437
456
460
465
466
455
431
409
394
361
307
270
254
220
173
146
121
77
44
38
18
-14
-13
8
15
34
80
114
127
141
147
138
121
85
19
-53
-122
-199
-282
-360
-425
-479
-541
-594
-598
-566
-533
-493
-446
-404
-355
-305
-279
-242
-172
-116
-105
-96
-62
-53
-107
-182
-233
-292
-379
-457
-525
-612
-698
-754
-791
-821
-845
-859
-849
-822
-791
-757
-713
-639
-511
-367
-255
-186
-193
-268
-260
-102
68
154
221
308
373
423
508
612
697
774
857
931
987
1000
948
894
896
881
811
779
786
724
618
576
575
532
472
462
496
509
491
503
571
630
631
603
575
535
494
450
358
236
171
164
150
107
48
20
52
56
-17
-61
-57
-94
-140
-147
-156
-205
-315
-462
-565
-635
-722
-785
-833
-933
-1041
-1090
-1122
-1160
-1164
-1137
-1115
-1110
-1105
-1075
-1022
-1002
-1006
-960
-902
-879
-766
-594
-505
-149
596
847
325
134
731
1328
1399
1171
1413
2580
3591
3324
2570
2298
2065
1588
1340
1351
1254
1053
878
538
-108
-690
-781
-554
-445
-512
-597
-684
-817
-1002
-1242
-1497
-1694
-1809
-1888
-1957
-1991
-1989
-1981
-1972
-1955
-1936
-1894
-1808
-1695
-1539
-1267
-900
-551
-263
-11
190
351
486
559
641
913
1333
1687
1977
2302
2526
2480
2263
2060
1888
1693
1469
1225
960
707
496
330
207
109
13
-68
-128
-188
-222
-205
-185
-203
-235
-265
-299
-339
-370
-394
-439
-492
-497
-453
-418
-387
-294
-123
85
287
447
542
568
538
485
443
408
363
290
189
72
-77
-246
-354
-392
-460
-583
-691
-773
-860
-947
-1024
-1111
-1178
-1165
-1126
-1132
-1090
-942
-768
-572
-452
-668
-1066
-1176
-1004
-879
-828
-787
-799
-819
-781
-728
-700
-676
-637
-578
-489
-373
-274
-240
-220
-150
-90
-66
13
118
140
174
355
537
579
672
940
1173
1324
1595
1947
2237
2516
2677
2537
2374
2495
2642
2569
2441
2279
1936
1636
1654
1753
1613
1405
1391
1426
1327
1185
1020
772
562
416
198
-9
-114
-231
-365
-445
-512
-563
-629
-808
-1002
-1060
-1041
-1040
-1057
-1099
-1143
-1155
-1153
-1132
-1068
-1022
-1047
-1048
-962
-877
-853
-861
-877
-871
-842
-850
-879
-869
-859
-872
-852
-816
-804
-790
-773
-766
-731
-678
-631
-567
-511
-481
-383
-210
-46
123
184
-78
-424
-432
-231
-163
-194
-186
-174
-178
-171
-165
-151
-103
-48
-18
-7
3
22
42
47
50
57
46
30
39
63
76
65
39
36
65
55
-8
-40
-8
14
-21
-79
-106
-96
-107
-156
-192
-213
-260
-308
-329
-350
-383
-404
-422
-445
-456
-454
-464
-487
-493
-487
-485
-476
-456
-456
-474
-477
-463
-450
-431
-384
-289
-111
172
543
970
1408
1800
2182
2717
3472
4237
4703
4719
4324
3659
2915
2255
1735
1337
1014
709
397
123
-92
-279
-448
-591
-708
-786
-824
-848
-855
-809
-707
-566
-384
-158
137
510
887
1182
1373
1504
1714
2017
2013
1380
510
-23
-242
-435
-648
-798
-869
-911
-1000
-1135
-1231
-1298
-1396
-1474
-1456
-1406
-1385
-1338
-1256
-1224
-1251
-1270
-1265
-1254
-1244
-1244
-1253
-1249
-1236
-1236
-1239
-1204
-1138
-1103
-1104
-1071
-986
-915
-870
-795
-703
-653
-626
-569
-509
-473
-380
-182
28
156
194
138
-10
-177
-292
-357
-394
-403
-368
-263
-101
56
178
289
387
447
473
470
446
468
582
695
699
638
612
616
604
582
563
528
471
422
406
418
437
458
472
465
456
495
586
663
707
765
836
868
845
799
752
713
680
631
548
486
516
556
494
457
590
779
908
955
797
465
277
324
353
273
212
182
124
77
74
58
1
-52
-77
-106
-161
-217
-248
-275
-313
-319
-279
-274
-325
-336
-311
-325
-324
-265
-235
-242
-162
0
91
61
5
-16
-26
-34
-43
-87
-183
-345
-634
-1060
-1504
-1786
-1833
-1769
-1715
-1574
-1263
-924
-653
-390
-153
-25
0
-18
-45
-91
-149
-131
-17
48
33
71
153
160
113
95
95
88
92
122
168
204
211
187
116
-14
-120
-103
-4
85
141
176
195
198
172
128
106
104
95
88
95
110
132
146
157
202
239
196
132
129
128
109
167
289
404
513
500
239
-51
-86
26
68
66
97
123
115
103
104
109
112
116
116
108
97
88
84
92
111
137
170
215
263
309
362
421
461
472
475
470
447
412
372
322
262
204
151
104
69
40
10
-23
-55
-80
-97
-108
-111
-112
-114
-108
-97
-98
-88
-69
-88
-86
11
22
-238
-572
-732
-797
-882
-888
-768
-643
-566
-462
-337
-256
-182
-62
47
87
94
114
139
150
165
201
241
265
286
318
349
368
373
367
360
359
364
374
389
402
407
407
402
384
354
314
266
205
138
71
0
-72
-139
-206
-273
-329
-373
-414
-439
-430
-390
-347
-310
-268
-222
-186
-173
-181
-208
-232
-238
-240
-260
-288
-312
-340
-374
-414
-457
-499
-533
-562
-593
-625
-651
-672
-689
-706
-727
-745
-754
-763
-772
-776
-780
-787
-788
-777
-769
-771
-770
-769
-772
-769
-760
-753
-734
-674
-569
-434
-289
-155
-41
46
80
48
1
2
31
85
221
390
576
1104
2185
3349
3984
4042
3789
3404
3011
2685
2453
2337
2310
2301
2283
2243
2116
1864
1546
1258
1022
793
559
352
180
31
-94
-205
-323
-439
-539
-627
-698
-736
-758
-784
-798
-796
-812
-845
-877
-920
-936
-869
-762
-684
-688
-875
-1178
-1314
-1232
-1170
-1198
-1204
-1189
-1212
-1236
-1225
-1192
-1160
-1167
-1206
-1192
-1111
-1060
-1054
-1025
-968
-918
-879
-833
-767
-701
-650
-582
-480
-383
-290
-181
-84
-17
54
140
229
319
394
448
496
546
598
640
654
665
709
770
837
917
972
981
960
909
828
750
668
566
474
419
376
315
238
164
109
80
70
68
62
47
40
46
39
15
6
22
43
62
79
83
74
58
31
2
-6
9
35
63
80
91
113
131
121
103
91
62
21
5
4
-13
-25
-30
-59
-41
75
185
243
245
50
-291
-424
-300
-223
-249
-236
-214
-241
-263
-258
-243
-220
-211
-219
-196
-152
-143
-161
-155
-120
-91
-87
-86
-66
